Wavelength,Transmission
7670.0,1.19057e-05
7675.0,1.39367e-05
7680.0,1.46346e-05
7685.0,1.53167e-05
7690.0,1.64256e-05
7695.0,1.86347e-05
7700.0,1.99021e-05
7705.0,2.26927e-05
7710.0,2.44418e-05
7715.0,2.69484e-05
7720.0,2.93552e-05
7725.0,3.17221e-05
7730.0,3.45458e-05
7735.0,3.79418e-05
7740.0,4.12327e-05
7745.0,4.35484e-05
7750.0,4.62554e-05
7755.0,5.07876e-05
7760.0,5.37714e-05
7765.0,5.75537e-05
7770.0,6.06387e-05
7775.0,6.42876e-05
7780.0,6.7999e-05
7785.0,7.03196e-05
7790.0,7.35535e-05
7795.0,7.71161e-05
7800.0,8.02176e-05
7805.0,8.23322e-05
7810.0,8.63087e-05
7815.0,9.00011e-05
7820.0,9.22215e-05
7825.0,9.62565e-05
7830.0,0.000102487
7835.0,0.000105746
7840.0,0.000110756
7845.0,0.000116347
7850.0,0.000121812
7855.0,0.000128358
7860.0,0.000135521
7865.0,0.000143669
7870.0,0.000152204
7875.0,0.000162571
7880.0,0.000176062
7885.0,0.000187909
7890.0,0.000203916
7895.0,0.000220637
7900.0,0.000240068
7905.0,0.000262144
7910.0,0.000287721
7915.0,0.000315908
7920.0,0.000349131
7925.0,0.000386395
7930.0,0.00043078
7935.0,0.000481502
7940.0,0.000540633
7945.0,0.000613687
7950.0,0.000697864
7955.0,0.000795063
7960.0,0.000916229
7965.0,0.00105292
7970.0,0.00121751
7975.0,0.00141897
7980.0,0.00164411
7985.0,0.00192416
7990.0,0.00223664
7995.0,0.0026161
8000.0,0.00305859
8005.0,0.00355265
8010.0,0.00412726
8015.0,0.00478828
8020.0,0.00550198
8025.0,0.00632104
8030.0,0.0071917
8035.0,0.00813695
8040.0,0.00918984
8045.0,0.0102305
8050.0,0.0113656
8055.0,0.0125231
8060.0,0.01367
8065.0,0.0148481
8070.0,0.0160434
8075.0,0.0172228
8080.0,0.0184105
8085.0,0.019593
8090.0,0.0207523
8095.0,0.0218787
8100.0,0.0229566
8105.0,0.0239884
8110.0,0.0249052
8115.0,0.0256499
8120.0,0.0262994
8125.0,0.0267761
8130.0,0.0270526
8135.0,0.0271477
8140.0,0.027092
8145.0,0.02687
8150.0,0.0265405
8155.0,0.0260966
8160.0,0.0255413
8165.0,0.0249983
8170.0,0.0244091
8175.0,0.0237765
8180.0,0.0231921
8185.0,0.0225951
8190.0,0.0220223
8195.0,0.021493
8200.0,0.0210181
8205.0,0.0205876
8210.0,0.0202189
8215.0,0.0199144
8220.0,0.0196491
8225.0,0.0194582
8230.0,0.0193426
8235.0,0.0192492
8240.0,0.0192295
8245.0,0.0192706
8250.0,0.0193301
8255.0,0.0194202
8260.0,0.0195555
8265.0,0.0197323
8270.0,0.0199432
8275.0,0.020164
8280.0,0.0204522
8285.0,0.0207828
8290.0,0.0211484
8295.0,0.0215838
8300.0,0.0220653
8305.0,0.0226102
8310.0,0.0232206
8315.0,0.0238378
8320.0,0.0244868
8325.0,0.0251182
8330.0,0.0257511
8335.0,0.0263159
8340.0,0.026806
8345.0,0.0272748
8350.0,0.0276559
8355.0,0.0279684
8360.0,0.0282616
8365.0,0.0285197
8370.0,0.0287727
8375.0,0.0290176
8380.0,0.0292807
8385.0,0.0294988
8390.0,0.0297255
8395.0,0.0299152
8400.0,0.0300592
8405.0,0.0300947
8410.0,0.0300475
8415.0,0.0298789
8420.0,0.029645
8425.0,0.0292963
8430.0,0.0288764
8435.0,0.0284108
8440.0,0.0279838
8445.0,0.02756
8450.0,0.0272381
8455.0,0.027002
8460.0,0.0269105
8465.0,0.0269371
8470.0,0.0270784
8475.0,0.0273671
8480.0,0.027713
8485.0,0.0282163
8490.0,0.0287036
8495.0,0.029213
8500.0,0.0296617
8505.0,0.0300887
8510.0,0.030387
8515.0,0.0305804
8520.0,0.0306922
8525.0,0.0307085
8530.0,0.0305883
8535.0,0.0304463
8540.0,0.030255
8545.0,0.0300767
8550.0,0.0298618
8555.0,0.0297143
8560.0,0.0296086
8565.0,0.0295126
8570.0,0.029487
8575.0,0.0295134
8580.0,0.0295136
8585.0,0.029571
8590.0,0.0295667
8595.0,0.0296414
8600.0,0.029695
8605.0,0.0297028
8610.0,0.0297382
8615.0,0.0297153
8620.0,0.0297558
8625.0,0.0297497
8630.0,0.0297321
8635.0,0.0297406
8640.0,0.029749
8645.0,0.0297508
8650.0,0.0297876
8655.0,0.0298827
8660.0,0.0298426
8665.0,0.0299652
8670.0,0.0299873
8675.0,0.0300814
8680.0,0.0300717
8685.0,0.0300283
8690.0,0.030039
8695.0,0.0300212
8700.0,0.029959
8705.0,0.0298143
8710.0,0.0296782
8715.0,0.0294676
8720.0,0.0292882
8725.0,0.0290692
8730.0,0.0288474
8735.0,0.0285145
8740.0,0.0282959
8745.0,0.0281799
8750.0,0.0284971
8755.0,0.0283343
8760.0,0.0282329
8765.0,0.0281401
8770.0,0.0281
8775.0,0.0281341
8780.0,0.0282093
8785.0,0.0282839
8790.0,0.0284198
8795.0,0.0284695
8800.0,0.0286502
8805.0,0.0287199
8810.0,0.0287975
8815.0,0.0288175
8820.0,0.0288182
8825.0,0.0287306
8830.0,0.028685
8835.0,0.0285417
8840.0,0.0284171
8845.0,0.0283157
8850.0,0.0282054
8855.0,0.0281134
8860.0,0.0281354
8865.0,0.0281507
8870.0,0.0283178
8875.0,0.0285496
8880.0,0.028836
8885.0,0.0292005
8890.0,0.0296615
8895.0,0.0301888
8900.0,0.0307724
8905.0,0.0313322
8910.0,0.031889
8915.0,0.0323564
8920.0,0.0327854
8925.0,0.0331854
8930.0,0.0334758
8935.0,0.0336552
8940.0,0.0337886
8945.0,0.0337947
8950.0,0.0337649
8955.0,0.0337202
8960.0,0.0336517
8965.0,0.0335882
8970.0,0.0335651
8975.0,0.0335597
8980.0,0.0336342
8985.0,0.0336809
8990.0,0.0338013
8995.0,0.0339146
9000.0,0.0340651
9005.0,0.0341637
9010.0,0.0342936
9015.0,0.0343002
9020.0,0.0343351
9025.0,0.0343172
9030.0,0.0342381
9035.0,0.0341441
9040.0,0.0340384
9045.0,0.0339447
9050.0,0.0338751
9055.0,0.0337984
9060.0,0.0337952
9065.0,0.0338866
9070.0,0.0339744
9075.0,0.0341558
9080.0,0.0343929
9085.0,0.034736
9090.0,0.03504
9095.0,0.035388
9100.0,0.0357137
9105.0,0.0360879
9110.0,0.0363643
9115.0,0.0366726
9120.0,0.0369086
9125.0,0.0370752
9130.0,0.0372119
9135.0,0.0373216
9140.0,0.0373823
9145.0,0.0374514
9150.0,0.0375235
9155.0,0.0376368
9160.0,0.0377701
9165.0,0.0379098
9170.0,0.0381201
9175.0,0.0383473
9180.0,0.0386058
9185.0,0.0388973
9190.0,0.039193
9195.0,0.0394357
9200.0,0.0397248
9205.0,0.0399683
9210.0,0.0401877
9215.0,0.0403427
9220.0,0.0404637
9225.0,0.0405477
9230.0,0.0406128
9235.0,0.0406214
9240.0,0.0406243
9245.0,0.0406388
9250.0,0.0406709
9255.0,0.0407065
9260.0,0.0407584
9265.0,0.0408286
9270.0,0.0408991
9275.0,0.041003
9280.0,0.0410948
9285.0,0.0411847
9290.0,0.0412284
9295.0,0.0412713
9300.0,0.041275
9305.0,0.041234
9310.0,0.041167
9315.0,0.0410674
9320.0,0.040943
9325.0,0.0407878
9330.0,0.0406495
9335.0,0.0405127
9340.0,0.0403585
9345.0,0.0402483
9350.0,0.0401728
9355.0,0.0401067
9360.0,0.0400998
9365.0,0.0401145
9370.0,0.0400883
9375.0,0.0401521
9380.0,0.0401965
9385.0,0.040231
9390.0,0.0402983
9395.0,0.0403385
9400.0,0.040342
9405.0,0.0404011
9410.0,0.0403962
9415.0,0.0404042
9420.0,0.0404163
9425.0,0.0404316
9430.0,0.0404404
9435.0,0.0404717
9440.0,0.0405138
9445.0,0.0405621
9450.0,0.0406232
9455.0,0.0406681
9460.0,0.0407639
9465.0,0.0408086
9470.0,0.0408355
9475.0,0.0408747
9480.0,0.0408785
9485.0,0.040818
9490.0,0.0407712
9495.0,0.0406474
9500.0,0.040516
9505.0,0.0403628
9510.0,0.0402304
9515.0,0.0400673
9520.0,0.0399435
9525.0,0.0398248
9530.0,0.0396997
9535.0,0.0396589
9540.0,0.0396181
9545.0,0.0396523
9550.0,0.0396642
9555.0,0.0397329
9560.0,0.0397907
9565.0,0.0398809
9570.0,0.0399464
9575.0,0.0399834
9580.0,0.0400303
9585.0,0.0400392
9590.0,0.0400014
9595.0,0.0399518
9600.0,0.0398764
9605.0,0.0397772
9610.0,0.0396838
9615.0,0.0395703
9620.0,0.0394934
9625.0,0.0394222
9630.0,0.0393709
9635.0,0.039378
9640.0,0.0394344
9645.0,0.0394999
9650.0,0.039659
9655.0,0.0398456
9660.0,0.0400582
9665.0,0.0402852
9670.0,0.0405428
9675.0,0.0407873
9680.0,0.0410258
9685.0,0.0412464
9690.0,0.0414382
9695.0,0.0416038
9700.0,0.0417168
9705.0,0.0417879
9710.0,0.0418374
9715.0,0.0418328
9720.0,0.0418326
9725.0,0.041832
9730.0,0.0418196
9735.0,0.0418456
9740.0,0.0418763
9745.0,0.0419458
9750.0,0.0420491
9755.0,0.0421945
9760.0,0.0423367
9765.0,0.0424998
9770.0,0.0426819
9775.0,0.0428466
9780.0,0.0430066
9785.0,0.0431312
9790.0,0.0432111
9795.0,0.0432462
9800.0,0.0432369
9805.0,0.043188
9810.0,0.0430943
9815.0,0.0429691
9820.0,0.042825
9825.0,0.0426685
9830.0,0.042522
9835.0,0.0423598
9840.0,0.0422339
9845.0,0.0421541
9850.0,0.0420996
9855.0,0.042111
9860.0,0.04214
9865.0,0.0422244
9870.0,0.0423413
9875.0,0.0425063
9880.0,0.0426699
9885.0,0.0428472
9890.0,0.0430128
9895.0,0.0431286
9900.0,0.0433022
9905.0,0.0434281
9910.0,0.0435095
9915.0,0.0435743
9920.0,0.0435838
9925.0,0.0435872
9930.0,0.043572
9935.0,0.0435394
9940.0,0.0435246
9945.0,0.0434876
9950.0,0.0434878
9955.0,0.043518
9960.0,0.0435555
9965.0,0.0436045
9970.0,0.0436776
9975.0,0.0437841
9980.0,0.043901
9985.0,0.0440169
9990.0,0.044141
9995.0,0.0442414
10000.0,0.0443642
10005.0,0.0444539
10010.0,0.0445463
10015.0,0.0445986
10020.0,0.0446504
10025.0,0.0446817
10030.0,0.0447166
10035.0,0.0447349
10040.0,0.0447484
10045.0,0.0448185
10050.0,0.0448821
10055.0,0.0449826
10060.0,0.0451293
10065.0,0.0453164
10070.0,0.0455351
10075.0,0.0458023
10080.0,0.0460712
10085.0,0.0464122
10090.0,0.0467483
10095.0,0.0470964
10100.0,0.0474437
10105.0,0.0477775
10110.0,0.0480589
10115.0,0.0483397
10120.0,0.0485732
10125.0,0.0487483
10130.0,0.0489064
10135.0,0.0490111
10140.0,0.0490541
10145.0,0.0491211
10150.0,0.0491361
10155.0,0.0491568
10160.0,0.0491987
10170.0,0.0492818
10175.0,0.0493716
10180.0,0.049497
10185.0,0.0496902
10190.0,0.0499314
10195.0,0.0501724
10200.0,0.050457
10205.0,0.0507793
10210.0,0.0510975
10215.0,0.0514179
10220.0,0.0517443
10225.0,0.0520268
10230.0,0.0522825
10235.0,0.0524614
10240.0,0.0526203
10245.0,0.0527439
10250.0,0.0527982
10255.0,0.0528081
10260.0,0.0528055
10265.0,0.0527369
10270.0,0.0526753
10275.0,0.0526032
10280.0,0.0525153
10285.0,0.0524163
10290.0,0.0523552
10295.0,0.0523002
10300.0,0.0522286
10305.0,0.0521843
10310.0,0.0521371
10315.0,0.0520365
10320.0,0.0519681
10325.0,0.0518193
10330.0,0.0516938
10335.0,0.0515186
10340.0,0.0513098
10345.0,0.0510418
10350.0,0.0507119
10355.0,0.0503667
10360.0,0.0499934
10365.0,0.0496461
10370.0,0.0492521
10375.0,0.0488507
10380.0,0.0484691
10385.0,0.0480928
10390.0,0.0477954
10395.0,0.0475259
10400.0,0.0473199
10405.0,0.0471416
10410.0,0.0469898
10415.0,0.0468875
10420.0,0.046851
10425.0,0.0468263
10430.0,0.0468195
10435.0,0.0468231
10440.0,0.046842
10445.0,0.0468421
10450.0,0.0467959
10455.0,0.0467373
10460.0,0.0466439
10465.0,0.0464898
10470.0,0.0463058
10475.0,0.0460396
10480.0,0.0457316
10485.0,0.0454047
10490.0,0.0450797
10495.0,0.0446865
10500.0,0.0443082
10505.0,0.043924
10510.0,0.0435124
10515.0,0.043161
10520.0,0.0428126
10525.0,0.0425233
10530.0,0.0422371
10535.0,0.0419793
10540.0,0.0417591
10545.0,0.0415442
10550.0,0.0413822
10555.0,0.041216
10560.0,0.0410659
10565.0,0.0409182
10570.0,0.0407587
10575.0,0.0405942
10580.0,0.0404264
10585.0,0.0402454
10590.0,0.0400253
10595.0,0.0398343
10600.0,0.0395908
10605.0,0.0393352
10610.0,0.039092
10615.0,0.0388561
10620.0,0.0386376
10625.0,0.0384466
10630.0,0.0382895
10635.0,0.0381622
10640.0,0.0381118
10645.0,0.0381007
10650.0,0.0381547
10655.0,0.0382665
10660.0,0.0384323
10665.0,0.0386998
10670.0,0.0390213
10675.0,0.0393675
10680.0,0.0397753
10685.0,0.0402408
10690.0,0.0407406
10695.0,0.0412942
10700.0,0.0418675
10705.0,0.0424295
10710.0,0.0430053
10715.0,0.043542
10720.0,0.0441035
10725.0,0.0446412
10730.0,0.0451414
10735.0,0.0455877
10740.0,0.0460029
10745.0,0.0463922
10750.0,0.0467137
10755.0,0.047049
10760.0,0.047319
10765.0,0.0475781
10770.0,0.0477936
10775.0,0.048012
10780.0,0.0482042
10785.0,0.048369
10790.0,0.048558
10795.0,0.0487093
10800.0,0.0488569
10805.0,0.048953
10810.0,0.0490475
10815.0,0.0491412
10820.0,0.0491841
10825.0,0.049201
10830.0,0.0492093
10835.0,0.0491449
10840.0,0.0490836
10845.0,0.0489967
10850.0,0.0488387
10855.0,0.0487025
10860.0,0.0485449
10865.0,0.0483703
10870.0,0.0482094
10875.0,0.0480618
10880.0,0.047921
10885.0,0.0478399
10890.0,0.0477715
10895.0,0.0477509
10900.0,0.047827
10905.0,0.047918
10910.0,0.0480806
10915.0,0.0483203
10920.0,0.0485807
10925.0,0.0489416
10930.0,0.0493121
10935.0,0.049724
10940.0,0.0501692
10945.0,0.0506724
10950.0,0.0511348
10955.0,0.0515979
10960.0,0.0520512
10965.0,0.0524576
10970.0,0.0528621
10975.0,0.0532122
10980.0,0.0535069
10985.0,0.0537473
10990.0,0.0539137
10995.0,0.0540359
11000.0,0.0541025
11005.0,0.0540969
11010.0,0.0539952
11015.0,0.0539042
11020.0,0.0537652
11025.0,0.0536442
11030.0,0.0535074
11035.0,0.0533629
11040.0,0.0532492
11045.0,0.0531556
11050.0,0.0530502
11055.0,0.0529993
11060.0,0.0529658
11065.0,0.0529303
11070.0,0.052915
11075.0,0.0529181
11080.0,0.0529472
11085.0,0.0529503
11090.0,0.0529581
11095.0,0.0529724
11100.0,0.0529446
11105.0,0.0529373
11110.0,0.0528804
11115.0,0.0528263
11120.0,0.0527581
11125.0,0.0526593
11130.0,0.0525702
11135.0,0.0524613
11140.0,0.052333
11145.0,0.0522133
11150.0,0.0521262
11155.0,0.0520404
11160.0,0.0519794
11165.0,0.0519483
11170.0,0.05192
11175.0,0.0520004
11180.0,0.0520376
11185.0,0.0521373
11190.0,0.0522778
11195.0,0.0524082
11200.0,0.0526159
11205.0,0.0528028
11210.0,0.0529876
11215.0,0.0531738
11220.0,0.0533391
11225.0,0.0535041
11230.0,0.0535959
11235.0,0.0537077
11240.0,0.0537295
11245.0,0.0537366
11250.0,0.0537008
11255.0,0.0536082
11260.0,0.0535299
11265.0,0.053326
11270.0,0.053105
11275.0,0.0529164
11280.0,0.052681
11285.0,0.052456
11290.0,0.0522324
11295.0,0.0520394
11300.0,0.0518423
11305.0,0.051708
11310.0,0.0516063
11315.0,0.0515534
11320.0,0.0515665
11325.0,0.0515917
11330.0,0.0517204
11335.0,0.0518863
11340.0,0.0520912
11345.0,0.0523645
11350.0,0.0526354
11355.0,0.0529941
11360.0,0.0533959
11365.0,0.0538045
11370.0,0.0542113
11375.0,0.0545971
11380.0,0.0550074
11385.0,0.0554044
11390.0,0.0557509
11395.0,0.0561095
11400.0,0.056396
11405.0,0.0566404
11410.0,0.056865
11415.0,0.0570033
11420.0,0.0571352
11425.0,0.0572077
11430.0,0.0572277
11435.0,0.0572318
11440.0,0.0572129
11445.0,0.0571265
11450.0,0.0570646
11455.0,0.0569999
11460.0,0.0568947
11465.0,0.0568216
11470.0,0.0567192
11475.0,0.0566536
11480.0,0.0565945
11485.0,0.0564896
11490.0,0.0564586
11495.0,0.0564007
11500.0,0.0563136
11505.0,0.0562346
11510.0,0.0561583
11515.0,0.0560527
11520.0,0.0559186
11525.0,0.0558027
11530.0,0.0556455
11535.0,0.0554971
11540.0,0.0553148
11545.0,0.0551205
11550.0,0.0548973
11555.0,0.0546305
11560.0,0.054387
11565.0,0.0541027
11570.0,0.0538319
11575.0,0.053532
11580.0,0.0532294
11585.0,0.0529121
11590.0,0.0526149
11595.0,0.0523054
11600.0,0.0520162
11605.0,0.0517324
11610.0,0.0514503
11615.0,0.0511765
11620.0,0.050906
11625.0,0.050655
11630.0,0.0503965
11635.0,0.0501471
11640.0,0.0498831
11645.0,0.0496112
11650.0,0.0493257
11655.0,0.0490884
11660.0,0.0487906
11665.0,0.0485041
11670.0,0.048193
11675.0,0.047859
11680.0,0.0474741
11685.0,0.0471646
11690.0,0.046806
11695.0,0.0464526
11700.0,0.0460775
11705.0,0.0456804
11710.0,0.0452761
11715.0,0.0449253
11720.0,0.0445373
11725.0,0.0442019
11730.0,0.0438704
11735.0,0.0435501
11740.0,0.0432177
11745.0,0.042949
11750.0,0.0426964
11755.0,0.0424638
11760.0,0.042258
11765.0,0.0420616
11770.0,0.0419067
11775.0,0.0417464
11780.0,0.0416268
11785.0,0.041524
11790.0,0.0414267
11795.0,0.0413652
11800.0,0.0412795
11805.0,0.0412084
11810.0,0.0411579
11815.0,0.0411076
11820.0,0.0410503
11825.0,0.0409881
11830.0,0.0409384
11835.0,0.0408763
11840.0,0.0408113
11845.0,0.040755
11850.0,0.0406736
11855.0,0.0405962
11860.0,0.0405356
11865.0,0.0404486
11870.0,0.0403749
11875.0,0.0403125
11880.0,0.0402485
11885.0,0.0401994
11890.0,0.0401798
11895.0,0.0401302
11900.0,0.0401192
11905.0,0.0401312
11910.0,0.0401515
11915.0,0.0401753
11920.0,0.0402347
11925.0,0.0403018
11930.0,0.0403967
11935.0,0.0405026
11940.0,0.0406203
11945.0,0.0407348
11950.0,0.0408707
11955.0,0.0410203
11960.0,0.0411866
11965.0,0.0413407
11970.0,0.0414814
11975.0,0.0416535
11980.0,0.041781
11985.0,0.0419276
11990.0,0.0420781
11995.0,0.0422191
12000.0,0.0423634
12005.0,0.0424904
12010.0,0.0426285
12015.0,0.0427533
12020.0,0.0429008
12025.0,0.0430205
12030.0,0.043168
12035.0,0.0432857
12040.0,0.0434219
12045.0,0.0435612
12050.0,0.0437013
12055.0,0.043858
12060.0,0.0440545
12065.0,0.0442172
12070.0,0.0444069
12075.0,0.044622
12080.0,0.0448322
12085.0,0.0450649
12090.0,0.0453288
12095.0,0.0455679
12100.0,0.0458205
12105.0,0.046071
12110.0,0.0463135
12115.0,0.0465899
12120.0,0.0468229
12125.0,0.0470552
12130.0,0.0472701
12135.0,0.0474738
12140.0,0.0476393
12145.0,0.0478244
12150.0,0.047934
12155.0,0.0480448
12160.0,0.0481186
12165.0,0.0481627
12170.0,0.0481786
12175.0,0.0481902
12180.0,0.0481296
12185.0,0.0480869
12190.0,0.048007
12195.0,0.0479161
12200.0,0.0478241
12205.0,0.047711
12210.0,0.0475738
12215.0,0.0474377
12220.0,0.0473176
12225.0,0.0471729
12230.0,0.047061
12235.0,0.0469553
12240.0,0.046843
12245.0,0.0467191
12250.0,0.0466198
12255.0,0.0465376
12260.0,0.0464276
12265.0,0.0463307
12270.0,0.0462306
12275.0,0.0461262
12280.0,0.0460224
12285.0,0.0458839
12290.0,0.0457737
12295.0,0.0456211
12300.0,0.0454605
12305.0,0.0452972
12310.0,0.0450828
12315.0,0.0448509
12320.0,0.0446318
12325.0,0.0443575
12330.0,0.0440929
12335.0,0.0437882
12340.0,0.0434261
12345.0,0.0430718
12350.0,0.0427417
12355.0,0.0423555
12360.0,0.0419888
12365.0,0.0416088
12370.0,0.0411818
12375.0,0.040805
12380.0,0.0404242
12385.0,0.04006
12390.0,0.0396989
12395.0,0.0393508
12400.0,0.038993
12405.0,0.0386609
12410.0,0.0383598
12415.0,0.0380775
12420.0,0.0378067
12425.0,0.0375555
12430.0,0.0373019
12435.0,0.0370861
12440.0,0.0369101
12445.0,0.0367308
12450.0,0.0365634
12455.0,0.0364248
12460.0,0.0362844
12465.0,0.0361767
12470.0,0.0360662
12475.0,0.0359796
12480.0,0.0359106
12485.0,0.0358365
12490.0,0.0357721
12495.0,0.035744
12500.0,0.0356921
12505.0,0.0356622
12510.0,0.0356342
12515.0,0.0356124
12520.0,0.0356254
12525.0,0.0356128
12530.0,0.0356261
12535.0,0.0356453
12540.0,0.0356862
12545.0,0.0357286
12550.0,0.0357737
12555.0,0.0358564
12560.0,0.0359364
12565.0,0.0360468
12570.0,0.0361489
12575.0,0.0362741
12580.0,0.0364269
12585.0,0.0365856
12590.0,0.0367753
12595.0,0.037006
12600.0,0.0372115
12605.0,0.0374644
12610.0,0.0377295
12615.0,0.0380287
12620.0,0.0383468
12625.0,0.0387137
12630.0,0.0390638
12635.0,0.0394471
12640.0,0.0398528
12645.0,0.0402688
12650.0,0.040727
12655.0,0.0412497
12660.0,0.0417424
12665.0,0.0422608
12670.0,0.0427895
12675.0,0.0433583
12680.0,0.0439317
12685.0,0.0445618
12690.0,0.0451699
12695.0,0.0457883
12700.0,0.046389
12705.0,0.0469884
12710.0,0.0476105
12715.0,0.048204
12720.0,0.0487958
12725.0,0.0492979
12730.0,0.0497387
12735.0,0.0501391
12740.0,0.0504752
12745.0,0.050686
12750.0,0.050787
12755.0,0.0507303
12760.0,0.0505221
12765.0,0.0501473
12770.0,0.0496179
12775.0,0.0488209
12780.0,0.0478175
12785.0,0.0466135
12790.0,0.0452215
12795.0,0.0437109
12800.0,0.0420798
12805.0,0.0401626
12810.0,0.0382208
12815.0,0.0360795
12820.0,0.0340312
12825.0,0.0320222
12830.0,0.0299876
12835.0,0.0279541
12840.0,0.0259826
12845.0,0.0239938
12850.0,0.0221022
12855.0,0.0204687
12860.0,0.0188574
12865.0,0.017447
12870.0,0.0160144
12875.0,0.0147038
12880.0,0.0134339
12885.0,0.0123548
12890.0,0.0113779
12895.0,0.0104594
12900.0,0.00966155
12905.0,0.00884174
12910.0,0.00809697
12915.0,0.00749308
12920.0,0.0068952
12925.0,0.00637664
12930.0,0.00589642
12935.0,0.00544316
12940.0,0.0050068
12945.0,0.00461998
12950.0,0.00429943
12955.0,0.00400316
12960.0,0.00372814
12965.0,0.00344723
12970.0,0.00319824
12975.0,0.00298191
12980.0,0.00277113
12985.0,0.00259438
12990.0,0.00242466
12995.0,0.00225951
13000.0,0.00211232
13005.0,0.00197104
13010.0,0.00184481
13015.0,0.00172832
13020.0,0.00162757
13025.0,0.0015327
13030.0,0.00143434
13035.0,0.00135406
13040.0,0.00126603
13045.0,0.00119082
13050.0,0.00112444
13055.0,0.00106683
13060.0,0.00100723
13065.0,0.000947361
13070.0,0.00089435
13075.0,0.000846869
13080.0,0.000804768
13085.0,0.000759483
13090.0,0.000718847
13095.0,0.000676493
13100.0,0.000641375
13105.0,0.000610933
13110.0,0.000562089
13115.0,0.000536699
13120.0,0.000529012
13125.0,0.000497001
13130.0,0.000472066
13135.0,0.000444775
13140.0,0.000419244
13145.0,0.000412117
13150.0,0.000386712
13155.0,0.000370836
13160.0,0.000364981
13165.0,0.000337761
13170.0,0.000320643
13175.0,0.000306873
13180.0,0.000294505
13185.0,0.000282843
13190.0,0.000268628
13195.0,0.000249513
13200.0,0.000242933
13205.0,0.000227936
13210.0,0.000225923
13215.0,0.000217645
13220.0,0.000212398
13225.0,0.000199853
13230.0,0.000187416
13235.0,0.000176397
13240.0,0.000168729
13245.0,0.000167865
13250.0,0.000162151
13255.0,0.000152596
13260.0,0.000156712
13265.0,0.000142247
13270.0,0.000143503
13275.0,0.000137338
13280.0,0.000125803
13285.0,0.000126529
13290.0,0.000118382
13295.0,0.000131885
13300.0,0.000108906
13305.0,0.000107648
