Wavelength,Transmission
6000.0,0.000600774
6010.0,0.000622938
6020.0,0.000667345
6030.0,0.000733983
6040.0,0.000845084
6050.0,0.000956157
6060.0,0.0010672
6070.0,0.00115599
6080.0,0.00122254
6090.0,0.00126684
6100.0,0.00128891
6110.0,0.00126624
6120.0,0.0012436
6130.0,0.00117657
6140.0,0.00113177
6150.0,0.00106483
6160.0,0.00099793
6170.0,0.000953243
6180.0,0.000930748
6190.0,0.000908268
6200.0,0.000930089
6210.0,0.000951563
6220.0,0.000973005
6230.0,0.000994416
6240.0,0.0010158
6250.0,0.00101508
6260.0,0.000992298
6270.0,0.000969545
6280.0,0.000946823
6290.0,0.000946134
6300.0,0.000967429
6310.0,0.000966214
6320.0,0.000943061
6330.0,0.000854251
6340.0,0.000787537
6350.0,0.000764684
6360.0,0.000785523
6370.0,0.000849885
6380.0,0.000914073
6390.0,0.000978086
6400.0,0.00102022
6410.0,0.00101817
6420.0,0.000972875
6430.0,0.000884602
6440.0,0.000753612
6450.0,0.000623147
6460.0,0.000536093
6470.0,0.000470789
6480.0,0.000469812
6490.0,0.000511453
6500.0,0.000574178
6510.0,0.000657337
6520.0,0.000761141
6530.0,0.000843243
6540.0,0.000882812
6550.0,0.000901174
6560.0,0.000898518
6570.0,0.000895859
6580.0,0.000913968
6590.0,0.000952659
6600.0,0.000991099
6610.0,0.00102864
6620.0,0.00108638
6630.0,0.00110284
6640.0,0.00111915
6650.0,0.00111503
6660.0,0.00109072
6670.0,0.00102631
6680.0,0.000942307
6690.0,0.000858902
6700.0,0.000815899
6710.0,0.000792683
6720.0,0.000789373
6730.0,0.000746764
6740.0,0.000606644
6750.0,0.000487169
6760.0,0.000446304
6770.0,0.000521705
6780.0,0.000634935
6790.0,0.000747187
6800.0,0.000763078
6810.0,0.000759634
6820.0,0.000888534
6830.0,0.00111034
6840.0,0.00138631
6850.0,0.00162243
6860.0,0.0018935
6870.0,0.0025316
6880.0,0.00371563
6890.0,0.00556616
6900.0,0.00812858
6910.0,0.0114105
6920.0,0.0152395
6930.0,0.0194638
6940.0,0.0239343
6950.0,0.0284691
6960.0,0.0330314
6970.0,0.0376913
6980.0,0.0424644
6990.0,0.0474011
7000.0,0.0525682
7010.0,0.0580192
7020.0,0.0637626
7030.0,0.0697601
7040.0,0.0758195
7050.0,0.0817696
7060.0,0.087442
7070.0,0.092655
7080.0,0.097264
7090.0,0.101343
7100.0,0.104951
7110.0,0.108186
7120.0,0.111126
7130.0,0.11384
7140.0,0.116378
7150.0,0.118728
7160.0,0.120844
7170.0,0.122744
7180.0,0.124366
7190.0,0.125716
7200.0,0.126795
7210.0,0.127656
7220.0,0.128317
7230.0,0.128813
7240.0,0.129144
7250.0,0.129361
7260.0,0.129479
7270.0,0.129516
7280.0,0.129489
7290.0,0.129427
7300.0,0.129316
7310.0,0.129191
7320.0,0.129049
7330.0,0.128891
7340.0,0.1287
7350.0,0.128508
7360.0,0.128314
7370.0,0.128089
7380.0,0.127833
7390.0,0.127576
7400.0,0.127275
7410.0,0.126985
7420.0,0.126666
7430.0,0.126304
7440.0,0.125942
7450.0,0.125566
7460.0,0.125176
7470.0,0.124813
7480.0,0.124465
7490.0,0.12413
7500.0,0.123854
7510.0,0.123637
7520.0,0.123462
7530.0,0.123274
7540.0,0.123058
7550.0,0.122773
7560.0,0.122433
7570.0,0.122079
7580.0,0.121712
7590.0,0.121399
7600.0,0.121164
7610.0,0.120957
7620.0,0.120576
7630.0,0.12017
7640.0,0.119869
7650.0,0.119724
7660.0,0.11959
7670.0,0.119326
7680.0,0.118919
7690.0,0.118461
7700.0,0.118017
7710.0,0.117633
7720.0,0.117237
7730.0,0.116829
7740.0,0.116396
7750.0,0.115977
7760.0,0.115608
7770.0,0.115277
7780.0,0.114922
7790.0,0.114542
7800.0,0.114125
7810.0,0.113716
7820.0,0.113295
7830.0,0.112863
7840.0,0.112445
7850.0,0.112039
7860.0,0.111622
7870.0,0.111049
7880.0,0.110443
7890.0,0.11003
7900.0,0.109618
7910.0,0.109179
7920.0,0.108741
7930.0,0.108327
7940.0,0.107938
7950.0,0.107551
7960.0,0.107164
7970.0,0.106778
7980.0,0.106372
7990.0,0.105975
8000.0,0.105585
8010.0,0.105221
8020.0,0.104882
8030.0,0.104562
8040.0,0.104268
8050.0,0.103975
8060.0,0.103694
8070.0,0.103413
8080.0,0.103132
8090.0,0.102851
8100.0,0.10257
8110.0,0.102288
8120.0,0.102027
8130.0,0.101843
8140.0,0.101703
8150.0,0.101517
8160.0,0.101244
8170.0,0.100916
8180.0,0.100577
8190.0,0.100239
8200.0,0.0999219
8210.0,0.0996497
8220.0,0.0993879
8230.0,0.0991363
8240.0,0.098884
8250.0,0.0986419
8260.0,0.0983886
8270.0,0.0981241
8280.0,0.0978593
8290.0,0.097594
8300.0,0.0973281
8310.0,0.0971077
8320.0,0.0968969
8330.0,0.0966851
8340.0,0.0964416
8350.0,0.0961663
8360.0,0.09587
8370.0,0.0955835
8380.0,0.0953373
8390.0,0.0951313
8400.0,0.094955
8410.0,0.0948147
8420.0,0.0946121
8430.0,0.0944088
8440.0,0.0942448
8450.0,0.0941701
8460.0,0.094084
8470.0,0.0938861
8480.0,0.0936476
8490.0,0.0934094
8500.0,0.0931926
8510.0,0.0930374
8520.0,0.0928237
8530.0,0.0925901
8540.0,0.0924249
8550.0,0.092387
8560.0,0.0924165
8570.0,0.0923063
8580.0,0.0921066
8590.0,0.0918959
8600.0,0.0917134
8610.0,0.0916047
8620.0,0.0915044
8630.0,0.0914123
8640.0,0.0913186
8650.0,0.0912137
8660.0,0.0910975
8670.0,0.0909896
8680.0,0.0908803
8690.0,0.090779
8700.0,0.0907053
8710.0,0.0907119
8720.0,0.0907169
8730.0,0.0907007
8740.0,0.0906537
8750.0,0.0905568
8760.0,0.0903908
8770.0,0.0901749
8780.0,0.0900345
8790.0,0.08995
8800.0,0.089883
8810.0,0.0898496
8820.0,0.0896988
8830.0,0.0894405
8840.0,0.0892761
8850.0,0.089292
8860.0,0.0892962
8870.0,0.0892215
8880.0,0.0891543
8890.0,0.089133
8900.0,0.0890713
8910.0,0.0888943
8920.0,0.0885611
8930.0,0.088273
8940.0,0.0881544
8950.0,0.0880805
8960.0,0.0878509
8970.0,0.0874946
8980.0,0.0872128
8990.0,0.0869579
9000.0,0.0866244
9010.0,0.0864114
9020.0,0.0862438
9030.0,0.0859685
9040.0,0.0854904
9050.0,0.0851243
9060.0,0.0847269
9070.0,0.0842413
9080.0,0.0839817
9090.0,0.0835956
9100.0,0.0831119
9110.0,0.0826074
9120.0,0.0821094
9130.0,0.0816175
9140.0,0.081113
9150.0,0.0805959
9160.0,0.0800661
9170.0,0.0795142
9180.0,0.0789592
9190.0,0.0783728
9200.0,0.077755
9210.0,0.077102
9220.0,0.0764082
9230.0,0.0756737
9240.0,0.0749174
9250.0,0.0741302
9260.0,0.0733215
9270.0,0.0725103
9280.0,0.0716778
9290.0,0.0708524
9300.0,0.0700341
9310.0,0.0692055
9320.0,0.0683753
9330.0,0.0675433
9340.0,0.0666913
9350.0,0.0658101
9360.0,0.0648724
9370.0,0.0638786
9380.0,0.0628108
9390.0,0.0616605
9400.0,0.0604103
9410.0,0.0590068
9420.0,0.0575438
9430.0,0.0560855
9440.0,0.0546953
9450.0,0.0534266
9460.0,0.0522516
9470.0,0.0511247
9480.0,0.0499924
9490.0,0.0487928
9500.0,0.0474743
9510.0,0.0459653
9520.0,0.0443616
9530.0,0.0427434
9540.0,0.0411888
9550.0,0.0397574
9560.0,0.0384135
9570.0,0.0371391
9580.0,0.0359078
9590.0,0.0346692
9600.0,0.0334237
9610.0,0.032156
9620.0,0.0308927
9630.0,0.0296507
9640.0,0.0284381
9650.0,0.0272545
9660.0,0.0261001
9670.0,0.0249744
9680.0,0.0238851
9690.0,0.0228164
9700.0,0.0217683
9710.0,0.0207309
9720.0,0.0197154
9730.0,0.0187218
9740.0,0.0177501
9750.0,0.016815
9760.0,0.0159086
9770.0,0.0150522
9780.0,0.0142378
9790.0,0.0134715
9800.0,0.0127455
9810.0,0.0120438
9820.0,0.011382
9830.0,0.0107459
9840.0,0.0101351
9850.0,0.00954906
9860.0,0.00899386
9870.0,0.00846247
9880.0,0.00795442
9890.0,0.00746314
9900.0,0.00700056
9910.0,0.00655229
9920.0,0.00612009
9930.0,0.00570951
9940.0,0.00530872
9950.0,0.00492898
9960.0,0.00456975
9970.0,0.00424135
9980.0,0.00394266
9990.0,0.00368297
10000.0,0.00347077
10010.0,0.00331255
10020.0,0.00319684
10030.0,0.00303015
10040.0,0.00273606
10050.0,0.00228183
10060.0,0.00194372
10070.0,0.00176331
10080.0,0.00167051
10090.0,0.00161348
10100.0,0.00154084
10110.0,0.00143906
10120.0,0.00132103
10130.0,0.00119583
10140.0,0.00107908
10150.0,0.000977642
10160.0,0.00090101
10170.0,0.000786825
10180.0,0.000629038
10190.0,0.00055541
10200.0,0.000534084
10210.0,0.000517386
10220.0,0.000492065
10230.0,0.000458983
10240.0,0.000427014
10250.0,0.00039102
10260.0,0.000356535
10270.0,0.000321185
10280.0,0.000289833
10290.0,0.000257823
10300.0,0.000217102
10310.0,0.00018052
10320.0,0.000157756
10330.0,0.000145499
10340.0,0.00013548
10350.0,0.000127455
10360.0,0.000119582
10370.0,0.000108838
10380.0,9.5722e-05
10390.0,8.34257e-05
10400.0,7.32135e-05
10410.0,6.8479e-05
10420.0,6.27216e-05
10430.0,5.39659e-05
10440.0,4.2763e-05
10450.0,3.06221e-05
