Wavelength,Transmission
1158.0,1.31174e-05
1160.0,1.49194e-05
1162.0,1.68051e-05
1164.0,1.86255e-05
1166.0,2.05466e-05
1168.0,2.25705e-05
1170.0,2.46996e-05
1172.0,2.68291e-05
1174.0,2.9055e-05
1176.0,3.1379e-05
1178.0,3.38031e-05
1180.0,3.63291e-05
1182.0,3.87799e-05
1184.0,4.13179e-05
1186.0,4.39443e-05
1188.0,4.66606e-05
1190.0,4.94681e-05
1192.0,5.20318e-05
1194.0,5.46595e-05
1196.0,5.73519e-05
1198.0,6.01097e-05
1200.0,6.29334e-05
1202.0,6.91141e-05
1204.0,7.55665e-05
1206.0,8.22971e-05
1208.0,8.93124e-05
1210.0,9.66188e-05
1212.0,0.00012619
1214.0,0.000157215
1216.0,0.000189731
1218.0,0.000221626
1220.0,0.000254445
1222.0,0.000321792
1224.0,0.000391065
1226.0,0.00046228
1228.0,0.000535457
1230.0,0.000610611
1232.0,0.000891364
1234.0,0.00117941
1236.0,0.00147479
1238.0,0.00177756
1240.0,0.00208778
1242.0,0.00230267
1244.0,0.00252207
1246.0,0.00274601
1248.0,0.0029745
1250.0,0.00320757
1252.0,0.00330574
1254.0,0.00340521
1256.0,0.00350599
1258.0,0.00360808
1260.0,0.00371149
1262.0,0.00378237
1264.0,0.00385393
1266.0,0.00392616
1268.0,0.00399906
1270.0,0.00407264
1272.0,0.00413388
1274.0,0.00419556
1276.0,0.00425768
1278.0,0.00432023
1280.0,0.00438323
1282.0,0.00443578
1284.0,0.00448861
1286.0,0.00454171
1288.0,0.00459508
1290.0,0.00464871
1292.0,0.00468549
1294.0,0.00472233
1296.0,0.00475921
1298.0,0.00479613
1300.0,0.00483311
1302.0,0.00485635
1304.0,0.00487962
1306.0,0.00490292
1308.0,0.00492625
1310.0,0.0049496
1312.0,0.00498173
1314.0,0.00501392
1316.0,0.00504619
1318.0,0.00507854
1320.0,0.00511095
1322.0,0.00513512
1324.0,0.00515931
1326.0,0.00518354
1328.0,0.0052078
1330.0,0.0052321
1332.0,0.00525066
1334.0,0.00526923
1336.0,0.00528781
1338.0,0.00530638
1340.0,0.00532496
1342.0,0.00537776
1344.0,0.00543073
1346.0,0.00548386
1348.0,0.00553716
1350.0,0.00559063
1352.0,0.00564017
1354.0,0.00568987
1356.0,0.00573972
1358.0,0.00578973
1360.0,0.00583989
1362.0,0.00590171
1364.0,0.00596375
1366.0,0.00602599
1368.0,0.00608844
1370.0,0.0061511
1372.0,0.00619807
1374.0,0.00624517
1376.0,0.0062924
1378.0,0.00633975
1380.0,0.00638723
1382.0,0.00643448
1384.0,0.00648185
1386.0,0.00652934
1388.0,0.00657696
1390.0,0.0066247
1392.0,0.0066617
1394.0,0.00669877
1396.0,0.00673591
1398.0,0.00677311
1400.0,0.00681039
1402.0,0.00684011
1404.0,0.00686986
1406.0,0.00689962
1408.0,0.00692941
1410.0,0.00695923
1412.0,0.00698705
1414.0,0.00701487
1416.0,0.00704271
1418.0,0.00707056
1420.0,0.00709842
1422.0,0.00712799
1424.0,0.00715757
1426.0,0.00718717
1428.0,0.00721679
1430.0,0.00724642
1432.0,0.00727757
1434.0,0.00730874
1436.0,0.00733838
1438.0,0.00736647
1440.0,0.00739454
1442.0,0.00742191
1444.0,0.00744926
1446.0,0.0074766
1448.0,0.00750393
1450.0,0.00753123
1452.0,0.00756169
1454.0,0.00759214
1456.0,0.00762258
1458.0,0.00765302
1460.0,0.00768344
1462.0,0.007716
1464.0,0.00774855
1466.0,0.0077811
1468.0,0.00781363
1470.0,0.00784615
1472.0,0.00786029
1474.0,0.00787437
1476.0,0.00788839
1478.0,0.00790234
1480.0,0.00791624
1482.0,0.00793694
1484.0,0.0079576
1486.0,0.0079782
1488.0,0.00799874
1490.0,0.00801924
1492.0,0.0080412
1494.0,0.00806311
1496.0,0.00808496
1498.0,0.00810675
1500.0,0.00812847
1502.0,0.00814511
1504.0,0.00816168
1506.0,0.00817818
1508.0,0.00819461
1510.0,0.00821097
1512.0,0.00822673
1514.0,0.00824242
1516.0,0.00825804
1518.0,0.00827357
1520.0,0.00828903
1522.0,0.00831697
1524.0,0.00834481
1526.0,0.00837255
1528.0,0.00840019
1530.0,0.00842773
1532.0,0.00844121
1534.0,0.00845461
1536.0,0.00846792
1538.0,0.00848114
1540.0,0.00849427
1542.0,0.00851373
1544.0,0.00853308
1546.0,0.00855234
1548.0,0.0085715
1550.0,0.00859055
1552.0,0.00860303
1554.0,0.00861542
1556.0,0.00862771
1558.0,0.00863991
1560.0,0.00865201
1562.0,0.00867741
1564.0,0.00870268
1566.0,0.00872783
1568.0,0.00875286
1570.0,0.00877776
1572.0,0.00878984
1574.0,0.00880182
1576.0,0.00881372
1578.0,0.00882552
1580.0,0.00883724
1582.0,0.00885549
1584.0,0.00887364
1586.0,0.0088917
1588.0,0.00890967
1590.0,0.00892755
1592.0,0.00895106
1594.0,0.00897447
1596.0,0.0089978
1598.0,0.00902104
1600.0,0.00904419
1602.0,0.0090446
1604.0,0.0090449
1606.0,0.0090451
1608.0,0.00904519
1610.0,0.00905256
1612.0,0.00906479
1614.0,0.00907693
1616.0,0.00908897
1618.0,0.00910091
1620.0,0.00911275
1622.0,0.00913715
1624.0,0.00916143
1626.0,0.0091856
1628.0,0.00920965
1630.0,0.00923358
1632.0,0.00924728
1634.0,0.00926092
1636.0,0.00927451
1638.0,0.00928802
1640.0,0.00930148
1642.0,0.00931646
1644.0,0.00933139
1646.0,0.00934628
1648.0,0.00936112
1650.0,0.00937592
1652.0,0.0094029
1654.0,0.00942982
1656.0,0.00945666
1658.0,0.00948343
1660.0,0.00951013
1662.0,0.00952836
1664.0,0.00954655
1666.0,0.0095647
1668.0,0.00958281
1670.0,0.00960088
1672.0,0.00962363
1674.0,0.00964634
1676.0,0.00966903
1678.0,0.00969169
1680.0,0.00971431
1682.0,0.00973984
1684.0,0.00976535
1686.0,0.00979083
1688.0,0.00981629
1690.0,0.00984173
1692.0,0.00986089
1694.0,0.00988004
1696.0,0.00989916
1698.0,0.00991826
1700.0,0.00993733
1702.0,0.00994071
1704.0,0.00994398
1706.0,0.00994713
1708.0,0.00995017
1710.0,0.00995308
1712.0,0.00995753
1714.0,0.00996186
1716.0,0.00996606
1718.0,0.00997015
1720.0,0.0099741
1722.0,0.00997896
1724.0,0.0099837
1726.0,0.0099883
1728.0,0.00999278
1730.0,0.00999712
1732.0,0.0100018
1734.0,0.0100063
1736.0,0.0100106
1738.0,0.0100149
1740.0,0.010019
1742.0,0.0100229
1744.0,0.0100266
1746.0,0.0100302
1748.0,0.0100336
1750.0,0.010037
1752.0,0.0100368
1754.0,0.0100365
1756.0,0.0100361
1758.0,0.0100355
1760.0,0.0100348
1762.0,0.0100335
1764.0,0.0100321
1766.0,0.0100306
1768.0,0.0100289
1770.0,0.010027
1772.0,0.0100246
1774.0,0.0100221
1776.0,0.0100193
1778.0,0.0100165
1780.0,0.0100134
1782.0,0.0100099
1784.0,0.0100062
1786.0,0.0100023
1788.0,0.00999827
1790.0,0.00999409
1792.0,0.00998936
1794.0,0.00998447
1796.0,0.00997942
1798.0,0.00997421
1800.0,0.00996884
1802.0,0.00999893
1804.0,0.0100291
1806.0,0.0100593
1808.0,0.0100895
1810.0,0.0101198
1812.0,0.0101497
1814.0,0.0101797
1816.0,0.0102097
1818.0,0.0102398
1820.0,0.0102699
1822.0,0.0102996
1824.0,0.0103293
1826.0,0.010359
1828.0,0.0103889
1830.0,0.0104187
1832.0,0.0104481
1834.0,0.0104774
1836.0,0.0105069
1838.0,0.0105363
1840.0,0.0105658
1842.0,0.0105947
1844.0,0.0106237
1846.0,0.0106526
1848.0,0.0106816
1850.0,0.0107107
1852.0,0.0107382
1854.0,0.0107656
1856.0,0.0107932
1858.0,0.0108207
1860.0,0.0108483
1862.0,0.010875
1864.0,0.0109018
1866.0,0.0109285
1868.0,0.0109553
1870.0,0.0109822
1872.0,0.0110085
1874.0,0.0110348
1876.0,0.0110611
1878.0,0.0110875
1880.0,0.0111139
1882.0,0.0111401
1884.0,0.0111664
1886.0,0.0111926
1888.0,0.0112189
1890.0,0.0112452
1892.0,0.0112717
1894.0,0.0112982
1896.0,0.0113247
1898.0,0.0113512
1900.0,0.0113778
1902.0,0.011437
1904.0,0.0114964
1906.0,0.0115559
1908.0,0.0116156
1910.0,0.0116755
1912.0,0.0117352
1914.0,0.0117951
1916.0,0.0118551
1918.0,0.0119154
1920.0,0.0119757
1922.0,0.0120362
1924.0,0.0120969
1926.0,0.0121577
1928.0,0.0122187
1930.0,0.0122799
1932.0,0.0123414
1934.0,0.0124032
1936.0,0.0124651
1938.0,0.0125272
1940.0,0.0125894
1942.0,0.0126524
1944.0,0.0127155
1946.0,0.0127788
1948.0,0.0128423
1950.0,0.012906
1952.0,0.0129703
1954.0,0.0130349
1956.0,0.0130996
1958.0,0.0131645
1960.0,0.0132296
1962.0,0.0132987
1964.0,0.0133716
1966.0,0.0134447
1968.0,0.0135181
1970.0,0.0135918
1972.0,0.013666
1974.0,0.0137406
1976.0,0.0138153
1978.0,0.0138904
1980.0,0.0139657
1982.0,0.0140417
1984.0,0.0141181
1986.0,0.0141946
1988.0,0.0142715
1990.0,0.0143486
1992.0,0.0144266
1994.0,0.014505
1996.0,0.0145835
1998.0,0.0146624
2000.0,0.0147415
2002.0,0.0148184
2004.0,0.0148955
2006.0,0.0149728
2008.0,0.0150504
2010.0,0.0151283
2012.0,0.0152072
2014.0,0.0152864
2016.0,0.0153658
2018.0,0.0154455
2020.0,0.0155254
2022.0,0.015606
2024.0,0.0156868
2026.0,0.0157679
2028.0,0.0158493
2030.0,0.0159309
2032.0,0.0160128
2034.0,0.0160949
2036.0,0.0161773
2038.0,0.0162599
2040.0,0.0163428
2042.0,0.0164255
2044.0,0.0165084
2046.0,0.0165916
2048.0,0.0166751
2050.0,0.0167588
2052.0,0.0168445
2054.0,0.0169304
2056.0,0.0170166
2058.0,0.0171031
2060.0,0.0171899
2062.0,0.0172768
2064.0,0.0173641
2066.0,0.0174516
2068.0,0.0175393
2070.0,0.0176274
2072.0,0.0177152
2074.0,0.0178033
2076.0,0.0178917
2078.0,0.0179803
2080.0,0.0180692
2082.0,0.0181576
2084.0,0.0182462
2086.0,0.0183351
2088.0,0.0184242
2090.0,0.0185136
2092.0,0.018602
2094.0,0.0186907
2096.0,0.0187797
2098.0,0.0188689
2100.0,0.0189583
2102.0,0.0190499
2104.0,0.0191418
2106.0,0.019234
2108.0,0.0193264
2110.0,0.019419
2112.0,0.0195109
2114.0,0.019603
2116.0,0.0196953
2118.0,0.0197879
2120.0,0.0198808
2122.0,0.0199727
2124.0,0.0200648
2126.0,0.0201571
2128.0,0.0202498
2130.0,0.0203426
2132.0,0.0204343
2134.0,0.0205262
2136.0,0.0206184
2138.0,0.0207108
2140.0,0.0208035
2142.0,0.0208947
2144.0,0.0209862
2146.0,0.021078
2148.0,0.02117
2150.0,0.0212622
2152.0,0.0213564
2154.0,0.0214509
2156.0,0.0215456
2158.0,0.0216405
2160.0,0.0217357
2162.0,0.0218288
2164.0,0.0219221
2166.0,0.0220156
2168.0,0.0221093
2170.0,0.0222033
2172.0,0.0222959
2174.0,0.0223888
2176.0,0.0224819
2178.0,0.0225751
2180.0,0.0226686
2182.0,0.0227616
2184.0,0.0228548
2186.0,0.0229482
2188.0,0.0230418
2190.0,0.0231356
2192.0,0.0232298
2194.0,0.0233242
2196.0,0.0234188
2198.0,0.0235136
2200.0,0.0236086
2202.0,0.0236956
2204.0,0.0237827
2206.0,0.02387
2208.0,0.0239574
2210.0,0.024045
2212.0,0.0241326
2214.0,0.0242203
2216.0,0.0243081
2218.0,0.0243961
2220.0,0.0244843
2222.0,0.0245718
2224.0,0.0246594
2226.0,0.0247471
2228.0,0.0248351
2230.0,0.0249231
2232.0,0.0250098
2234.0,0.0250966
2236.0,0.0251836
2238.0,0.0252708
2240.0,0.025358
2242.0,0.0254432
2244.0,0.0255286
2246.0,0.0256141
2248.0,0.0256997
2250.0,0.0257855
2252.0,0.0258745
2254.0,0.0259637
2256.0,0.026053
2258.0,0.0261425
2260.0,0.0262321
2262.0,0.0263199
2264.0,0.0264078
2266.0,0.0264959
2268.0,0.0265841
2270.0,0.0266725
2272.0,0.0267591
2274.0,0.0268458
2276.0,0.0269326
2278.0,0.0270196
2280.0,0.0271067
2282.0,0.0271921
2284.0,0.0272776
2286.0,0.0273633
2288.0,0.027449
2290.0,0.0275349
2292.0,0.0276192
2294.0,0.0277036
2296.0,0.0277881
2298.0,0.0278727
2300.0,0.0279575
2302.0,0.0280469
2304.0,0.0281365
2306.0,0.0282262
2308.0,0.028316
2310.0,0.0284059
2312.0,0.0284944
2314.0,0.0285829
2316.0,0.0286716
2318.0,0.0287604
2320.0,0.0288492
2322.0,0.0289366
2324.0,0.029024
2326.0,0.0291115
2328.0,0.0291991
2330.0,0.0292868
2332.0,0.0293729
2334.0,0.0294591
2336.0,0.0295454
2338.0,0.0296318
2340.0,0.0297182
2342.0,0.029803
2344.0,0.0298879
2346.0,0.0299728
2348.0,0.0300578
2350.0,0.0301429
2352.0,0.0302321
2354.0,0.0303214
2356.0,0.0304107
2358.0,0.0305001
2360.0,0.0305895
2362.0,0.0306768
2364.0,0.0307641
2366.0,0.0308515
2368.0,0.030939
2370.0,0.0310264
2372.0,0.0311128
2374.0,0.0311993
2376.0,0.0312858
2378.0,0.0313723
2380.0,0.0314588
2382.0,0.0315455
2384.0,0.0316322
2386.0,0.0317189
2388.0,0.0318057
2390.0,0.0318925
2392.0,0.0319806
2394.0,0.0320688
2396.0,0.032157
2398.0,0.0322452
2400.0,0.0323335
2402.0,0.0324041
2404.0,0.0324747
2406.0,0.0325454
2408.0,0.0326161
2410.0,0.0326869
2412.0,0.0327595
2414.0,0.0328322
2416.0,0.0329049
2418.0,0.0329777
2420.0,0.0330505
2422.0,0.0331235
2424.0,0.0331967
2426.0,0.0332698
2428.0,0.033343
2430.0,0.0334163
2432.0,0.0334881
2434.0,0.0335599
2436.0,0.0336318
2438.0,0.0337037
2440.0,0.0337757
2442.0,0.0338445
2444.0,0.0339134
2446.0,0.0339823
2448.0,0.0340512
2450.0,0.0341202
2452.0,0.034189
2454.0,0.0342578
2456.0,0.0343267
2458.0,0.0343955
2460.0,0.0344644
2462.0,0.0345304
2464.0,0.0345964
2466.0,0.0346625
2468.0,0.0347285
2470.0,0.0347945
2472.0,0.0348592
2474.0,0.034924
2476.0,0.0349887
2478.0,0.0350535
2480.0,0.0351182
2482.0,0.0351833
2484.0,0.0352483
2486.0,0.0353134
2488.0,0.0353785
2490.0,0.0354435
2492.0,0.0355106
2494.0,0.0355776
2496.0,0.0356447
2498.0,0.0357117
2500.0,0.0357788
2502.0,0.0358518
2504.0,0.0359248
2506.0,0.0359979
2508.0,0.036071
2510.0,0.036144
2512.0,0.0362186
2514.0,0.0362933
2516.0,0.0363679
2518.0,0.0364426
2520.0,0.0365173
2522.0,0.0365929
2524.0,0.0366685
2526.0,0.0367441
2528.0,0.0368197
2530.0,0.0368954
2532.0,0.0369713
2534.0,0.0370471
2536.0,0.0371231
2538.0,0.037199
2540.0,0.037275
2542.0,0.0373504
2544.0,0.0374259
2546.0,0.0375013
2548.0,0.0375769
2550.0,0.0376524
2552.0,0.0377301
2554.0,0.0378079
2556.0,0.0378857
2558.0,0.0379635
2560.0,0.0380414
2562.0,0.0381191
2564.0,0.0381969
2566.0,0.0382747
2568.0,0.0383525
2570.0,0.0384303
2572.0,0.038508
2574.0,0.0385858
2576.0,0.0386636
2578.0,0.0387414
2580.0,0.0388192
2582.0,0.0388969
2584.0,0.0389747
2586.0,0.0390525
2588.0,0.0391303
2590.0,0.0392081
2592.0,0.0392858
2594.0,0.0393636
2596.0,0.0394414
2598.0,0.0395192
2600.0,0.039597
2602.0,0.0396723
2604.0,0.0397477
2606.0,0.0398231
2608.0,0.0398985
2610.0,0.0399739
2612.0,0.0400487
2614.0,0.0401236
2616.0,0.0401984
2618.0,0.0402733
2620.0,0.0403482
2622.0,0.0404233
2624.0,0.0404984
2626.0,0.0405735
2628.0,0.0406487
2630.0,0.0407238
2632.0,0.0407999
2634.0,0.0408761
2636.0,0.0409522
2638.0,0.0410284
2640.0,0.0411046
2642.0,0.0411826
2644.0,0.0412606
2646.0,0.0413386
2648.0,0.0414167
2650.0,0.0414948
2652.0,0.0415761
2654.0,0.0416574
2656.0,0.0417387
2658.0,0.0418201
2660.0,0.0419015
2662.0,0.0419853
2664.0,0.0420691
2666.0,0.042153
2668.0,0.0422369
2670.0,0.0423208
2672.0,0.0424055
2674.0,0.0424902
2676.0,0.042575
2678.0,0.0426598
2680.0,0.0427447
2682.0,0.0428286
2684.0,0.0429126
2686.0,0.0429966
2688.0,0.0430807
2690.0,0.0431648
2692.0,0.0432463
2694.0,0.0433277
2696.0,0.0434092
2698.0,0.0434908
2700.0,0.0435724
2702.0,0.0436495
2704.0,0.0437267
2706.0,0.0438039
2708.0,0.0438811
2710.0,0.0439583
2712.0,0.0440328
2714.0,0.0441072
2716.0,0.0441818
2718.0,0.0442563
2720.0,0.0443308
2722.0,0.0444043
2724.0,0.0444777
2726.0,0.0445511
2728.0,0.0446246
2730.0,0.0446981
2732.0,0.0447722
2734.0,0.0448463
2736.0,0.0449204
2738.0,0.0449945
2740.0,0.0450686
2742.0,0.0451451
2744.0,0.0452216
2746.0,0.0452981
2748.0,0.0453747
2750.0,0.0454513
2752.0,0.0455293
2754.0,0.0456073
2756.0,0.0456854
2758.0,0.0457635
2760.0,0.0458417
2762.0,0.0459217
2764.0,0.0460017
2766.0,0.0460818
2768.0,0.0461619
2770.0,0.0462421
2772.0,0.0463231
2774.0,0.0464042
2776.0,0.0464853
2778.0,0.0465665
2780.0,0.0466477
2782.0,0.0467288
2784.0,0.04681
2786.0,0.0468911
2788.0,0.0469724
2790.0,0.0470537
2792.0,0.0471339
2794.0,0.0472142
2796.0,0.0472945
2798.0,0.0473748
2800.0,0.0474552
2802.0,0.047544
2804.0,0.0476328
2806.0,0.0477216
2808.0,0.0478105
2810.0,0.0478994
2812.0,0.0479877
2814.0,0.0480759
2816.0,0.0481642
2818.0,0.0482526
2820.0,0.0483409
2822.0,0.048429
2824.0,0.048517
2826.0,0.0486051
2828.0,0.0486932
2830.0,0.0487814
2832.0,0.0488696
2834.0,0.0489579
2836.0,0.0490461
2838.0,0.0491345
2840.0,0.0492228
2842.0,0.0493116
2844.0,0.0494004
2846.0,0.0494892
2848.0,0.0495781
2850.0,0.049667
2852.0,0.0497559
2854.0,0.0498449
2856.0,0.0499339
2858.0,0.0500229
2860.0,0.050112
2862.0,0.050202
2864.0,0.0502921
2866.0,0.0503822
2868.0,0.0504724
2870.0,0.0505626
2872.0,0.0506526
2874.0,0.0507425
2876.0,0.0508325
2878.0,0.0509226
2880.0,0.0510127
2882.0,0.0511012
2884.0,0.0511897
2886.0,0.0512783
2888.0,0.0513669
2890.0,0.0514556
2892.0,0.0515414
2894.0,0.0516272
2896.0,0.051713
2898.0,0.0517989
2900.0,0.0518848
2902.0,0.0519637
2904.0,0.0520427
2906.0,0.0521217
2908.0,0.0522006
2910.0,0.0522796
2912.0,0.0523546
2914.0,0.0524295
2916.0,0.0525045
2918.0,0.0525794
2920.0,0.0526544
2922.0,0.0527282
2924.0,0.052802
2926.0,0.0528757
2928.0,0.0529495
2930.0,0.0530232
2932.0,0.0530988
2934.0,0.0531743
2936.0,0.0532498
2938.0,0.0533254
2940.0,0.0534009
2942.0,0.0534812
2944.0,0.0535615
2946.0,0.0536419
2948.0,0.0537223
2950.0,0.0538026
2952.0,0.0538863
2954.0,0.0539701
2956.0,0.0540538
2958.0,0.0541376
2960.0,0.0542214
2962.0,0.0543099
2964.0,0.0543985
2966.0,0.0544871
2968.0,0.0545757
2970.0,0.0546644
2972.0,0.0547551
2974.0,0.0548458
2976.0,0.0549365
2978.0,0.0550273
2980.0,0.0551182
2982.0,0.0552084
2984.0,0.0552986
2986.0,0.0553888
2988.0,0.0554792
2990.0,0.0555695
2992.0,0.0556565
2994.0,0.0557435
2996.0,0.0558305
2998.0,0.0559175
3000.0,0.0560046
3002.0,0.0560492
3004.0,0.0560937
3006.0,0.0561383
3008.0,0.0561829
3010.0,0.0562275
3012.0,0.0562702
3014.0,0.056313
3016.0,0.0563558
3018.0,0.0563985
3020.0,0.0564413
3022.0,0.0564825
3024.0,0.0565237
3026.0,0.0565649
3028.0,0.0566061
3030.0,0.0566473
3032.0,0.0566873
3034.0,0.0567272
3036.0,0.0567672
3038.0,0.0568071
3040.0,0.0568471
3042.0,0.0568861
3044.0,0.0569251
3046.0,0.0569641
3048.0,0.0570031
3050.0,0.0570421
3052.0,0.0570774
3054.0,0.0571127
3056.0,0.057148
3058.0,0.0571833
3060.0,0.0572186
3062.0,0.0572517
3064.0,0.0572848
3066.0,0.0573179
3068.0,0.057351
3070.0,0.0573841
3072.0,0.0574165
3074.0,0.057449
3076.0,0.0574815
3078.0,0.0575139
3080.0,0.0575464
3082.0,0.0575799
3084.0,0.0576134
3086.0,0.0576468
3088.0,0.0576803
3090.0,0.0577138
3092.0,0.0577499
3094.0,0.0577861
3096.0,0.0578222
3098.0,0.0578584
3100.0,0.0578946
3102.0,0.0579324
3104.0,0.0579701
3106.0,0.0580079
3108.0,0.0580458
3110.0,0.0580836
3112.0,0.0581236
3114.0,0.0581637
3116.0,0.0582038
3118.0,0.0582439
3120.0,0.058284
3122.0,0.0583255
3124.0,0.0583669
3126.0,0.0584084
3128.0,0.0584498
3130.0,0.0584913
3132.0,0.0585332
3134.0,0.0585751
3136.0,0.058617
3138.0,0.0586589
3140.0,0.0587008
3142.0,0.0587422
3144.0,0.0587837
3146.0,0.0588251
3148.0,0.0588666
3150.0,0.058908
3152.0,0.0589452
3154.0,0.0589823
3156.0,0.0590195
3158.0,0.0590567
3160.0,0.0590939
3162.0,0.0591312
3164.0,0.0591686
3166.0,0.0592059
3168.0,0.0592433
3170.0,0.0592807
3172.0,0.0593181
3174.0,0.0593555
3176.0,0.0593929
3178.0,0.0594304
3180.0,0.0594678
3182.0,0.0595052
3184.0,0.0595426
3186.0,0.05958
3188.0,0.0596174
3190.0,0.0596548
3192.0,0.059692
3194.0,0.0597292
3196.0,0.0597664
3198.0,0.0598037
3200.0,0.0598409
3202.0,0.0598679
3204.0,0.0598948
3206.0,0.0599218
3208.0,0.0599487
3210.0,0.0599757
3212.0,0.0600025
3214.0,0.0600294
3216.0,0.0600563
3218.0,0.0600832
3220.0,0.06011
3222.0,0.0601368
3224.0,0.0601636
3226.0,0.0601904
3228.0,0.0602172
3230.0,0.060244
3232.0,0.0602707
3234.0,0.0602974
3236.0,0.060324
3238.0,0.0603507
3240.0,0.0603774
3242.0,0.060404
3244.0,0.0604305
3246.0,0.0604571
3248.0,0.0604837
3250.0,0.0605103
3252.0,0.0605327
3254.0,0.0605552
3256.0,0.0605777
3258.0,0.0606001
3260.0,0.0606226
3262.0,0.0606446
3264.0,0.0606666
3266.0,0.0606887
3268.0,0.0607107
3270.0,0.0607327
3272.0,0.0607548
3274.0,0.0607769
3276.0,0.060799
3278.0,0.0608211
3280.0,0.0608432
3282.0,0.0608658
3284.0,0.0608884
3286.0,0.0609111
3288.0,0.0609337
3290.0,0.0609564
3292.0,0.0609801
3294.0,0.0610038
3296.0,0.0610275
3298.0,0.0610512
3300.0,0.0610749
3302.0,0.0610988
3304.0,0.0611227
3306.0,0.0611466
3308.0,0.0611705
3310.0,0.0611945
3312.0,0.06122
3314.0,0.0612455
3316.0,0.0612711
3318.0,0.0612966
3320.0,0.0613222
3322.0,0.0613481
3324.0,0.0613739
3326.0,0.0613998
3328.0,0.0614257
3330.0,0.0614515
3332.0,0.0614764
3334.0,0.0615013
3336.0,0.0615262
3338.0,0.0615511
3340.0,0.061576
3342.0,0.0615986
3344.0,0.0616212
3346.0,0.0616438
3348.0,0.0616664
3350.0,0.061689
3352.0,0.0617092
3354.0,0.0617294
3356.0,0.0617497
3358.0,0.0617699
3360.0,0.0617901
3362.0,0.0618072
3364.0,0.0618244
3366.0,0.0618416
3368.0,0.0618588
3370.0,0.0618759
3372.0,0.0618926
3374.0,0.0619092
3376.0,0.0619258
3378.0,0.0619424
3380.0,0.061959
3382.0,0.0619775
3384.0,0.0619959
3386.0,0.0620144
3388.0,0.0620329
3390.0,0.0620514
3392.0,0.0620742
3394.0,0.062097
3396.0,0.0621198
3398.0,0.0621426
3400.0,0.0621654
3402.0,0.062174
3404.0,0.0621826
3406.0,0.0621912
3408.0,0.0621997
3410.0,0.0622083
3412.0,0.0622215
3414.0,0.0622347
3416.0,0.0622479
3418.0,0.0622612
3420.0,0.0622744
3422.0,0.0622893
3424.0,0.0623043
3426.0,0.0623193
3428.0,0.0623343
3430.0,0.0623493
3432.0,0.0623631
3434.0,0.0623769
3436.0,0.0623907
3438.0,0.0624045
3440.0,0.0624183
3442.0,0.062428
3444.0,0.0624376
3446.0,0.0624473
3448.0,0.062457
3450.0,0.0624667
3452.0,0.0624695
3454.0,0.0624723
3456.0,0.0624751
3458.0,0.0624779
3460.0,0.0624807
3462.0,0.0624793
3464.0,0.062478
3466.0,0.0624767
3468.0,0.0624754
3470.0,0.0624741
3472.0,0.0624715
3474.0,0.062469
3476.0,0.0624665
3478.0,0.0624639
