Wavelength,Transmission
1110.0,8.20812e-07
1120.0,1.65282e-06
1130.0,2.44981e-06
1140.0,3.21083e-06
1150.0,3.93517e-06
1152.0,4.64806e-06
1154.0,5.42572e-06
1156.0,6.27066e-06
1158.0,7.18544e-06
1160.0,8.17259e-06
1162.0,9.20554e-06
1164.0,1.02027e-05
1166.0,1.1255e-05
1168.0,1.23637e-05
1170.0,1.353e-05
1172.0,1.64747e-05
1174.0,1.97673e-05
1176.0,2.34283e-05
1178.0,2.74786e-05
1180.0,3.19399e-05
1182.0,3.65115e-05
1184.0,4.14761e-05
1186.0,4.68513e-05
1188.0,5.26554e-05
1190.0,5.89066e-05
1192.0,6.45425e-05
1194.0,7.05155e-05
1196.0,7.68361e-05
1198.0,8.35148e-05
1200.0,9.05623e-05
1202.0,9.41586e-05
1204.0,9.78577e-05
1206.0,0.000101661
1208.0,0.000105572
1210.0,0.00010959
1212.0,0.00011219
1214.0,0.000114822
1216.0,0.000117486
1218.0,0.00011903
1220.0,0.000120577
1222.0,0.000123082
1224.0,0.000125619
1226.0,0.000128188
1228.0,0.000130789
1230.0,0.000133422
1232.0,0.000136612
1234.0,0.000139848
1236.0,0.00014313
1238.0,0.000146459
1240.0,0.000149835
1242.0,0.00015348
1244.0,0.000157174
1246.0,0.000160919
1248.0,0.000164714
1250.0,0.000168559
1252.0,0.000172536
1254.0,0.000176561
1256.0,0.000180633
1258.0,0.000184752
1260.0,0.000188918
1262.0,0.000193387
1264.0,0.000197904
1266.0,0.000202469
1268.0,0.000207082
1270.0,0.000211743
1272.0,0.000216541
1274.0,0.000221384
1276.0,0.000226273
1278.0,0.000231208
1280.0,0.000236189
1282.0,0.000241288
1284.0,0.000246433
1286.0,0.000251621
1288.0,0.000256854
1290.0,0.00026213
1292.0,0.000268169
1294.0,0.000274258
1296.0,0.000280399
1298.0,0.000286591
1300.0,0.000292833
1302.0,0.000299266
1304.0,0.000305727
1306.0,0.000312214
1308.0,0.000318729
1310.0,0.00032527
1312.0,0.000332717
1314.0,0.000340195
1316.0,0.000347705
1318.0,0.000355247
1320.0,0.000362819
1322.0,0.000371128
1324.0,0.000379473
1326.0,0.000387852
1328.0,0.000396267
1330.0,0.000404717
1332.0,0.000414051
1334.0,0.000423425
1336.0,0.000432838
1338.0,0.00044229
1340.0,0.000451781
1342.0,0.000461421
1344.0,0.0004711
1346.0,0.000480818
1348.0,0.000490575
1350.0,0.000500372
1352.0,0.000509715
1354.0,0.000519097
1356.0,0.000528518
1358.0,0.000537979
1360.0,0.000547478
1362.0,0.000557212
1364.0,0.000566985
1366.0,0.000576798
1368.0,0.000586651
1370.0,0.000596542
1372.0,0.000607817
1374.0,0.000619137
1376.0,0.000630502
1378.0,0.000641913
1380.0,0.000653369
1382.0,0.000665893
1384.0,0.000678466
1386.0,0.00069109
1388.0,0.000703762
1390.0,0.000716484
1392.0,0.000731232
1394.0,0.000746038
1396.0,0.000760901
1398.0,0.000775821
1400.0,0.000790798
1402.0,0.000809391
1404.0,0.000828066
1406.0,0.000846824
1408.0,0.000865665
1410.0,0.000884589
1412.0,0.000905327
1414.0,0.000926154
1416.0,0.00094707
1418.0,0.000968074
1420.0,0.000989168
1422.0,0.00100937
1424.0,0.00102964
1426.0,0.00105
1428.0,0.00107044
1430.0,0.00109096
1432.0,0.0011107
1434.0,0.00113052
1436.0,0.00115016
1438.0,0.00116962
1440.0,0.00118913
1442.0,0.00120962
1444.0,0.00123015
1446.0,0.00125074
1448.0,0.00127139
1450.0,0.00129208
1452.0,0.00131458
1454.0,0.00133712
1456.0,0.00135971
1458.0,0.00138235
1460.0,0.00140504
1462.0,0.00142874
1464.0,0.00145248
1466.0,0.00147627
1468.0,0.0015001
1470.0,0.00152397
1472.0,0.00154751
1474.0,0.0015711
1476.0,0.00159471
1478.0,0.00161836
1480.0,0.00164205
1482.0,0.00166528
1484.0,0.00168853
1486.0,0.00171181
1488.0,0.00173511
1490.0,0.00175844
1492.0,0.00178312
1494.0,0.00180781
1496.0,0.00183253
1498.0,0.00185726
1500.0,0.00188201
1502.0,0.00190868
1504.0,0.00193531
1506.0,0.00196191
1508.0,0.00198847
1510.0,0.002015
1512.0,0.00204209
1514.0,0.00206914
1516.0,0.00209614
1518.0,0.0021231
1520.0,0.00215001
1522.0,0.00217131
1524.0,0.00219257
1526.0,0.00221379
1528.0,0.00223496
1530.0,0.00225608
1532.0,0.00227174
1534.0,0.00228735
1536.0,0.00230293
1538.0,0.00231846
1540.0,0.00233395
1542.0,0.00234987
1544.0,0.00236574
1546.0,0.00238157
1548.0,0.00239736
1550.0,0.0024131
1552.0,0.00243205
1554.0,0.00245094
1556.0,0.00246977
1558.0,0.00248854
1560.0,0.00250724
1562.0,0.00252681
1564.0,0.00254631
1566.0,0.00256576
1568.0,0.00258514
1570.0,0.00260445
1572.0,0.00262079
1574.0,0.00263707
1576.0,0.00265329
1578.0,0.00266946
1580.0,0.00268558
1582.0,0.00269893
1584.0,0.00271224
1586.0,0.00272551
1588.0,0.00273873
1590.0,0.00275191
1592.0,0.00276581
1594.0,0.00277966
1596.0,0.00279347
1598.0,0.00280725
1600.0,0.00282099
1602.0,0.00283186
1604.0,0.00284264
1606.0,0.00285332
1608.0,0.00286391
1610.0,0.00287675
1612.0,0.00289022
1614.0,0.00290363
1616.0,0.00291697
1618.0,0.00293024
1620.0,0.00294344
1622.0,0.0029526
1624.0,0.00296171
1626.0,0.00297078
1628.0,0.00297981
1630.0,0.0029888
1632.0,0.00299391
1634.0,0.00299899
1636.0,0.00300405
1638.0,0.0030091
1640.0,0.00301412
1642.0,0.00302031
1644.0,0.00302648
1646.0,0.00303264
1648.0,0.00303878
1650.0,0.0030449
1652.0,0.00305397
1654.0,0.00306301
1656.0,0.00307203
1658.0,0.00308103
1660.0,0.00309
1662.0,0.00310067
1664.0,0.00311131
1666.0,0.00312194
1668.0,0.00313254
1670.0,0.00314313
1672.0,0.00315317
1674.0,0.00316319
1676.0,0.00317321
1678.0,0.00318321
1680.0,0.0031932
1682.0,0.00320282
1684.0,0.00321243
1686.0,0.00322204
1688.0,0.00323164
1690.0,0.00324123
1692.0,0.00325053
1694.0,0.00325982
1696.0,0.0032691
1698.0,0.00327838
1700.0,0.00328766
1702.0,0.00329193
1704.0,0.00329616
1706.0,0.00330034
1708.0,0.00330448
1710.0,0.00330857
1712.0,0.00331195
1714.0,0.00331529
1716.0,0.00331858
1718.0,0.00332182
1720.0,0.00332502
1722.0,0.0033266
1724.0,0.00332813
1726.0,0.00332962
1728.0,0.00333106
1730.0,0.00333246
1732.0,0.00333234
1734.0,0.00333218
1736.0,0.00333198
1738.0,0.00333173
1740.0,0.00333144
1742.0,0.00332891
1744.0,0.00332634
1746.0,0.00332373
1748.0,0.00332109
1750.0,0.0033184
1752.0,0.00331069
1754.0,0.00330296
1756.0,0.00329519
1758.0,0.00328738
1760.0,0.00327954
1762.0,0.00327015
1764.0,0.00326072
1766.0,0.00325126
1768.0,0.00324177
1770.0,0.00323225
1772.0,0.0032265
1774.0,0.0032207
1776.0,0.00321487
1778.0,0.003209
1780.0,0.00320309
1782.0,0.00320101
1784.0,0.00319888
1786.0,0.00319671
1788.0,0.00319449
1790.0,0.00319222
1792.0,0.00318791
1794.0,0.00318356
1796.0,0.00317916
1798.0,0.00317472
1800.0,0.00317024
1802.0,0.0031719
1804.0,0.00317354
1806.0,0.00317515
1808.0,0.00317674
1810.0,0.00317832
1812.0,0.00317728
1814.0,0.0031762
1816.0,0.00317509
1818.0,0.00317395
1820.0,0.00317277
1822.0,0.00317145
1824.0,0.00317009
1826.0,0.0031687
1828.0,0.00316727
1830.0,0.00316581
1832.0,0.00316386
1834.0,0.00316188
1836.0,0.00315985
1838.0,0.00315779
1840.0,0.00315569
1842.0,0.00315264
1844.0,0.00314956
1846.0,0.00314643
1848.0,0.00314326
1850.0,0.00314004
1852.0,0.00313552
1854.0,0.00313095
1856.0,0.00312634
1858.0,0.00312167
1860.0,0.00311696
1862.0,0.00311125
1864.0,0.00310549
1866.0,0.00309967
1868.0,0.00309381
1870.0,0.00308788
1872.0,0.00308102
1874.0,0.00307409
1876.0,0.00306711
1878.0,0.00306006
1880.0,0.00305296
1882.0,0.00304477
1884.0,0.00303651
1886.0,0.00302819
1888.0,0.00301981
1890.0,0.00301136
1892.0,0.00300255
1894.0,0.00299367
1896.0,0.00298472
1898.0,0.00297571
1900.0,0.00296663
1902.0,0.00296615
1904.0,0.00296554
1906.0,0.00296482
1908.0,0.00296398
1910.0,0.00296302
1912.0,0.00296167
1914.0,0.0029602
1916.0,0.0029586
1918.0,0.00295688
1920.0,0.00295503
1922.0,0.00295231
1924.0,0.00294946
1926.0,0.00294647
1928.0,0.00294334
1930.0,0.00294007
1932.0,0.00293598
1934.0,0.00293173
1936.0,0.00292734
1938.0,0.00292281
1940.0,0.00291812
1942.0,0.0029126
1944.0,0.00290692
1946.0,0.00290108
1948.0,0.00289509
1950.0,0.00288894
1952.0,0.00288141
1954.0,0.0028737
1956.0,0.00286583
1958.0,0.00285778
1960.0,0.00284956
1962.0,0.00284154
1964.0,0.0028341
1966.0,0.00282646
1968.0,0.00281864
1970.0,0.00281062
1972.0,0.00280399
1974.0,0.00279718
1976.0,0.00279019
1978.0,0.00278302
1980.0,0.00277567
1982.0,0.00276959
1984.0,0.00276334
1986.0,0.00275693
1988.0,0.00275035
1990.0,0.00274359
1992.0,0.0027371
1994.0,0.00273045
1996.0,0.00272362
1998.0,0.00271663
2000.0,0.00270946
2002.0,0.00270147
2004.0,0.00269331
2006.0,0.00268499
2008.0,0.00267649
2010.0,0.00266783
2012.0,0.00265929
2014.0,0.00265059
2016.0,0.00264171
2018.0,0.00263267
2020.0,0.00262345
2022.0,0.00261459
2024.0,0.00260556
2026.0,0.00259636
2028.0,0.002587
2030.0,0.00257746
2032.0,0.00256838
2034.0,0.00255914
2036.0,0.00254972
2038.0,0.00254015
2040.0,0.0025304
2042.0,0.00252029
2044.0,0.00251001
2046.0,0.00249955
2048.0,0.00248893
2050.0,0.00247813
2052.0,0.00246623
2054.0,0.00245415
2056.0,0.00244188
2058.0,0.00242942
2060.0,0.00241676
2062.0,0.00240395
2064.0,0.00239095
2066.0,0.00237775
2068.0,0.00236436
2070.0,0.00235078
2072.0,0.00233942
2074.0,0.00232789
2076.0,0.00231619
2078.0,0.00230432
2080.0,0.00229227
2082.0,0.00228245
2084.0,0.00227248
2086.0,0.00226235
2088.0,0.00225207
2090.0,0.00224164
2092.0,0.00223146
2094.0,0.00222112
2096.0,0.00221064
2098.0,0.0022
2100.0,0.00218921
2102.0,0.00217783
2104.0,0.00216628
2106.0,0.00215457
2108.0,0.00214268
2110.0,0.00213063
2112.0,0.0021187
2114.0,0.0021066
2116.0,0.00209434
2118.0,0.00208191
2120.0,0.00206932
2122.0,0.00205809
2124.0,0.00204672
2126.0,0.00203519
2128.0,0.0020235
2130.0,0.00201166
2132.0,0.00200112
2134.0,0.00199044
2136.0,0.00197962
2138.0,0.00196865
2140.0,0.00195754
2142.0,0.00194721
2144.0,0.00193675
2146.0,0.00192616
2148.0,0.00191542
2150.0,0.00190455
2152.0,0.00189473
2154.0,0.00188478
2156.0,0.00187469
2158.0,0.00186446
2160.0,0.0018541
2162.0,0.00184442
2164.0,0.00183462
2166.0,0.00182469
2168.0,0.00181462
2170.0,0.00180443
2172.0,0.0017946
2174.0,0.00178465
2176.0,0.00177457
2178.0,0.00176436
2180.0,0.00175402
2182.0,0.00174408
2184.0,0.00173401
2186.0,0.00172382
2188.0,0.00171351
2190.0,0.00170307
2192.0,0.00169334
2194.0,0.00168351
2196.0,0.00167355
2198.0,0.00166348
2200.0,0.00165329
2202.0,0.00164351
2204.0,0.00163364
2206.0,0.00162366
2208.0,0.00161358
2210.0,0.00160341
2212.0,0.00159396
2214.0,0.00158441
2216.0,0.00157477
2218.0,0.00156504
2220.0,0.00155521
2222.0,0.00154566
2224.0,0.00153601
2226.0,0.00152628
2228.0,0.00151645
2230.0,0.00150654
2232.0,0.00149707
2234.0,0.00148751
2236.0,0.00147787
2238.0,0.00146814
2240.0,0.00145832
2242.0,0.00144841
2244.0,0.00143841
2246.0,0.00142832
2248.0,0.00141815
2250.0,0.00140789
2252.0,0.00139654
2254.0,0.00138509
2256.0,0.00137355
2258.0,0.0013619
2260.0,0.00135015
2262.0,0.00134017
2264.0,0.00133009
2266.0,0.00131993
2268.0,0.00130969
2270.0,0.00129936
2272.0,0.00129347
2274.0,0.00128752
2276.0,0.00128152
2278.0,0.00127546
2280.0,0.00126934
2282.0,0.0012649
2284.0,0.00126042
2286.0,0.0012559
2288.0,0.00125132
2290.0,0.00124671
2292.0,0.00124169
2294.0,0.00123662
2296.0,0.0012315
2298.0,0.00122634
2300.0,0.00122113
2302.0,0.00121476
2304.0,0.00120832
2306.0,0.00120183
2308.0,0.00119528
2310.0,0.00118867
2312.0,0.00118167
2314.0,0.00117462
2316.0,0.00116751
2318.0,0.00116033
2320.0,0.0011531
2322.0,0.00114636
2324.0,0.00113956
2326.0,0.00113271
2328.0,0.0011258
2330.0,0.00111883
2332.0,0.00111222
2334.0,0.00110555
2336.0,0.00109882
2338.0,0.00109205
2340.0,0.00108522
2342.0,0.00107888
2344.0,0.00107249
2346.0,0.00106606
2348.0,0.00105957
2350.0,0.00105303
2352.0,0.00104737
2354.0,0.00104165
2356.0,0.00103588
2358.0,0.00103007
2360.0,0.0010242
2362.0,0.00101888
2364.0,0.00101351
2366.0,0.00100809
2368.0,0.00100263
2370.0,0.000997122
2372.0,0.000992066
2374.0,0.000986968
2376.0,0.000981826
2378.0,0.000976642
2380.0,0.000971416
2382.0,0.000966698
2384.0,0.00096194
2386.0,0.000957143
2388.0,0.000952307
2390.0,0.000947431
2392.0,0.000942912
2394.0,0.000938357
2396.0,0.000933764
2398.0,0.000929134
2400.0,0.000924467
2402.0,0.000919554
2404.0,0.000914615
2406.0,0.000909648
2408.0,0.000904655
2410.0,0.000899634
2412.0,0.000894933
2414.0,0.000890206
2416.0,0.000885454
2418.0,0.000880677
2420.0,0.000875875
2422.0,0.000871252
2424.0,0.000866604
2426.0,0.000861932
2428.0,0.000857236
2430.0,0.000852516
2432.0,0.000848026
2434.0,0.000843513
2436.0,0.000838977
2438.0,0.000834417
2440.0,0.000829835
2442.0,0.000825343
2444.0,0.000820829
2446.0,0.000816292
2448.0,0.000811732
2450.0,0.00080715
2452.0,0.000802518
2454.0,0.000797863
2456.0,0.000793182
2458.0,0.000788477
2460.0,0.000783748
2462.0,0.000779189
2464.0,0.000774607
2466.0,0.000770001
2468.0,0.000765371
2470.0,0.000760718
2472.0,0.000756885
2474.0,0.000753032
2476.0,0.000749158
2478.0,0.000745264
2480.0,0.00074135
2482.0,0.000738312
2484.0,0.000735258
2486.0,0.000732186
2488.0,0.000729098
2490.0,0.000725992
2492.0,0.000722845
2494.0,0.000719681
2496.0,0.0007165
2498.0,0.000713302
2500.0,0.000710086
2502.0,0.000706264
2504.0,0.000702421
2506.0,0.000698557
2508.0,0.000694673
2510.0,0.000690768
2512.0,0.000686792
2514.0,0.000682794
2516.0,0.000678776
2518.0,0.000674737
2520.0,0.000670677
2522.0,0.000667353
2524.0,0.000664011
2526.0,0.000660651
2528.0,0.000657272
2530.0,0.000653876
2532.0,0.00065119
2534.0,0.000648489
2536.0,0.000645773
2538.0,0.000643042
2540.0,0.000640295
2542.0,0.00063767
2544.0,0.00063503
2546.0,0.000632375
2548.0,0.000629705
2550.0,0.00062702
2552.0,0.000624233
2554.0,0.00062143
2556.0,0.000618612
2558.0,0.000615777
2560.0,0.000612926
2562.0,0.000610109
2564.0,0.000607276
2566.0,0.000604427
2568.0,0.000601563
2570.0,0.000598683
2572.0,0.000595883
2574.0,0.000593068
2576.0,0.000590237
2578.0,0.000587391
2580.0,0.000584529
2582.0,0.000581708
2584.0,0.000578872
2586.0,0.000576021
2588.0,0.000573154
2590.0,0.000570272
2592.0,0.000567649
2594.0,0.000565013
2596.0,0.000562362
2598.0,0.000559697
2600.0,0.000557017
2602.0,0.000554764
2604.0,0.000552498
2606.0,0.000550221
2608.0,0.000547931
2610.0,0.000545629
2612.0,0.000543585
2614.0,0.000541529
2616.0,0.000539462
2618.0,0.000537384
2620.0,0.000535295
2622.0,0.000533174
2624.0,0.000531042
2626.0,0.000528898
2628.0,0.000526743
2630.0,0.000524577
2632.0,0.000522413
2634.0,0.000520237
2636.0,0.00051805
2638.0,0.000515852
2640.0,0.000513642
2642.0,0.000511513
2644.0,0.000509374
2646.0,0.000507223
2648.0,0.000505062
2650.0,0.000502889
2652.0,0.000500857
2654.0,0.000498815
2656.0,0.000496762
2658.0,0.000494698
2660.0,0.000492624
2662.0,0.000490623
2664.0,0.000488611
2666.0,0.000486588
2668.0,0.000484556
2670.0,0.000482513
2672.0,0.000480407
2674.0,0.000478291
2676.0,0.000476165
2678.0,0.000474028
2680.0,0.00047188
2682.0,0.000469642
2684.0,0.000467393
2686.0,0.000465134
2688.0,0.000462864
2690.0,0.000460583
2692.0,0.000458519
2694.0,0.000456446
2696.0,0.000454363
2698.0,0.00045227
2700.0,0.000450167
2702.0,0.000448499
2704.0,0.000446823
2706.0,0.000445138
2708.0,0.000443445
2710.0,0.000441743
2712.0,0.000440272
2714.0,0.000438793
2716.0,0.000437306
2718.0,0.000435812
2720.0,0.00043431
2722.0,0.000432768
2724.0,0.000431219
2726.0,0.000429663
2728.0,0.000428098
2730.0,0.000426526
2732.0,0.000424961
2734.0,0.000423387
2736.0,0.000421806
2738.0,0.000420218
2740.0,0.000418621
2742.0,0.000417013
2744.0,0.000415396
2746.0,0.000413772
2748.0,0.00041214
2750.0,0.000410501
2752.0,0.000408771
2754.0,0.000407033
2756.0,0.000405288
2758.0,0.000403535
2760.0,0.000401774
2762.0,0.000400019
2764.0,0.000398256
2766.0,0.000396486
2768.0,0.000394707
2770.0,0.000392921
2772.0,0.000391295
2774.0,0.000389662
2776.0,0.000388021
2778.0,0.000386373
2780.0,0.000384717
2782.0,0.00038321
2784.0,0.000381696
2786.0,0.000380176
2788.0,0.000378648
2790.0,0.000377114
2792.0,0.000375659
2794.0,0.000374197
2796.0,0.000372729
2798.0,0.000371255
2800.0,0.000369773
2802.0,0.000368381
2804.0,0.000366982
2806.0,0.000365575
2808.0,0.00036416
2810.0,0.000362738
2812.0,0.000361412
2814.0,0.00036008
2816.0,0.00035874
2818.0,0.000357393
2820.0,0.000356039
2822.0,0.000354967
2824.0,0.000353889
2826.0,0.000352805
2828.0,0.000351715
2830.0,0.000350619
2832.0,0.000349855
2834.0,0.000349087
2836.0,0.000348313
2838.0,0.000347535
2840.0,0.000346752
2842.0,0.000345821
2844.0,0.000344883
2846.0,0.000343941
2848.0,0.000342993
2850.0,0.00034204
2852.0,0.000340541
2854.0,0.000339036
2856.0,0.000337523
2858.0,0.000336003
2860.0,0.000334476
2862.0,0.000332811
2864.0,0.000331138
2866.0,0.000329458
2868.0,0.00032777
2870.0,0.000326074
2872.0,0.000324843
2874.0,0.000323606
2876.0,0.000322363
2878.0,0.000321114
2880.0,0.000319859
2882.0,0.000319046
2884.0,0.000318228
2886.0,0.000317406
2888.0,0.00031658
2890.0,0.000315749
2892.0,0.000314932
2894.0,0.00031411
2896.0,0.000313284
2898.0,0.000312454
2900.0,0.00031162
2902.0,0.000310557
2904.0,0.00030949
2906.0,0.000308418
2908.0,0.000307341
2910.0,0.000306259
2912.0,0.000305149
2914.0,0.000304034
2916.0,0.000302914
2918.0,0.000301789
2920.0,0.000300659
2922.0,0.000299689
2924.0,0.000298714
2926.0,0.000297735
2928.0,0.000296752
2930.0,0.000295763
2932.0,0.000294942
2934.0,0.000294117
2936.0,0.000293287
2938.0,0.000292454
2940.0,0.000291616
2942.0,0.000290725
2944.0,0.000289829
2946.0,0.000288929
2948.0,0.000288025
2950.0,0.000287116
2952.0,0.000285979
2954.0,0.000284837
2956.0,0.000283691
2958.0,0.00028254
2960.0,0.000281384
2962.0,0.000280171
2964.0,0.000278953
2966.0,0.00027773
2968.0,0.000276503
2970.0,0.000275271
2972.0,0.000274194
2974.0,0.000273113
2976.0,0.000272028
2978.0,0.000270939
2980.0,0.000269845
2982.0,0.000268895
2984.0,0.000267942
2986.0,0.000266984
2988.0,0.000266022
2990.0,0.000265057
2992.0,0.000264108
2994.0,0.000263155
2996.0,0.000262199
2998.0,0.000261238
3000.0,0.000260274
3002.0,0.000259037
3004.0,0.000257799
3006.0,0.000256558
3008.0,0.000255315
3010.0,0.00025407
3012.0,0.00025286
3014.0,0.000251648
3016.0,0.000250434
3018.0,0.000249218
3020.0,0.000248
3022.0,0.000247039
3024.0,0.000246077
3026.0,0.000245113
3028.0,0.000244148
3030.0,0.000243181
3032.0,0.000242479
3034.0,0.000241777
3036.0,0.000241073
3038.0,0.000240368
3040.0,0.000239661
3042.0,0.000238956
3044.0,0.00023825
3046.0,0.000237543
3048.0,0.000236834
3050.0,0.000236124
3052.0,0.000235285
3054.0,0.000234444
3056.0,0.000233602
3058.0,0.000232758
3060.0,0.000231913
3062.0,0.000231027
3064.0,0.000230139
3066.0,0.00022925
3068.0,0.000228359
3070.0,0.000227467
3072.0,0.000226525
3074.0,0.000225582
3076.0,0.000224637
3078.0,0.000223691
3080.0,0.000222743
3082.0,0.000221694
3084.0,0.000220644
3086.0,0.000219591
3088.0,0.000218538
3090.0,0.000217482
3092.0,0.000216656
3094.0,0.000215828
3096.0,0.000214999
3098.0,0.000214169
3100.0,0.000213337
3102.0,0.000212812
3104.0,0.000212285
3106.0,0.000211758
3108.0,0.000211229
3110.0,0.0002107
3112.0,0.000210278
3114.0,0.000209855
3116.0,0.000209431
3118.0,0.000209006
3120.0,0.000208581
3122.0,0.000208212
3124.0,0.000207843
3126.0,0.000207473
3128.0,0.000207102
3130.0,0.000206731
3132.0,0.000206366
3134.0,0.000206
3136.0,0.000205633
3138.0,0.000205266
3140.0,0.000204898
3142.0,0.000204485
3144.0,0.000204071
3146.0,0.000203657
3148.0,0.000203242
3150.0,0.000202826
3152.0,0.000202345
3154.0,0.000201864
3156.0,0.000201381
3158.0,0.000200898
3160.0,0.000200414
3162.0,0.000199913
3164.0,0.000199411
3166.0,0.000198907
3168.0,0.000198404
3170.0,0.000197899
3172.0,0.000197387
3174.0,0.000196873
3176.0,0.00019636
3178.0,0.000195845
3180.0,0.000195329
3182.0,0.000194816
3184.0,0.000194302
3186.0,0.000193787
3188.0,0.000193272
3190.0,0.000192755
3192.0,0.000192251
3194.0,0.000191746
3196.0,0.00019124
3198.0,0.000190734
3200.0,0.000190226
3202.0,0.000189681
3204.0,0.000189136
3206.0,0.000188589
3208.0,0.000188043
3210.0,0.000187496
3212.0,0.000186936
3214.0,0.000186376
3216.0,0.000185815
3218.0,0.000185254
3220.0,0.000184693
3222.0,0.000184146
3224.0,0.000183598
3226.0,0.00018305
3228.0,0.000182502
3230.0,0.000181952
3232.0,0.000181445
3234.0,0.000180937
3236.0,0.000180429
3238.0,0.00017992
3240.0,0.000179411
3242.0,0.00017897
3244.0,0.00017853
3246.0,0.000178089
3248.0,0.000177647
3250.0,0.000177205
3252.0,0.000176862
3254.0,0.000176518
3256.0,0.000176174
3258.0,0.00017583
3260.0,0.000175485
3262.0,0.000175232
3264.0,0.000174978
3266.0,0.000174725
3268.0,0.000174471
3270.0,0.000174217
3272.0,0.000173995
3274.0,0.000173772
3276.0,0.000173549
3278.0,0.000173326
3280.0,0.000173102
3282.0,0.00017285
3284.0,0.000172598
3286.0,0.000172345
3288.0,0.000172093
3290.0,0.00017184
3292.0,0.000171497
3294.0,0.000171155
3296.0,0.000170812
3298.0,0.000170468
3300.0,0.000170125
3302.0,0.000169654
3304.0,0.000169182
