Wavelength,Transmission
1592.0,3.72461e-06
1594.0,5.71171e-06
1596.0,7.69547e-06
1598.0,9.67588e-06
1600.0,1.16529e-05
1602.0,1.70238e-05
1604.0,2.23634e-05
1606.0,2.76718e-05
1608.0,3.29491e-05
1610.0,3.82265e-05
1612.0,4.54779e-05
1614.0,5.27021e-05
1616.0,5.98992e-05
1618.0,6.70692e-05
1620.0,7.42121e-05
1622.0,8.2781e-05
1624.0,9.13225e-05
1626.0,9.98365e-05
1628.0,0.000108323
1630.0,0.000116782
1632.0,0.00012614
1634.0,0.000135474
1636.0,0.000144783
1638.0,0.000154069
1640.0,0.00016333
1642.0,0.000175054
1644.0,0.000186756
1646.0,0.000198436
1648.0,0.000210094
1650.0,0.00022173
1652.0,0.000235489
1654.0,0.000249222
1656.0,0.00026293
1658.0,0.000276614
1660.0,0.000290272
1662.0,0.000302907
1664.0,0.000315528
1666.0,0.000328136
1668.0,0.000340729
1670.0,0.000353308
1672.0,0.000361654
1674.0,0.000369996
1676.0,0.000378333
1678.0,0.000386666
1680.0,0.000394995
1682.0,0.00039767
1684.0,0.000400345
1686.0,0.000403019
1688.0,0.000405691
1690.0,0.000408364
1692.0,0.000407281
1694.0,0.000406197
1696.0,0.00040511
1698.0,0.000404022
1700.0,0.000402931
1702.0,0.000399257
1704.0,0.000395585
1706.0,0.000391916
1708.0,0.00038825
1710.0,0.000384587
1712.0,0.000380697
1714.0,0.000376809
1716.0,0.000372923
1718.0,0.00036904
1720.0,0.00036516
1722.0,0.000360875
1724.0,0.000356592
1726.0,0.000352312
1728.0,0.000348034
1730.0,0.000343759
1732.0,0.000338338
1734.0,0.000332921
1736.0,0.000327508
1738.0,0.000322098
1740.0,0.000316693
1742.0,0.000311037
1744.0,0.000305385
1746.0,0.000299737
1748.0,0.000294094
1750.0,0.000288456
1752.0,0.000283373
1754.0,0.000278296
1756.0,0.000273226
1758.0,0.000268162
1760.0,0.000263105
1762.0,0.000258841
1764.0,0.000254581
1766.0,0.000250327
1768.0,0.000246078
1770.0,0.000241835
1772.0,0.00023793
1774.0,0.00023403
1776.0,0.000230135
1778.0,0.000226245
1780.0,0.000222361
1782.0,0.000218793
1784.0,0.00021523
1786.0,0.000211672
1788.0,0.000208119
1790.0,0.000204571
1792.0,0.000201317
1794.0,0.000198068
1796.0,0.000194823
1798.0,0.000191584
1800.0,0.000188349
1802.0,0.000186103
1804.0,0.000183846
1806.0,0.000181576
1808.0,0.000179293
1810.0,0.000176999
1812.0,0.00017501
1814.0,0.00017301
1816.0,0.000170999
1818.0,0.000168977
1820.0,0.000166944
1822.0,0.000165156
1824.0,0.000163358
1826.0,0.000161551
1828.0,0.000159733
1830.0,0.000157906
1832.0,0.000156261
1834.0,0.000154607
1836.0,0.000152944
1838.0,0.000151271
1840.0,0.00014959
1842.0,0.00014812
1844.0,0.000146642
1846.0,0.000145155
1848.0,0.000143661
1850.0,0.000142158
1852.0,0.000140881
1854.0,0.000139597
1856.0,0.000138306
1858.0,0.000137009
1860.0,0.000135704
1862.0,0.000134562
1864.0,0.000133414
1866.0,0.000132259
1868.0,0.000131098
1870.0,0.000129931
1872.0,0.000128852
1874.0,0.000127767
1876.0,0.000126676
1878.0,0.000125579
1880.0,0.000124476
1882.0,0.000123458
1884.0,0.000122435
1886.0,0.000121406
1888.0,0.000120372
1890.0,0.000119332
1892.0,0.000118415
1894.0,0.000117492
1896.0,0.000116565
1898.0,0.000115632
1900.0,0.000114695
1902.0,0.00011419
1904.0,0.000113675
1906.0,0.00011315
1908.0,0.000112616
1910.0,0.000112073
1912.0,0.000111615
1914.0,0.000111147
1916.0,0.000110671
1918.0,0.000110187
1920.0,0.000109693
1922.0,0.000109293
1924.0,0.000108885
1926.0,0.000108469
1928.0,0.000108045
1930.0,0.000107613
1932.0,0.000107285
1934.0,0.00010695
1936.0,0.000106608
1938.0,0.000106259
1940.0,0.000105903
1942.0,0.000105636
1944.0,0.000105362
1946.0,0.000105083
1948.0,0.000104797
1950.0,0.000104504
1952.0,0.000104286
1954.0,0.000104062
1956.0,0.000103832
1958.0,0.000103596
1960.0,0.000103355
1962.0,0.000103234
1964.0,0.000103136
1966.0,0.000103033
1968.0,0.000102925
1970.0,0.000102812
1972.0,0.000102798
1974.0,0.00010278
1976.0,0.000102757
1978.0,0.000102731
1980.0,0.0001027
1982.0,0.000102729
1984.0,0.000102754
1986.0,0.000102775
1988.0,0.000102793
1990.0,0.000102808
1992.0,0.00010284
1994.0,0.000102868
1996.0,0.000102893
1998.0,0.000102915
2000.0,0.000102933
2002.0,0.00010293
2004.0,0.000102925
2006.0,0.000102916
2008.0,0.000102903
2010.0,0.000102887
2012.0,0.000102901
2014.0,0.000102911
2016.0,0.000102917
2018.0,0.000102921
2020.0,0.000102921
2022.0,0.000102965
2024.0,0.000103006
2026.0,0.000103045
2028.0,0.00010308
2030.0,0.000103113
2032.0,0.000103204
2034.0,0.000103293
2036.0,0.00010338
2038.0,0.000103464
2040.0,0.000103546
2042.0,0.000103711
2044.0,0.000103875
2046.0,0.000104037
2048.0,0.000104198
2050.0,0.000104356
2052.0,0.000104599
2054.0,0.000104842
2056.0,0.000105083
2058.0,0.000105323
2060.0,0.000105562
2062.0,0.000105832
2064.0,0.000106102
2066.0,0.000106372
2068.0,0.00010664
2070.0,0.000106908
2072.0,0.000107165
2074.0,0.000107421
2076.0,0.000107676
2078.0,0.00010793
2080.0,0.000108184
2082.0,0.000108415
2084.0,0.000108646
2086.0,0.000108875
2088.0,0.000109104
2090.0,0.000109331
2092.0,0.000109559
2094.0,0.000109787
2096.0,0.000110013
2098.0,0.000110238
2100.0,0.000110462
2102.0,0.000110712
2104.0,0.00011096
2106.0,0.000111208
2108.0,0.000111455
2110.0,0.0001117
2112.0,0.00011196
2114.0,0.000112219
2116.0,0.000112477
2118.0,0.000112734
2120.0,0.00011299
2122.0,0.000113253
2124.0,0.000113515
2126.0,0.000113776
2128.0,0.000114036
2130.0,0.000114295
2132.0,0.00011456
2134.0,0.000114825
2136.0,0.000115089
2138.0,0.000115352
2140.0,0.000115614
2142.0,0.000115901
2144.0,0.000116187
2146.0,0.000116473
2148.0,0.000116758
2150.0,0.000117042
2152.0,0.000117394
2154.0,0.000117745
2156.0,0.000118096
2158.0,0.000118446
2160.0,0.000118797
2162.0,0.000119206
2164.0,0.000119616
2166.0,0.000120026
2168.0,0.000120436
2170.0,0.000120847
2172.0,0.000121305
2174.0,0.000121763
2176.0,0.000122222
2178.0,0.000122682
2180.0,0.000123142
2182.0,0.00012363
2184.0,0.000124118
2186.0,0.000124608
2188.0,0.000125098
2190.0,0.000125589
2192.0,0.000126086
2194.0,0.000126584
2196.0,0.000127083
2198.0,0.000127584
2200.0,0.000128085
2202.0,0.000128527
2204.0,0.00012897
2206.0,0.000129413
2208.0,0.000129857
2210.0,0.000130301
2212.0,0.000130749
2214.0,0.000131197
2216.0,0.000131646
2218.0,0.000132096
2220.0,0.000132547
2222.0,0.000133028
2224.0,0.000133511
2226.0,0.000133994
2228.0,0.000134479
2230.0,0.000134964
2232.0,0.00013551
2234.0,0.000136057
2236.0,0.000136606
2238.0,0.000137156
2240.0,0.000137707
2242.0,0.000138342
2244.0,0.000138979
2246.0,0.000139618
2248.0,0.000140259
2250.0,0.000140901
2252.0,0.000141638
2254.0,0.000142378
2256.0,0.000143119
2258.0,0.000143864
2260.0,0.00014461
2262.0,0.000145387
2264.0,0.000146167
2266.0,0.00014695
2268.0,0.000147735
2270.0,0.000148522
2272.0,0.000149305
2274.0,0.000150091
2276.0,0.000150879
2278.0,0.000151669
2280.0,0.000152462
2282.0,0.000153221
2284.0,0.000153982
2286.0,0.000154745
2288.0,0.00015551
2290.0,0.000156278
2292.0,0.000157038
2294.0,0.0001578
2296.0,0.000158564
2298.0,0.00015933
2300.0,0.000160099
2302.0,0.000160945
2304.0,0.000161794
2306.0,0.000162645
2308.0,0.000163499
2310.0,0.000164356
2312.0,0.000165306
2314.0,0.00016626
2316.0,0.000167217
2318.0,0.000168176
2320.0,0.000169139
2322.0,0.000170225
2324.0,0.000171315
2326.0,0.000172408
2328.0,0.000173505
2330.0,0.000174606
2332.0,0.0001758
2334.0,0.000176999
2336.0,0.000178202
2338.0,0.000179409
2340.0,0.000180621
2342.0,0.000181891
2344.0,0.000183166
2346.0,0.000184445
2348.0,0.000185728
2350.0,0.000187017
2352.0,0.000188367
2354.0,0.000189722
2356.0,0.000191082
2358.0,0.000192447
2360.0,0.000193818
2362.0,0.000195189
2364.0,0.000196565
2366.0,0.000197946
2368.0,0.000199332
2370.0,0.000200722
2372.0,0.000202139
2374.0,0.000203561
2376.0,0.000204988
2378.0,0.00020642
2380.0,0.000207857
2382.0,0.000209352
2384.0,0.000210853
2386.0,0.000212359
2388.0,0.00021387
2390.0,0.000215387
2392.0,0.000216996
2394.0,0.000218611
2396.0,0.000220231
2398.0,0.000221857
2400.0,0.000223489
2402.0,0.000225065
2404.0,0.000226646
2406.0,0.000228231
2408.0,0.00022982
2410.0,0.000231415
2412.0,0.000233082
2414.0,0.000234754
2416.0,0.000236432
2418.0,0.000238114
2420.0,0.0002398
2422.0,0.000241593
2424.0,0.000243392
2426.0,0.000245195
2428.0,0.000247004
2430.0,0.000248818
2432.0,0.000250771
2434.0,0.000252731
2436.0,0.000254696
2438.0,0.000256667
2440.0,0.000258643
2442.0,0.000260739
2444.0,0.000262841
2446.0,0.000264949
2448.0,0.000267063
2450.0,0.000269184
2452.0,0.00027145
2454.0,0.000273723
2456.0,0.000276003
2458.0,0.00027829
2460.0,0.000280584
2462.0,0.000283052
2464.0,0.000285529
2466.0,0.000288013
2468.0,0.000290504
2470.0,0.000293003
2472.0,0.000295738
2474.0,0.000298482
2476.0,0.000301235
2478.0,0.000303995
2480.0,0.000306764
2482.0,0.000309789
2484.0,0.000312823
2486.0,0.000315866
2488.0,0.000318919
2490.0,0.000321981
2492.0,0.00032527
2494.0,0.00032857
2496.0,0.000331881
2498.0,0.000335201
2500.0,0.000338532
2502.0,0.000342116
2504.0,0.000345713
2506.0,0.00034932
2508.0,0.00035294
2510.0,0.000356571
2512.0,0.000360415
2514.0,0.000364273
2516.0,0.000368143
2518.0,0.000372025
2520.0,0.00037592
2522.0,0.0003804
2524.0,0.000384896
2526.0,0.000389406
2528.0,0.000393931
2530.0,0.00039847
2532.0,0.000403484
2534.0,0.000408515
2536.0,0.000413562
2538.0,0.000418626
2540.0,0.000423707
2542.0,0.000428512
2544.0,0.000433332
2546.0,0.000438169
2548.0,0.00044302
2550.0,0.000447888
2552.0,0.000451746
2554.0,0.000455616
2556.0,0.000459498
2558.0,0.000463391
2560.0,0.000467297
2562.0,0.000469376
2564.0,0.00047146
2566.0,0.000473549
2568.0,0.000475642
2570.0,0.00047774
2572.0,0.00047859
2574.0,0.000479441
2576.0,0.000480291
2578.0,0.000481141
2580.0,0.000481991
2582.0,0.000482886
2584.0,0.00048378
2586.0,0.000484674
2588.0,0.000485568
2590.0,0.000486462
2592.0,0.000488722
2594.0,0.000490988
2596.0,0.000493258
2598.0,0.000495534
2600.0,0.000497815
2602.0,0.000503996
2604.0,0.000510197
2606.0,0.000516418
2608.0,0.000522659
2610.0,0.00052892
2612.0,0.000537114
2614.0,0.000545335
2616.0,0.000553583
2618.0,0.000561859
2620.0,0.000570162
2622.0,0.000577476
2624.0,0.000584814
2626.0,0.000592176
2628.0,0.000599562
2630.0,0.000606971
2632.0,0.000614743
2634.0,0.000622541
2636.0,0.000630364
2638.0,0.000638211
2640.0,0.000646084
2642.0,0.000654723
2644.0,0.000663391
2646.0,0.000672086
2648.0,0.000680808
2650.0,0.000689559
2652.0,0.000699028
2654.0,0.000708528
2656.0,0.000718058
2658.0,0.000727618
2660.0,0.00073721
2662.0,0.000747617
2664.0,0.000758058
2666.0,0.000768532
2668.0,0.000779039
2670.0,0.000789581
2672.0,0.00080088
2674.0,0.000812215
2676.0,0.000823587
2678.0,0.000834995
2680.0,0.00084644
2682.0,0.000858459
2684.0,0.000870518
2686.0,0.000882614
2688.0,0.000894749
2690.0,0.000906922
2692.0,0.000920147
2694.0,0.000933413
2696.0,0.000946722
2698.0,0.000960073
2700.0,0.000973466
2702.0,0.000988267
2704.0,0.00100312
2706.0,0.00101801
2708.0,0.00103295
2710.0,0.00104794
2712.0,0.00106452
2714.0,0.00108115
2716.0,0.00109783
2718.0,0.00111456
2720.0,0.00113135
2722.0,0.00114999
2724.0,0.0011687
2726.0,0.00118746
2728.0,0.00120628
2730.0,0.00122516
2732.0,0.00124599
2734.0,0.00126688
2736.0,0.00128784
2738.0,0.00130887
2740.0,0.00132996
2742.0,0.00135332
2744.0,0.00137675
2746.0,0.00140026
2748.0,0.00142384
2750.0,0.00144749
2752.0,0.00147296
2754.0,0.00149851
2756.0,0.00152413
2758.0,0.00154983
2760.0,0.00157562
2762.0,0.00160243
2764.0,0.00162932
2766.0,0.0016563
2768.0,0.00168336
2770.0,0.0017105
2772.0,0.00174025
2774.0,0.0017701
2776.0,0.00180003
2778.0,0.00183006
2780.0,0.00186017
2782.0,0.0018943
2784.0,0.00192853
2786.0,0.00196287
2788.0,0.00199731
2790.0,0.00203185
2792.0,0.00207023
2794.0,0.00210872
2796.0,0.00214734
2798.0,0.00218606
2800.0,0.00222491
2802.0,0.00226815
2804.0,0.00231154
2806.0,0.00235508
2808.0,0.00239876
2810.0,0.00244259
2812.0,0.00249095
2814.0,0.00253947
2816.0,0.00258816
2818.0,0.002637
2820.0,0.00268601
2822.0,0.00273975
2824.0,0.00279367
2826.0,0.00284777
2828.0,0.00290205
2830.0,0.0029565
2832.0,0.003017
2834.0,0.00307769
2836.0,0.00313858
2838.0,0.00319967
2840.0,0.00326097
2842.0,0.00333
2844.0,0.00339927
2846.0,0.00346876
2848.0,0.00353848
2850.0,0.00360843
2852.0,0.00368511
2854.0,0.00376205
2856.0,0.00383923
2858.0,0.00391665
2860.0,0.00399433
2862.0,0.00407868
2864.0,0.00416331
2866.0,0.00424821
2868.0,0.00433338
2870.0,0.00441882
2872.0,0.00451029
2874.0,0.00460204
2876.0,0.00469409
2878.0,0.00478644
2880.0,0.00487907
2882.0,0.00497525
2884.0,0.00507173
2886.0,0.00516851
2888.0,0.0052656
2890.0,0.00536299
2892.0,0.00546923
2894.0,0.00557579
2896.0,0.00568269
2898.0,0.00578993
2900.0,0.00589749
2902.0,0.00602097
2904.0,0.00614483
2906.0,0.00626906
2908.0,0.00639368
2910.0,0.00651867
2912.0,0.00665157
2914.0,0.00678488
2916.0,0.00691858
2918.0,0.0070527
2920.0,0.00718721
2922.0,0.00732218
2924.0,0.00745756
2926.0,0.00759334
2928.0,0.00772952
2930.0,0.00786611
2932.0,0.00800765
2934.0,0.0081496
2936.0,0.00829198
2938.0,0.00843477
2940.0,0.00857799
2942.0,0.00872859
2944.0,0.00887964
2946.0,0.00903113
2948.0,0.00918307
2950.0,0.00933545
2952.0,0.00949344
2954.0,0.00965187
2956.0,0.00981075
2958.0,0.00997008
2960.0,0.0101298
2962.0,0.0102985
2964.0,0.0104676
2966.0,0.0106371
2968.0,0.0108072
2970.0,0.0109777
2972.0,0.0111478
2974.0,0.0113184
2976.0,0.0114894
2978.0,0.0116609
2980.0,0.0118329
2982.0,0.0119967
2984.0,0.012161
2986.0,0.0123257
2988.0,0.0124908
2990.0,0.0126564
2992.0,0.0128115
2994.0,0.0129669
2996.0,0.0131228
2998.0,0.0132791
3000.0,0.0134358
3002.0,0.0135698
3004.0,0.013704
3006.0,0.0138384
3008.0,0.013973
3010.0,0.0141078
3012.0,0.0142223
3014.0,0.014337
3016.0,0.0144519
3018.0,0.0145669
3020.0,0.0146821
3022.0,0.0147639
3024.0,0.0148458
3026.0,0.0149278
3028.0,0.0150099
3030.0,0.0150922
3032.0,0.015157
3034.0,0.015222
3036.0,0.015287
3038.0,0.0153521
3040.0,0.0154173
3042.0,0.0154814
3044.0,0.0155455
3046.0,0.0156098
3048.0,0.0156742
3050.0,0.0157386
3052.0,0.0157878
3054.0,0.015837
3056.0,0.0158863
3058.0,0.0159357
3060.0,0.0159851
3062.0,0.0160087
3064.0,0.0160323
3066.0,0.0160559
3068.0,0.0160796
3070.0,0.0161032
3072.0,0.0161093
3074.0,0.0161153
3076.0,0.0161214
3078.0,0.0161274
3080.0,0.0161334
3082.0,0.0161293
3084.0,0.0161252
3086.0,0.016121
3088.0,0.0161169
3090.0,0.0161127
3092.0,0.0160897
3094.0,0.0160667
3096.0,0.0160437
3098.0,0.0160206
3100.0,0.0159975
3102.0,0.0159449
3104.0,0.0158923
3106.0,0.0158396
3108.0,0.0157868
3110.0,0.015734
3112.0,0.0156642
3114.0,0.0155942
3116.0,0.0155242
3118.0,0.0154541
3120.0,0.0153838
3122.0,0.0153028
3124.0,0.0152217
3126.0,0.0151404
3128.0,0.015059
3130.0,0.0149775
3132.0,0.0148928
3134.0,0.014808
3136.0,0.0147231
3138.0,0.014638
3140.0,0.0145528
3142.0,0.0144793
3144.0,0.0144058
3146.0,0.0143321
3148.0,0.0142583
3150.0,0.0141845
3152.0,0.0141058
3154.0,0.014027
3156.0,0.0139481
3158.0,0.0138691
3160.0,0.01379
3162.0,0.0136937
3164.0,0.0135973
3166.0,0.0135008
3168.0,0.0134041
3170.0,0.0133073
3172.0,0.013201
3174.0,0.0130946
3176.0,0.012988
3178.0,0.0128813
3180.0,0.0127745
3182.0,0.0126607
3184.0,0.0125468
3186.0,0.0124328
3188.0,0.0123186
3190.0,0.0122043
3192.0,0.012085
3194.0,0.0119655
3196.0,0.0118459
3198.0,0.0117261
3200.0,0.0116062
3202.0,0.0114819
3204.0,0.0113575
3206.0,0.0112329
3208.0,0.0111082
3210.0,0.0109835
3212.0,0.0108572
3214.0,0.0107308
3216.0,0.0106043
3218.0,0.0104777
3220.0,0.010351
3222.0,0.0102228
3224.0,0.0100946
3226.0,0.00996618
3228.0,0.00983767
3230.0,0.00970904
3232.0,0.0095842
3234.0,0.00945924
3236.0,0.00933416
3238.0,0.00920897
3240.0,0.00908367
3242.0,0.00896838
3244.0,0.00885298
3246.0,0.00873747
3248.0,0.00862187
3250.0,0.00850615
3252.0,0.0083971
3254.0,0.00828796
3256.0,0.00817874
3258.0,0.00806944
3260.0,0.00796005
3262.0,0.00785909
3264.0,0.00775805
3266.0,0.00765694
3268.0,0.00755575
3270.0,0.00745448
3272.0,0.00735558
3274.0,0.00725662
3276.0,0.00715757
3278.0,0.00705845
3280.0,0.00695925
3282.0,0.00685444
3284.0,0.00674955
3286.0,0.00664458
3288.0,0.00653952
3290.0,0.00643439
3292.0,0.00633059
3294.0,0.0062267
3296.0,0.00612274
3298.0,0.0060187
3300.0,0.00591458
3302.0,0.00581584
3304.0,0.00571703
3306.0,0.00561816
3308.0,0.00551921
3310.0,0.00542019
3312.0,0.005327
3314.0,0.00523375
3316.0,0.00514043
3318.0,0.00504704
3320.0,0.00495359
3322.0,0.00486783
3324.0,0.00478202
3326.0,0.00469614
3328.0,0.0046102
3330.0,0.0045242
3332.0,0.00444536
3334.0,0.00436647
3336.0,0.00428753
3338.0,0.00420852
3340.0,0.00412946
3342.0,0.00405755
3344.0,0.00398559
3346.0,0.00391357
3348.0,0.00384151
3350.0,0.00376939
3352.0,0.00370484
3354.0,0.00364025
3356.0,0.00357561
3358.0,0.00351091
3360.0,0.00344617
3362.0,0.0033909
3364.0,0.00333559
3366.0,0.00328023
3368.0,0.00322484
3370.0,0.0031694
3372.0,0.00311845
3374.0,0.00306747
3376.0,0.00301645
3378.0,0.00296539
3380.0,0.00291429
3382.0,0.0028618
3384.0,0.00280926
3386.0,0.00275669
3388.0,0.00270407
3390.0,0.00265141
3392.0,0.00260203
3394.0,0.0025526
3396.0,0.00250314
3398.0,0.00245364
3400.0,0.0024041
3402.0,0.00236064
3404.0,0.00231718
3406.0,0.00227371
3408.0,0.00223024
3410.0,0.00218676
3412.0,0.00214755
3414.0,0.00210834
3416.0,0.00206912
3418.0,0.00202989
3420.0,0.00199066
3422.0,0.00195406
3424.0,0.00191745
3426.0,0.00188084
3428.0,0.00184423
3430.0,0.00180761
3432.0,0.00177423
3434.0,0.00174084
3436.0,0.00170745
3438.0,0.00167405
3440.0,0.00164065
3442.0,0.00161052
3444.0,0.00158037
3446.0,0.00155023
3448.0,0.00152008
3450.0,0.00148993
3452.0,0.00146312
3454.0,0.00143632
3456.0,0.00140951
3458.0,0.00138269
3460.0,0.00135588
3462.0,0.00133309
3464.0,0.0013103
3466.0,0.00128751
3468.0,0.00126471
3470.0,0.00124192
3472.0,0.00122152
3474.0,0.00120112
3476.0,0.00118072
3478.0,0.00116032
3480.0,0.00113991
3482.0,0.0011201
3484.0,0.00110028
3486.0,0.00108046
3488.0,0.00106064
3490.0,0.00104081
3492.0,0.00102278
3494.0,0.00100475
3496.0,0.000986716
3498.0,0.00096868
3500.0,0.000950642
3502.0,0.000935294
3504.0,0.000919946
3506.0,0.000904599
3508.0,0.000889253
3510.0,0.000873907
3512.0,0.000860239
3514.0,0.000846571
3516.0,0.000832904
3518.0,0.000819238
3520.0,0.000805572
3522.0,0.000792885
3524.0,0.000780198
3526.0,0.000767512
3528.0,0.000754826
3530.0,0.000742141
3532.0,0.00073026
3534.0,0.00071838
3536.0,0.0007065
3538.0,0.00069462
3540.0,0.000682741
3542.0,0.00067104
3544.0,0.000659338
3546.0,0.000647637
3548.0,0.000635936
3550.0,0.000624236
3552.0,0.000613376
3554.0,0.000602516
3556.0,0.000591656
3558.0,0.000580796
3560.0,0.000569937
3562.0,0.000560406
3564.0,0.000550875
3566.0,0.000541345
3568.0,0.000531814
3570.0,0.000522284
3572.0,0.000513966
3574.0,0.000505648
3576.0,0.00049733
3578.0,0.000489012
3580.0,0.000480695
3582.0,0.000473624
3584.0,0.000466554
3586.0,0.000459483
3588.0,0.000452413
3590.0,0.000445343
3592.0,0.000439558
3594.0,0.000433772
3596.0,0.000427987
3598.0,0.000422202
3600.0,0.000416417
3602.0,0.00041156
3604.0,0.000406703
3606.0,0.000401846
3608.0,0.000396988
3610.0,0.00039213
3612.0,0.000387646
3614.0,0.000383163
3616.0,0.000378678
3618.0,0.000374194
3620.0,0.000369709
3622.0,0.000365466
3624.0,0.000361222
3626.0,0.000356979
3628.0,0.000352734
3630.0,0.00034849
3632.0,0.000344354
3634.0,0.000340218
3636.0,0.000336082
3638.0,0.000331946
3640.0,0.000327809
3642.0,0.000323722
3644.0,0.000319635
3646.0,0.000315548
3648.0,0.00031146
3650.0,0.000307372
3652.0,0.000303422
3654.0,0.000299472
3656.0,0.000295521
3658.0,0.00029157
3660.0,0.000287618
3662.0,0.000283869
3664.0,0.000280119
3666.0,0.000276369
3668.0,0.000272618
3670.0,0.000268866
3672.0,0.000265391
3674.0,0.000261915
3676.0,0.000258438
3678.0,0.000254961
3680.0,0.000251484
3682.0,0.000248313
3684.0,0.000245141
3686.0,0.00024197
3688.0,0.000238797
3690.0,0.000235624
3692.0,0.000232715
3694.0,0.000229806
3696.0,0.000226895
3698.0,0.000223985
3700.0,0.000221074
3702.0,0.000218371
3704.0,0.000215668
3706.0,0.000212965
3708.0,0.000210262
3710.0,0.000207559
3712.0,0.000205049
3714.0,0.000202539
3716.0,0.000200029
3718.0,0.00019752
3720.0,0.00019501
3722.0,0.000192713
3724.0,0.000190417
3726.0,0.00018812
3728.0,0.000185824
3730.0,0.000183527
3732.0,0.000181453
3734.0,0.000179378
3736.0,0.000177304
3738.0,0.00017523
3740.0,0.000173156
3742.0,0.000171252
3744.0,0.000169348
3746.0,0.000167445
3748.0,0.000165541
3750.0,0.000163637
3752.0,0.000161838
3754.0,0.00016004
3756.0,0.000158241
3758.0,0.000156443
3760.0,0.000154646
3762.0,0.000152982
