Wavelength,Transmission
1110.0,6.59083e-06
1120.0,1.32716e-05
1130.0,1.96711e-05
1140.0,2.57818e-05
1150.0,3.1598e-05
1152.0,3.73223e-05
1154.0,4.35666e-05
1156.0,5.03512e-05
1158.0,5.76965e-05
1160.0,6.56229e-05
1162.0,7.39172e-05
1164.0,8.19241e-05
1166.0,9.03737e-05
1168.0,9.9276e-05
1170.0,0.000108641
1172.0,0.000118008
1174.0,0.000127798
1176.0,0.00013802
1178.0,0.000148682
1180.0,0.000159793
1182.0,0.000170573
1184.0,0.000181736
1186.0,0.000193288
1188.0,0.000205236
1190.0,0.000217585
1192.0,0.000228861
1194.0,0.000240419
1196.0,0.000252262
1198.0,0.000264392
1200.0,0.000276812
1202.0,0.000293607
1204.0,0.000311033
1206.0,0.000329103
1208.0,0.00034783
1210.0,0.000367228
1212.0,0.000387402
1214.0,0.000408284
1216.0,0.00042989
1218.0,0.000447894
1220.0,0.000466295
1222.0,0.000484897
1224.0,0.000503889
1226.0,0.000523273
1228.0,0.000543052
1230.0,0.00056323
1232.0,0.000583202
1234.0,0.00060354
1236.0,0.000624247
1238.0,0.000645325
1240.0,0.000666777
1242.0,0.000687839
1244.0,0.000709236
1246.0,0.000730968
1248.0,0.000753037
1250.0,0.000775444
1252.0,0.000789406
1254.0,0.000803506
1256.0,0.000817744
1258.0,0.000832121
1260.0,0.000846636
1262.0,0.000860643
1264.0,0.000874768
1266.0,0.000889012
1268.0,0.000903375
1270.0,0.000917857
1272.0,0.000931946
1274.0,0.00094614
1276.0,0.000960437
1278.0,0.000974837
1280.0,0.00098934
1282.0,0.0010036
1284.0,0.00101796
1286.0,0.00103241
1288.0,0.00104695
1290.0,0.00106158
1292.0,0.00107611
1294.0,0.00109073
1296.0,0.00110544
1298.0,0.00112023
1300.0,0.0011351
1302.0,0.00115311
1304.0,0.0011712
1306.0,0.00118935
1308.0,0.00120757
1310.0,0.00122586
1312.0,0.00124428
1314.0,0.00126276
1316.0,0.00128132
1318.0,0.00129995
1320.0,0.00131864
1322.0,0.00133748
1324.0,0.00135638
1326.0,0.00137536
1328.0,0.00139441
1330.0,0.00141353
1332.0,0.00143275
1334.0,0.00145204
1336.0,0.00147141
1338.0,0.00149084
1340.0,0.00151035
1342.0,0.00152992
1344.0,0.00154957
1346.0,0.00156929
1348.0,0.00158908
1350.0,0.00160893
1352.0,0.00163065
1354.0,0.00165244
1356.0,0.00167432
1358.0,0.00169628
1360.0,0.00171833
1362.0,0.00174045
1364.0,0.00176265
1366.0,0.00178494
1368.0,0.00180731
1370.0,0.00182976
1372.0,0.00185227
1374.0,0.00187487
1376.0,0.00189755
1378.0,0.00192031
1380.0,0.00194314
1382.0,0.00196603
1384.0,0.001989
1386.0,0.00201205
1388.0,0.00203517
1390.0,0.00205837
1392.0,0.0020816
1394.0,0.00210491
1396.0,0.0021283
1398.0,0.00215175
1400.0,0.00217529
1402.0,0.00220161
1404.0,0.00222803
1406.0,0.00225455
1408.0,0.00228116
1410.0,0.00230787
1412.0,0.00233458
1414.0,0.00236138
1416.0,0.00238828
1418.0,0.00241526
1420.0,0.00244234
1422.0,0.00246939
1424.0,0.00249652
1426.0,0.00252374
1428.0,0.00255105
1430.0,0.00257845
1432.0,0.00260577
1434.0,0.00263317
1436.0,0.00266009
1438.0,0.00268652
1440.0,0.002713
1442.0,0.00273933
1444.0,0.00276572
1446.0,0.00279217
1448.0,0.00281866
1450.0,0.0028452
1452.0,0.00286873
1454.0,0.00289228
1456.0,0.00291586
1458.0,0.00293948
1460.0,0.00296313
1462.0,0.00298652
1464.0,0.00300994
1466.0,0.00303339
1468.0,0.00305685
1470.0,0.00308034
1472.0,0.00310352
1474.0,0.00312672
1476.0,0.00314993
1478.0,0.00317315
1480.0,0.00319639
1482.0,0.00321926
1484.0,0.00324213
1486.0,0.00326501
1488.0,0.0032879
1490.0,0.00331079
1492.0,0.00333322
1494.0,0.00335566
1496.0,0.00337809
1498.0,0.00340051
1500.0,0.00342293
1502.0,0.00344138
1504.0,0.0034598
1506.0,0.00347817
1508.0,0.00349651
1510.0,0.00351481
1512.0,0.00353268
1514.0,0.00355051
1516.0,0.00356829
1518.0,0.00358603
1520.0,0.00360372
1522.0,0.00362108
1524.0,0.00363838
1526.0,0.00365563
1528.0,0.00367283
1530.0,0.00368997
1532.0,0.00370689
1534.0,0.00372375
1536.0,0.00374055
1538.0,0.0037573
1540.0,0.003774
1542.0,0.00379058
1544.0,0.0038071
1546.0,0.00382357
1548.0,0.00383998
1550.0,0.00385633
1552.0,0.00386438
1554.0,0.00387237
1556.0,0.00388032
1558.0,0.00388823
1560.0,0.00389608
1562.0,0.0039041
1564.0,0.00391208
1566.0,0.00392001
1568.0,0.00392789
1570.0,0.00393572
1572.0,0.00394388
1574.0,0.00395199
1576.0,0.00396006
1578.0,0.00396808
1580.0,0.00397605
1582.0,0.0039845
1584.0,0.0039929
1586.0,0.00400126
1588.0,0.00400958
1590.0,0.00401786
1592.0,0.00402677
1594.0,0.00403564
1596.0,0.00404447
1598.0,0.00405327
1600.0,0.00406203
1602.0,0.00405769
1604.0,0.00405334
1606.0,0.00404896
1608.0,0.00404456
1610.0,0.00404343
1612.0,0.00404327
1614.0,0.00404309
1616.0,0.00404288
1618.0,0.00404266
1620.0,0.0040424
1622.0,0.00404329
1624.0,0.00404416
1626.0,0.004045
1628.0,0.00404583
1630.0,0.00404663
1632.0,0.00404874
1634.0,0.00405083
1636.0,0.0040529
1638.0,0.00405495
1640.0,0.00405699
1642.0,0.00406046
1644.0,0.00406391
1646.0,0.00406735
1648.0,0.00407078
1650.0,0.00407419
1652.0,0.00408222
1654.0,0.00409022
1656.0,0.0040982
1658.0,0.00410615
1660.0,0.00411408
1662.0,0.00412352
1664.0,0.00413294
1666.0,0.00414235
1668.0,0.00415173
1670.0,0.0041611
1672.0,0.00417182
1674.0,0.00418253
1676.0,0.00419323
1678.0,0.00420391
1680.0,0.00421457
1682.0,0.00422643
1684.0,0.00423827
1686.0,0.0042501
1688.0,0.00426192
1690.0,0.00427373
1692.0,0.0042866
1694.0,0.00429945
1696.0,0.00431229
1698.0,0.00432513
1700.0,0.00433796
1702.0,0.00434358
1704.0,0.00434914
1706.0,0.00435464
1708.0,0.00436008
1710.0,0.00436546
1712.0,0.00437155
1714.0,0.00437757
1716.0,0.00438354
1718.0,0.00438945
1720.0,0.00439529
1722.0,0.00440167
1724.0,0.00440799
1726.0,0.00441425
1728.0,0.00442044
1730.0,0.00442657
1732.0,0.00443306
1734.0,0.00443949
1736.0,0.00444586
1738.0,0.00445216
1740.0,0.00445839
1742.0,0.00446485
1744.0,0.00447125
1746.0,0.00447758
1748.0,0.00448384
1750.0,0.00449003
1752.0,0.00449282
1754.0,0.00449553
1756.0,0.00449818
1758.0,0.00450075
1760.0,0.00450324
1762.0,0.00450578
1764.0,0.00450824
1766.0,0.00451062
1768.0,0.00451293
1770.0,0.00451517
1772.0,0.00451743
1774.0,0.00451961
1776.0,0.00452171
1778.0,0.00452374
1780.0,0.00452568
1782.0,0.00452767
1784.0,0.00452958
1786.0,0.0045314
1788.0,0.00453315
1790.0,0.00453482
1792.0,0.00453652
1794.0,0.00453814
1796.0,0.00453968
1798.0,0.00454113
1800.0,0.00454251
1802.0,0.00455707
1804.0,0.00457165
1806.0,0.00458626
1808.0,0.00460089
1810.0,0.00461555
1812.0,0.00463032
1814.0,0.00464513
1816.0,0.00465995
1818.0,0.00467481
1820.0,0.00468969
1822.0,0.00470468
1824.0,0.0047197
1826.0,0.00473475
1828.0,0.00474982
1830.0,0.00476492
1832.0,0.00478013
1834.0,0.00479536
1836.0,0.00481062
1838.0,0.0048259
1840.0,0.00484121
1842.0,0.00485663
1844.0,0.00487207
1846.0,0.00488753
1848.0,0.00490303
1850.0,0.00491855
1852.0,0.00493211
1854.0,0.00494569
1856.0,0.00495929
1858.0,0.0049729
1860.0,0.00498654
1862.0,0.00500025
1864.0,0.00501398
1866.0,0.00502773
1868.0,0.00504149
1870.0,0.00505527
1872.0,0.00506913
1874.0,0.00508301
1876.0,0.0050969
1878.0,0.00511081
1880.0,0.00512474
1882.0,0.00513873
1884.0,0.00515275
1886.0,0.00516678
1888.0,0.00518083
1890.0,0.0051949
1892.0,0.00520903
1894.0,0.00522318
1896.0,0.00523734
1898.0,0.00525153
1900.0,0.00526573
1902.0,0.00529512
1904.0,0.00532461
1906.0,0.00535419
1908.0,0.00538387
1910.0,0.00541365
1912.0,0.00544355
1914.0,0.00547355
1916.0,0.00550365
1918.0,0.00553385
1920.0,0.00556415
1922.0,0.00559457
1924.0,0.0056251
1926.0,0.00565572
1928.0,0.00568644
1930.0,0.00571726
1932.0,0.0057482
1934.0,0.00577925
1936.0,0.00581039
1938.0,0.00584163
1940.0,0.00587297
1942.0,0.00590443
1944.0,0.005936
1946.0,0.00596766
1948.0,0.00599942
1950.0,0.00603128
1952.0,0.00606497
1954.0,0.00609878
1956.0,0.0061327
1958.0,0.00616674
1960.0,0.0062009
1962.0,0.00623685
1964.0,0.00627463
1966.0,0.00631257
1968.0,0.00635065
1970.0,0.0063889
1972.0,0.0064273
1974.0,0.00646585
1976.0,0.00650456
1978.0,0.00654343
1980.0,0.00658245
1982.0,0.00662162
1984.0,0.00666095
1986.0,0.00670043
1988.0,0.00674007
1990.0,0.00677988
1992.0,0.00681982
1994.0,0.00685993
1996.0,0.0069002
1998.0,0.00694062
2000.0,0.00698121
2002.0,0.00702139
2004.0,0.00706172
2006.0,0.0071022
2008.0,0.00714284
2010.0,0.00718363
2012.0,0.00722454
2014.0,0.00726561
2016.0,0.00730682
2018.0,0.0073482
2020.0,0.00738973
2022.0,0.00743136
2024.0,0.00747314
2026.0,0.00751507
2028.0,0.00755717
2030.0,0.00759942
2032.0,0.00764174
2034.0,0.00768422
2036.0,0.00772686
2038.0,0.00776965
2040.0,0.00781261
2042.0,0.00785562
2044.0,0.0078988
2046.0,0.00794213
2048.0,0.00798562
2050.0,0.00802928
2052.0,0.00807415
2054.0,0.00811919
2056.0,0.0081644
2058.0,0.00820977
2060.0,0.00825532
2062.0,0.00830089
2064.0,0.00834662
2066.0,0.00839253
2068.0,0.0084386
2070.0,0.00848484
2072.0,0.00853107
2074.0,0.00857747
2076.0,0.00862404
2078.0,0.00867078
2080.0,0.00871769
2082.0,0.00876456
2084.0,0.00881161
2086.0,0.00885882
2088.0,0.00890621
2090.0,0.00895376
2092.0,0.00900126
2094.0,0.00904893
2096.0,0.00909677
2098.0,0.00914477
2100.0,0.00919295
2102.0,0.00923814
2104.0,0.00928347
2106.0,0.00932893
2108.0,0.00937454
2110.0,0.00942028
2112.0,0.00946588
2114.0,0.00951162
2116.0,0.0095575
2118.0,0.00960351
2120.0,0.00964966
2122.0,0.00969564
2124.0,0.00974175
2126.0,0.009788
2128.0,0.00983439
2130.0,0.00988091
2132.0,0.00992723
2134.0,0.00997368
2136.0,0.0100203
2138.0,0.010067
2140.0,0.0101138
2142.0,0.0101605
2144.0,0.0102072
2146.0,0.0102541
2148.0,0.0103011
2150.0,0.0103483
2152.0,0.0103967
2154.0,0.0104452
2156.0,0.0104939
2158.0,0.0105427
2160.0,0.0105917
2162.0,0.0106404
2164.0,0.0106892
2166.0,0.0107381
2168.0,0.0107872
2170.0,0.0108364
2172.0,0.0108852
2174.0,0.0109342
2176.0,0.0109833
2178.0,0.0110326
2180.0,0.011082
2182.0,0.011131
2184.0,0.0111801
2186.0,0.0112294
2188.0,0.0112788
2190.0,0.0113283
2192.0,0.0113774
2194.0,0.0114267
2196.0,0.011476
2198.0,0.0115255
2200.0,0.0115751
2202.0,0.0116184
2204.0,0.0116617
2206.0,0.0117051
2208.0,0.0117486
2210.0,0.0117921
2212.0,0.0118351
2214.0,0.0118782
2216.0,0.0119214
2218.0,0.0119646
2220.0,0.012008
2222.0,0.0120507
2224.0,0.0120935
2226.0,0.0121364
2228.0,0.0121793
2230.0,0.0122224
2232.0,0.0122647
2234.0,0.0123072
2236.0,0.0123497
2238.0,0.0123923
2240.0,0.012435
2242.0,0.012477
2244.0,0.012519
2246.0,0.0125612
2248.0,0.0126034
2250.0,0.0126456
2252.0,0.0126885
2254.0,0.0127314
2256.0,0.0127744
2258.0,0.0128174
2260.0,0.0128605
2262.0,0.0129029
2264.0,0.0129454
2266.0,0.0129878
2268.0,0.0130304
2270.0,0.013073
2272.0,0.0131149
2274.0,0.0131569
2276.0,0.0131989
2278.0,0.0132409
2280.0,0.0132831
2282.0,0.0133245
2284.0,0.013366
2286.0,0.0134076
2288.0,0.0134492
2290.0,0.0134908
2292.0,0.0135318
2294.0,0.0135729
2296.0,0.013614
2298.0,0.0136552
2300.0,0.0136964
2302.0,0.0137396
2304.0,0.0137828
2306.0,0.0138261
2308.0,0.0138694
2310.0,0.0139127
2312.0,0.0139555
2314.0,0.0139983
2316.0,0.0140411
2318.0,0.014084
2320.0,0.014127
2322.0,0.0141693
2324.0,0.0142117
2326.0,0.0142542
2328.0,0.0142966
2330.0,0.0143392
2332.0,0.0143811
2334.0,0.0144232
2336.0,0.0144652
2338.0,0.0145073
2340.0,0.0145495
2342.0,0.0145911
2344.0,0.0146328
2346.0,0.0146745
2348.0,0.0147163
2350.0,0.0147581
2352.0,0.0148045
2354.0,0.014851
2356.0,0.0148975
2358.0,0.0149441
2360.0,0.0149907
2362.0,0.0150369
2364.0,0.0150832
2366.0,0.0151295
2368.0,0.0151758
2370.0,0.0152222
2372.0,0.0152681
2374.0,0.0153141
2376.0,0.0153602
2378.0,0.0154063
2380.0,0.0154524
2382.0,0.0154982
2384.0,0.015544
2386.0,0.0155898
2388.0,0.0156357
2390.0,0.0156816
2392.0,0.0157272
2394.0,0.0157728
2396.0,0.0158185
2398.0,0.0158642
2400.0,0.01591
2402.0,0.0159436
2404.0,0.0159773
2406.0,0.016011
2408.0,0.0160447
2410.0,0.0160785
2412.0,0.0161119
2414.0,0.0161454
2416.0,0.0161789
2418.0,0.0162124
2420.0,0.0162459
2422.0,0.0162792
2424.0,0.0163125
2426.0,0.0163458
2428.0,0.0163791
2430.0,0.0164125
2432.0,0.0164456
2434.0,0.0164787
2436.0,0.0165119
2438.0,0.0165451
2440.0,0.0165782
2442.0,0.0166113
2444.0,0.0166443
2446.0,0.0166774
2448.0,0.0167104
2450.0,0.0167435
2452.0,0.0167794
2454.0,0.0168153
2456.0,0.0168512
2458.0,0.0168872
2460.0,0.0169231
2462.0,0.016959
2464.0,0.0169949
2466.0,0.0170309
2468.0,0.0170668
2470.0,0.0171027
2472.0,0.0171387
2474.0,0.0171746
2476.0,0.0172106
2478.0,0.0172465
2480.0,0.0172825
2482.0,0.0173185
2484.0,0.0173545
2486.0,0.0173905
2488.0,0.0174266
2490.0,0.0174626
2492.0,0.0174987
2494.0,0.0175348
2496.0,0.017571
2498.0,0.0176071
2500.0,0.0176433
2502.0,0.0176783
2504.0,0.0177133
2506.0,0.0177482
2508.0,0.0177832
2510.0,0.0178182
2512.0,0.0178533
2514.0,0.0178884
2516.0,0.0179235
2518.0,0.0179586
2520.0,0.0179937
2522.0,0.018029
2524.0,0.0180642
2526.0,0.0180994
2528.0,0.0181346
2530.0,0.0181698
2532.0,0.0182052
2534.0,0.0182405
2536.0,0.0182758
2538.0,0.0183112
2540.0,0.0183465
2542.0,0.0183819
2544.0,0.0184174
2546.0,0.0184528
2548.0,0.0184883
2550.0,0.0185237
2552.0,0.0185628
2554.0,0.018602
2556.0,0.0186411
2558.0,0.0186803
2560.0,0.0187195
2562.0,0.0187587
2564.0,0.018798
2566.0,0.0188373
2568.0,0.0188766
2570.0,0.0189159
2572.0,0.0189553
2574.0,0.0189947
2576.0,0.0190342
2578.0,0.0190736
2580.0,0.0191131
2582.0,0.0191526
2584.0,0.0191922
2586.0,0.0192318
2588.0,0.0192714
2590.0,0.019311
2592.0,0.0193507
2594.0,0.0193905
2596.0,0.0194302
2598.0,0.01947
2600.0,0.0195097
2602.0,0.0195462
2604.0,0.0195826
2606.0,0.0196191
2608.0,0.0196555
2610.0,0.019692
2612.0,0.0197286
2614.0,0.0197651
2616.0,0.0198017
2618.0,0.0198383
2620.0,0.0198749
2622.0,0.0199116
2624.0,0.0199483
2626.0,0.019985
2628.0,0.0200217
2630.0,0.0200584
2632.0,0.0200952
2634.0,0.020132
2636.0,0.0201689
2638.0,0.0202057
2640.0,0.0202425
2642.0,0.0202795
2644.0,0.0203164
2646.0,0.0203533
2648.0,0.0203903
2650.0,0.0204272
2652.0,0.0204662
2654.0,0.0205051
2656.0,0.0205441
2658.0,0.0205831
2660.0,0.0206221
2662.0,0.0206612
2664.0,0.0207003
2666.0,0.0207394
2668.0,0.0207785
2670.0,0.0208176
2672.0,0.0208568
2674.0,0.0208961
2676.0,0.0209353
2678.0,0.0209746
2680.0,0.0210139
2682.0,0.0210533
2684.0,0.0210927
2686.0,0.0211321
2688.0,0.0211715
2690.0,0.0212109
2692.0,0.0212504
2694.0,0.02129
2696.0,0.0213295
2698.0,0.0213691
2700.0,0.0214087
2702.0,0.0214449
2704.0,0.0214811
2706.0,0.0215174
2708.0,0.0215536
2710.0,0.0215899
2712.0,0.0216262
2714.0,0.0216625
2716.0,0.0216988
2718.0,0.0217351
2720.0,0.0217715
2722.0,0.0218078
2724.0,0.0218442
2726.0,0.0218806
2728.0,0.021917
2730.0,0.0219534
2732.0,0.0219899
2734.0,0.0220263
2736.0,0.0220628
2738.0,0.0220993
2740.0,0.0221357
2742.0,0.0221723
2744.0,0.0222088
2746.0,0.0222454
2748.0,0.0222819
2750.0,0.0223185
2752.0,0.0223554
2754.0,0.0223924
2756.0,0.0224294
2758.0,0.0224663
2760.0,0.0225033
2762.0,0.0225403
2764.0,0.0225774
2766.0,0.0226145
2768.0,0.0226515
2770.0,0.0226886
2772.0,0.0227257
2774.0,0.0227629
2776.0,0.0228
2778.0,0.0228371
2780.0,0.0228743
2782.0,0.0229115
2784.0,0.0229487
2786.0,0.0229859
2788.0,0.0230232
2790.0,0.0230604
2792.0,0.0230977
2794.0,0.023135
2796.0,0.0231723
2798.0,0.0232096
2800.0,0.023247
2802.0,0.0232879
2804.0,0.0233288
2806.0,0.0233697
2808.0,0.0234107
2810.0,0.0234516
2812.0,0.0234926
2814.0,0.0235336
2816.0,0.0235746
2818.0,0.0236155
2820.0,0.0236566
2822.0,0.0236976
2824.0,0.0237386
2826.0,0.0237796
2828.0,0.0238207
2830.0,0.0238617
2832.0,0.0239028
2834.0,0.0239439
2836.0,0.023985
2838.0,0.0240261
2840.0,0.0240672
2842.0,0.0241083
2844.0,0.0241494
2846.0,0.0241906
2848.0,0.0242317
2850.0,0.0242729
2852.0,0.0243136
2854.0,0.0243543
2856.0,0.0243951
2858.0,0.0244358
2860.0,0.0244765
2862.0,0.0245173
2864.0,0.0245581
2866.0,0.0245988
2868.0,0.0246396
2870.0,0.0246804
2872.0,0.0247211
2874.0,0.0247619
2876.0,0.0248027
2878.0,0.0248435
2880.0,0.0248843
2882.0,0.0249251
2884.0,0.0249659
2886.0,0.0250068
2888.0,0.0250476
2890.0,0.0250884
2892.0,0.0251293
2894.0,0.0251701
2896.0,0.025211
2898.0,0.0252519
2900.0,0.0252927
2902.0,0.0253369
2904.0,0.025381
2906.0,0.0254252
2908.0,0.0254694
2910.0,0.0255136
2912.0,0.0255578
2914.0,0.0256021
2916.0,0.0256464
2918.0,0.0256907
2920.0,0.025735
2922.0,0.0257793
2924.0,0.0258237
2926.0,0.025868
2928.0,0.0259124
2930.0,0.0259568
2932.0,0.0260012
2934.0,0.0260457
2936.0,0.0260901
2938.0,0.0261346
2940.0,0.0261791
2942.0,0.0262236
2944.0,0.0262681
2946.0,0.0263126
2948.0,0.0263571
2950.0,0.0264017
2952.0,0.0264457
2954.0,0.0264898
2956.0,0.0265338
2958.0,0.0265779
2960.0,0.0266221
2962.0,0.0266662
2964.0,0.0267103
2966.0,0.0267545
2968.0,0.0267986
2970.0,0.0268429
2972.0,0.026887
2974.0,0.0269312
2976.0,0.0269755
2978.0,0.0270197
2980.0,0.027064
2982.0,0.0271082
2984.0,0.0271525
2986.0,0.0271968
2988.0,0.0272412
2990.0,0.0272855
2992.0,0.0273299
2994.0,0.0273743
2996.0,0.0274187
2998.0,0.0274631
3000.0,0.0275075
3002.0,0.0275311
3004.0,0.0275547
3006.0,0.0275784
3008.0,0.027602
3010.0,0.0276257
3012.0,0.0276493
3014.0,0.0276729
3016.0,0.0276966
3018.0,0.0277202
3020.0,0.0277439
3022.0,0.0277675
3024.0,0.0277911
3026.0,0.0278148
3028.0,0.0278384
3030.0,0.0278621
3032.0,0.0278857
3034.0,0.0279093
3036.0,0.0279329
3038.0,0.0279566
3040.0,0.0279802
3042.0,0.0280038
3044.0,0.0280275
3046.0,0.0280511
3048.0,0.0280748
3050.0,0.0280984
3052.0,0.0281208
3054.0,0.0281431
3056.0,0.0281655
3058.0,0.0281879
3060.0,0.0282103
3062.0,0.0282327
3064.0,0.028255
3066.0,0.0282774
3068.0,0.0282998
3070.0,0.0283223
3072.0,0.0283447
3074.0,0.0283671
3076.0,0.0283895
3078.0,0.0284119
3080.0,0.0284343
3082.0,0.0284567
3084.0,0.0284791
3086.0,0.0285016
3088.0,0.028524
3090.0,0.0285464
3092.0,0.0285688
3094.0,0.0285913
3096.0,0.0286137
3098.0,0.0286361
3100.0,0.0286586
3102.0,0.0286777
3104.0,0.0286969
3106.0,0.0287161
3108.0,0.0287352
3110.0,0.0287544
3112.0,0.0287736
3114.0,0.0287928
3116.0,0.028812
3118.0,0.0288312
3120.0,0.0288503
3122.0,0.0288695
3124.0,0.0288887
3126.0,0.0289079
3128.0,0.0289271
3130.0,0.0289463
3132.0,0.0289655
3134.0,0.0289846
3136.0,0.0290038
3138.0,0.029023
3140.0,0.0290422
3142.0,0.0290614
3144.0,0.0290807
3146.0,0.0290999
3148.0,0.0291191
3150.0,0.0291383
3152.0,0.0291589
3154.0,0.0291795
3156.0,0.0292001
3158.0,0.0292207
3160.0,0.0292413
3162.0,0.0292619
3164.0,0.0292825
3166.0,0.0293031
3168.0,0.0293237
3170.0,0.0293443
3172.0,0.029365
3174.0,0.0293856
3176.0,0.0294062
3178.0,0.0294268
3180.0,0.0294475
3182.0,0.0294681
3184.0,0.0294888
3186.0,0.0295095
3188.0,0.0295301
3190.0,0.0295508
3192.0,0.0295715
3194.0,0.0295921
3196.0,0.0296128
3198.0,0.0296335
3200.0,0.0296542
3202.0,0.0296679
3204.0,0.0296815
3206.0,0.0296951
3208.0,0.0297088
3210.0,0.0297224
3212.0,0.029736
3214.0,0.0297497
3216.0,0.0297633
3218.0,0.029777
3220.0,0.0297906
3222.0,0.0298043
3224.0,0.029818
3226.0,0.0298316
3228.0,0.0298453
3230.0,0.029859
3232.0,0.0298726
3234.0,0.0298863
3236.0,0.0299
3238.0,0.0299137
3240.0,0.0299273
3242.0,0.029941
3244.0,0.0299547
3246.0,0.0299684
3248.0,0.0299821
3250.0,0.0299958
3252.0,0.0300101
3254.0,0.0300245
3256.0,0.0300388
3258.0,0.0300532
3260.0,0.0300675
3262.0,0.0300819
3264.0,0.0300962
3266.0,0.0301106
3268.0,0.0301249
3270.0,0.0301393
3272.0,0.0301537
3274.0,0.0301681
3276.0,0.0301825
3278.0,0.0301968
3280.0,0.0302112
3282.0,0.0302256
3284.0,0.0302401
3286.0,0.0302545
3288.0,0.0302689
3290.0,0.0302833
3292.0,0.0302978
3294.0,0.0303122
3296.0,0.0303267
3298.0,0.0303411
3300.0,0.0303556
3302.0,0.0303735
3304.0,0.0303914
3306.0,0.0304093
3308.0,0.0304273
3310.0,0.0304452
3312.0,0.0304632
3314.0,0.0304812
3316.0,0.0304992
3318.0,0.0305172
3320.0,0.0305352
3322.0,0.0305532
3324.0,0.0305713
3326.0,0.0305893
3328.0,0.0306074
3330.0,0.0306254
3332.0,0.0306435
3334.0,0.0306616
3336.0,0.0306797
3338.0,0.0306978
3340.0,0.0307158
3342.0,0.030734
3344.0,0.0307521
3346.0,0.0307702
3348.0,0.0307883
3350.0,0.0308065
3352.0,0.0308207
3354.0,0.030835
3356.0,0.0308492
3358.0,0.0308634
3360.0,0.0308777
3362.0,0.0308919
3364.0,0.0309062
3366.0,0.0309205
3368.0,0.0309348
3370.0,0.0309491
3372.0,0.0309634
3374.0,0.0309778
3376.0,0.0309921
3378.0,0.0310065
3380.0,0.0310208
3382.0,0.0310352
3384.0,0.0310496
3386.0,0.031064
3388.0,0.0310785
3390.0,0.0310929
3392.0,0.0311073
3394.0,0.0311218
3396.0,0.0311362
3398.0,0.0311507
3400.0,0.0311651
3402.0,0.0311681
3404.0,0.0311711
3406.0,0.031174
3408.0,0.031177
3410.0,0.0311799
3412.0,0.0311829
3414.0,0.0311859
3416.0,0.0311888
3418.0,0.0311918
3420.0,0.0311948
3422.0,0.0311978
3424.0,0.0312009
3426.0,0.0312039
3428.0,0.0312069
3430.0,0.03121
3432.0,0.0312131
3434.0,0.0312161
3436.0,0.0312192
3438.0,0.0312223
