Wavelength,Transmission
1000.0,2.63632e-05
1010.0,3.82373e-05
1020.0,4.37973e-05
1030.0,4.44992e-05
1040.0,4.1752e-05
1050.0,3.47311e-05
1060.0,3.00413e-05
1070.0,2.81586e-05
1080.0,2.7757e-05
1090.0,2.96236e-05
1100.0,3.73571e-05
1110.0,6.09686e-05
1120.0,0.000122769
1130.0,0.000181968
1140.0,0.000238495
1150.0,0.000292298
1152.0,0.00034525
1154.0,0.000403013
1156.0,0.000465774
1158.0,0.000533722
1160.0,0.000607046
1162.0,0.000683772
1164.0,0.00075784
1166.0,0.000836004
1168.0,0.000918354
1170.0,0.00100498
1172.0,0.00109163
1174.0,0.0011822
1176.0,0.00127676
1178.0,0.00137539
1180.0,0.00147817
1182.0,0.00157789
1184.0,0.00168115
1186.0,0.00178802
1188.0,0.00189854
1190.0,0.00201277
1192.0,0.00211708
1194.0,0.002224
1196.0,0.00233355
1198.0,0.00244576
1200.0,0.00256065
1202.0,0.00264967
1204.0,0.00274091
1206.0,0.00283439
1208.0,0.00293017
1210.0,0.00302826
1212.0,0.00312964
1214.0,0.00323346
1216.0,0.00333976
1218.0,0.0034155
1220.0,0.0034923
1222.0,0.00357035
1224.0,0.00364948
1226.0,0.00372969
1228.0,0.003811
1230.0,0.00389341
1232.0,0.00397479
1234.0,0.00405721
1236.0,0.00414065
1238.0,0.00422514
1240.0,0.00431067
1242.0,0.00439107
1244.0,0.00447234
1246.0,0.00455448
1248.0,0.00463748
1250.0,0.00472136
1252.0,0.00479336
1254.0,0.00486597
1256.0,0.00493918
1258.0,0.005013
1260.0,0.00508743
1262.0,0.00515618
1264.0,0.0052254
1266.0,0.00529509
1268.0,0.00536525
1270.0,0.00543588
1272.0,0.00549932
1274.0,0.00556309
1276.0,0.00562719
1278.0,0.00569161
1280.0,0.00575635
1282.0,0.005814
1284.0,0.00587186
1286.0,0.00592993
1288.0,0.0059882
1290.0,0.00604669
1292.0,0.00610512
1294.0,0.00616374
1296.0,0.00622256
1298.0,0.00628158
1300.0,0.00634078
1302.0,0.00638693
1304.0,0.00643319
1306.0,0.00647956
1308.0,0.00652606
1310.0,0.00657266
1312.0,0.00661536
1314.0,0.00665816
1316.0,0.00670106
1318.0,0.00674405
1320.0,0.00678714
1322.0,0.00681617
1324.0,0.00684522
1326.0,0.0068743
1328.0,0.00690341
1330.0,0.00693255
1332.0,0.00695642
1334.0,0.00698029
1336.0,0.00700417
1338.0,0.00702804
1340.0,0.00705192
1342.0,0.0070762
1344.0,0.00710048
1346.0,0.00712476
1348.0,0.00714905
1350.0,0.00717334
1352.0,0.00720183
1354.0,0.00723034
1356.0,0.00725887
1358.0,0.00728742
1360.0,0.00731598
1362.0,0.00734504
1364.0,0.00737413
1366.0,0.00740323
1368.0,0.00743236
1370.0,0.00746149
1372.0,0.00749054
1374.0,0.00751961
1376.0,0.00754869
1378.0,0.00757779
1380.0,0.00760691
1382.0,0.00763565
1384.0,0.0076644
1386.0,0.00769316
1388.0,0.00772194
1390.0,0.00775073
1392.0,0.00778113
1394.0,0.00781155
1396.0,0.00784198
1398.0,0.00787244
1400.0,0.00790291
1402.0,0.00793939
1404.0,0.0079759
1406.0,0.00801245
1408.0,0.00804904
1410.0,0.00808566
1412.0,0.00812406
1414.0,0.0081625
1416.0,0.00820098
1418.0,0.0082395
1420.0,0.00827807
1422.0,0.00831749
1424.0,0.00835695
1426.0,0.00839645
1428.0,0.00843599
1430.0,0.00847558
1432.0,0.00851585
1434.0,0.00855617
1436.0,0.0085947
1438.0,0.00863143
1440.0,0.00866816
1442.0,0.0087068
1444.0,0.00874545
1446.0,0.0087841
1448.0,0.00882275
1450.0,0.00886142
1452.0,0.00890144
1454.0,0.00894147
1456.0,0.0089815
1458.0,0.00902154
1460.0,0.00906157
1462.0,0.00910327
1464.0,0.00914497
1466.0,0.00918666
1468.0,0.00922835
1470.0,0.00927003
1472.0,0.00931133
1474.0,0.00935261
1476.0,0.00939387
1478.0,0.00943511
1480.0,0.00947634
1482.0,0.00951675
1484.0,0.00955712
1486.0,0.00959746
1488.0,0.00963777
1490.0,0.00967804
1492.0,0.00972097
1494.0,0.00976386
1496.0,0.00980669
1498.0,0.00984948
1500.0,0.00989223
1502.0,0.00993233
1504.0,0.00997233
1506.0,0.0100122
1508.0,0.010052
1510.0,0.0100917
1512.0,0.010133
1514.0,0.0101742
1516.0,0.0102152
1518.0,0.0102561
1520.0,0.0102969
1522.0,0.0103294
1524.0,0.0103616
1526.0,0.0103938
1528.0,0.0104258
1530.0,0.0104578
1532.0,0.0104827
1534.0,0.0105076
1536.0,0.0105323
1538.0,0.0105569
1540.0,0.0105814
1542.0,0.0106025
1544.0,0.0106235
1546.0,0.0106443
1548.0,0.0106651
1550.0,0.0106857
1552.0,0.010701
1554.0,0.0107162
1556.0,0.0107312
1558.0,0.0107462
1560.0,0.010761
1562.0,0.0107735
1564.0,0.0107858
1566.0,0.0107981
1568.0,0.0108102
1570.0,0.0108223
1572.0,0.0108313
1574.0,0.0108402
1576.0,0.0108491
1578.0,0.0108578
1580.0,0.0108665
1582.0,0.0108726
1584.0,0.0108785
1586.0,0.0108844
1588.0,0.0108903
1590.0,0.010896
1592.0,0.0109007
1594.0,0.0109054
1596.0,0.0109099
1598.0,0.0109144
1600.0,0.0109189
1602.0,0.0108978
1604.0,0.0108767
1606.0,0.0108556
1608.0,0.0108345
1610.0,0.0108222
1612.0,0.0108105
1614.0,0.0107988
1616.0,0.0107871
1618.0,0.0107753
1620.0,0.0107635
1622.0,0.0107554
1624.0,0.0107471
1626.0,0.0107389
1628.0,0.0107307
1630.0,0.0107224
1632.0,0.0107177
1634.0,0.0107129
1636.0,0.0107082
1638.0,0.0107034
1640.0,0.0106986
1642.0,0.0106979
1644.0,0.0106972
1646.0,0.0106966
1648.0,0.0106958
1650.0,0.0106951
1652.0,0.0106957
1654.0,0.0106962
1656.0,0.0106967
1658.0,0.0106972
1660.0,0.0106976
1662.0,0.0107022
1664.0,0.0107069
1666.0,0.0107114
1668.0,0.010716
1670.0,0.0107205
1672.0,0.0107276
1674.0,0.0107346
1676.0,0.0107416
1678.0,0.0107485
1680.0,0.0107555
1682.0,0.0107644
1684.0,0.0107733
1686.0,0.0107822
1688.0,0.010791
1690.0,0.0107998
1692.0,0.0108117
1694.0,0.0108236
1696.0,0.0108354
1698.0,0.0108471
1700.0,0.0108589
1702.0,0.0108589
1704.0,0.0108588
1706.0,0.0108586
1708.0,0.0108583
1710.0,0.0108578
1712.0,0.0108592
1714.0,0.0108605
1716.0,0.0108616
1718.0,0.0108626
1720.0,0.0108635
1722.0,0.0108621
1724.0,0.0108605
1726.0,0.0108589
1728.0,0.0108571
1730.0,0.0108552
1732.0,0.0108503
1734.0,0.0108454
1736.0,0.0108403
1738.0,0.0108351
1740.0,0.0108298
1742.0,0.0108262
1744.0,0.0108226
1746.0,0.0108188
1748.0,0.0108148
1750.0,0.0108108
1752.0,0.0108086
1754.0,0.0108062
1756.0,0.0108036
1758.0,0.0108009
1760.0,0.0107981
1762.0,0.0107966
1764.0,0.010795
1766.0,0.0107932
1768.0,0.0107912
1770.0,0.0107891
1772.0,0.0107838
1774.0,0.0107783
1776.0,0.0107727
1778.0,0.0107669
1780.0,0.0107609
1782.0,0.0107521
1784.0,0.0107431
1786.0,0.010734
1788.0,0.0107247
1790.0,0.0107152
1792.0,0.0107057
1794.0,0.010696
1796.0,0.0106862
1798.0,0.0106762
1800.0,0.010666
1802.0,0.0106954
1804.0,0.0107249
1806.0,0.0107544
1808.0,0.010784
1810.0,0.0108135
1812.0,0.0108436
1814.0,0.0108736
1816.0,0.0109037
1818.0,0.0109339
1820.0,0.010964
1822.0,0.0109944
1824.0,0.0110248
1826.0,0.0110552
1828.0,0.0110856
1830.0,0.0111161
1832.0,0.0111469
1834.0,0.0111777
1836.0,0.0112086
1838.0,0.0112395
1840.0,0.0112705
1842.0,0.0113009
1844.0,0.0113314
1846.0,0.0113619
1848.0,0.0113925
1850.0,0.0114231
1852.0,0.0114518
1854.0,0.0114805
1856.0,0.0115092
1858.0,0.011538
1860.0,0.0115667
1862.0,0.0115949
1864.0,0.0116231
1866.0,0.0116514
1868.0,0.0116796
1870.0,0.0117079
1872.0,0.0117362
1874.0,0.0117645
1876.0,0.0117928
1878.0,0.0118212
1880.0,0.0118496
1882.0,0.0118778
1884.0,0.0119061
1886.0,0.0119343
1888.0,0.0119626
1890.0,0.0119909
1892.0,0.0120194
1894.0,0.0120479
1896.0,0.0120765
1898.0,0.012105
1900.0,0.0121336
1902.0,0.0121974
1904.0,0.0122613
1906.0,0.0123254
1908.0,0.0123897
1910.0,0.0124542
1912.0,0.0125191
1914.0,0.0125842
1916.0,0.0126495
1918.0,0.012715
1920.0,0.0127807
1922.0,0.0128472
1924.0,0.012914
1926.0,0.0129809
1928.0,0.0130481
1930.0,0.0131154
1932.0,0.0131838
1934.0,0.0132524
1936.0,0.0133212
1938.0,0.0133902
1940.0,0.0134594
1942.0,0.0135282
1944.0,0.0135972
1946.0,0.0136664
1948.0,0.0137358
1950.0,0.0138054
1952.0,0.013874
1954.0,0.0139427
1956.0,0.0140117
1958.0,0.0140808
1960.0,0.0141501
1962.0,0.0142225
1964.0,0.0142989
1966.0,0.0143756
1968.0,0.0144525
1970.0,0.0145297
1972.0,0.0146058
1974.0,0.014682
1976.0,0.0147585
1978.0,0.0148353
1980.0,0.0149123
1982.0,0.0149874
1984.0,0.0150628
1986.0,0.0151384
1988.0,0.0152142
1990.0,0.0152902
1992.0,0.0153687
1994.0,0.0154475
1996.0,0.0155265
1998.0,0.0156057
2000.0,0.0156852
2002.0,0.0157669
2004.0,0.0158489
2006.0,0.0159312
2008.0,0.0160137
2010.0,0.0160964
2012.0,0.0161819
2014.0,0.0162676
2016.0,0.0163536
2018.0,0.0164399
2020.0,0.0165265
2022.0,0.0166112
2024.0,0.0166963
2026.0,0.0167815
2028.0,0.0168671
2030.0,0.0169529
2032.0,0.0170374
2034.0,0.017122
2036.0,0.017207
2038.0,0.0172922
2040.0,0.0173776
2042.0,0.0174628
2044.0,0.0175482
2046.0,0.0176339
2048.0,0.0177199
2050.0,0.0178061
2052.0,0.0178946
2054.0,0.0179835
2056.0,0.0180725
2058.0,0.0181619
2060.0,0.0182515
2062.0,0.0183408
2064.0,0.0184304
2066.0,0.0185202
2068.0,0.0186103
2070.0,0.0187007
2072.0,0.0187902
2074.0,0.0188799
2076.0,0.0189698
2078.0,0.01906
2080.0,0.0191505
2082.0,0.01924
2084.0,0.0193298
2086.0,0.0194199
2088.0,0.0195101
2090.0,0.0196007
2092.0,0.0196904
2094.0,0.0197804
2096.0,0.0198706
2098.0,0.0199611
2100.0,0.0200518
2102.0,0.0201444
2104.0,0.0202373
2106.0,0.0203305
2108.0,0.0204239
2110.0,0.0205175
2112.0,0.0206106
2114.0,0.020704
2116.0,0.0207976
2118.0,0.0208915
2120.0,0.0209856
2122.0,0.0210815
2124.0,0.0211776
2126.0,0.0212741
2128.0,0.0213708
2130.0,0.0214677
2132.0,0.0215665
2134.0,0.0216656
2136.0,0.0217649
2138.0,0.0218645
2140.0,0.0219644
2142.0,0.0220635
2144.0,0.0221628
2146.0,0.0222625
2148.0,0.0223624
2150.0,0.0224626
2152.0,0.0225652
2154.0,0.0226681
2156.0,0.0227713
2158.0,0.0228747
2160.0,0.0229784
2162.0,0.0230806
2164.0,0.0231831
2166.0,0.0232858
2168.0,0.0233888
2170.0,0.023492
2172.0,0.0235929
2174.0,0.023694
2176.0,0.0237954
2178.0,0.023897
2180.0,0.0239988
2182.0,0.0240979
2184.0,0.0241973
2186.0,0.0242969
2188.0,0.0243967
2190.0,0.0244967
2192.0,0.024596
2194.0,0.0246954
2196.0,0.0247951
2198.0,0.0248949
2200.0,0.024995
2202.0,0.0250867
2204.0,0.0251786
2206.0,0.0252707
2208.0,0.0253629
2210.0,0.0254553
2212.0,0.0255465
2214.0,0.0256378
2216.0,0.0257293
2218.0,0.0258209
2220.0,0.0259127
2222.0,0.0259995
2224.0,0.0260865
2226.0,0.0261736
2228.0,0.0262608
2230.0,0.0263481
2232.0,0.0264299
2234.0,0.0265117
2236.0,0.0265936
2238.0,0.0266756
2240.0,0.0267577
2242.0,0.0268408
2244.0,0.0269239
2246.0,0.0270072
2248.0,0.0270906
2250.0,0.027174
2252.0,0.0272691
2254.0,0.0273642
2256.0,0.0274596
2258.0,0.027555
2260.0,0.0276507
2262.0,0.0277474
2264.0,0.0278443
2266.0,0.0279413
2268.0,0.0280386
2270.0,0.0281359
2272.0,0.028228
2274.0,0.0283202
2276.0,0.0284125
2278.0,0.028505
2280.0,0.0285976
2282.0,0.0286855
2284.0,0.0287736
2286.0,0.0288618
2288.0,0.0289501
2290.0,0.0290385
2292.0,0.0291245
2294.0,0.0292106
2296.0,0.0292969
2298.0,0.0293832
2300.0,0.0294696
2302.0,0.0295609
2304.0,0.0296524
2306.0,0.0297439
2308.0,0.0298355
2310.0,0.0299272
2312.0,0.030017
2314.0,0.0301069
2316.0,0.0301968
2318.0,0.0302868
2320.0,0.0303769
2322.0,0.0304652
2324.0,0.0305535
2326.0,0.0306419
2328.0,0.0307304
2330.0,0.0308189
2332.0,0.0309053
2334.0,0.0309918
2336.0,0.0310783
2338.0,0.0311648
2340.0,0.0312514
2342.0,0.0313385
2344.0,0.0314257
2346.0,0.0315129
2348.0,0.0316002
2350.0,0.0316875
2352.0,0.0317842
2354.0,0.0318809
2356.0,0.0319777
2358.0,0.0320746
2360.0,0.0321716
2362.0,0.0322693
2364.0,0.032367
2366.0,0.0324648
2368.0,0.0325627
2370.0,0.0326607
2372.0,0.0327568
2374.0,0.032853
2376.0,0.0329493
2378.0,0.0330457
2380.0,0.0331421
2382.0,0.0332373
2384.0,0.0333325
2386.0,0.0334278
2388.0,0.0335231
2390.0,0.0336186
2392.0,0.0337122
2394.0,0.0338059
2396.0,0.0338996
2398.0,0.0339934
2400.0,0.0340872
2402.0,0.0341575
2404.0,0.0342278
2406.0,0.0342982
2408.0,0.0343686
2410.0,0.034439
2412.0,0.0345075
2414.0,0.0345761
2416.0,0.0346446
2418.0,0.0347132
2420.0,0.0347818
2422.0,0.0348483
2424.0,0.0349148
2426.0,0.0349813
2428.0,0.0350478
2430.0,0.0351143
2432.0,0.0351781
2434.0,0.0352418
2436.0,0.0353056
2438.0,0.0353693
2440.0,0.035433
2442.0,0.0354988
2444.0,0.0355647
2446.0,0.0356305
2448.0,0.0356963
2450.0,0.0357621
2452.0,0.0358383
2454.0,0.0359145
2456.0,0.0359907
2458.0,0.0360669
2460.0,0.0361432
2462.0,0.0362215
2464.0,0.0362999
2466.0,0.0363783
2468.0,0.0364567
2470.0,0.0365352
2472.0,0.0366092
2474.0,0.0366832
2476.0,0.0367572
2478.0,0.0368313
2480.0,0.0369053
2482.0,0.0369754
2484.0,0.0370455
2486.0,0.0371156
2488.0,0.0371856
2490.0,0.0372557
2492.0,0.0373258
2494.0,0.0373959
2496.0,0.037466
2498.0,0.0375361
2500.0,0.0376062
2502.0,0.0376812
2504.0,0.0377563
2506.0,0.0378313
2508.0,0.0379064
2510.0,0.0379814
2512.0,0.0380575
2514.0,0.0381336
2516.0,0.0382098
2518.0,0.0382859
2520.0,0.0383621
2522.0,0.0384414
2524.0,0.0385207
2526.0,0.0386001
2528.0,0.0386795
2530.0,0.0387589
2532.0,0.0388422
2534.0,0.0389256
2536.0,0.0390091
2538.0,0.0390925
2540.0,0.039176
2542.0,0.0392566
2544.0,0.0393372
2546.0,0.0394178
2548.0,0.0394985
2550.0,0.0395792
2552.0,0.0396546
2554.0,0.0397301
2556.0,0.0398055
2558.0,0.0398809
2560.0,0.0399564
2562.0,0.0400287
2564.0,0.0401011
2566.0,0.0401734
2568.0,0.0402457
2570.0,0.040318
2572.0,0.0403941
2574.0,0.0404702
2576.0,0.0405463
2578.0,0.0406224
2580.0,0.0406986
2582.0,0.0407778
2584.0,0.0408571
2586.0,0.0409364
2588.0,0.0410157
2590.0,0.0410951
2592.0,0.0411754
2594.0,0.0412557
2596.0,0.041336
2598.0,0.0414163
2600.0,0.0414966
2602.0,0.0415756
2604.0,0.0416545
2606.0,0.0417335
2608.0,0.0418125
2610.0,0.0418915
2612.0,0.041971
2614.0,0.0420505
2616.0,0.04213
2618.0,0.0422096
2620.0,0.0422892
2622.0,0.0423678
2624.0,0.0424465
2626.0,0.0425251
2628.0,0.0426038
2630.0,0.0426825
2632.0,0.04276
2634.0,0.0428375
2636.0,0.042915
2638.0,0.0429926
2640.0,0.0430701
2642.0,0.0431493
2644.0,0.0432286
2646.0,0.0433079
2648.0,0.0433872
2650.0,0.0434665
2652.0,0.043551
2654.0,0.0436355
2656.0,0.04372
2658.0,0.0438046
2660.0,0.0438893
2662.0,0.0439749
2664.0,0.0440606
2666.0,0.0441464
2668.0,0.0442321
2670.0,0.044318
2672.0,0.0443977
2674.0,0.0444775
2676.0,0.0445572
2678.0,0.044637
2680.0,0.0447169
2682.0,0.0447903
2684.0,0.0448637
2686.0,0.0449371
2688.0,0.0450105
2690.0,0.0450839
2692.0,0.0451595
2694.0,0.0452352
2696.0,0.0453108
2698.0,0.0453864
2700.0,0.0454621
2702.0,0.0455455
2704.0,0.0456289
2706.0,0.0457124
2708.0,0.045796
2710.0,0.0458795
2712.0,0.0459653
2714.0,0.0460512
2716.0,0.0461371
2718.0,0.046223
2720.0,0.046309
2722.0,0.0463881
2724.0,0.0464672
2726.0,0.0465464
2728.0,0.0466255
2730.0,0.0467047
2732.0,0.0467769
2734.0,0.046849
2736.0,0.0469212
2738.0,0.0469933
2740.0,0.0470654
2742.0,0.0471402
2744.0,0.0472149
2746.0,0.0472897
2748.0,0.0473644
2750.0,0.0474392
2752.0,0.0475205
2754.0,0.0476018
2756.0,0.0476831
2758.0,0.0477645
2760.0,0.047846
2762.0,0.0479309
2764.0,0.048016
2766.0,0.048101
2768.0,0.0481862
2770.0,0.0482713
2772.0,0.0483563
2774.0,0.0484413
2776.0,0.0485264
2778.0,0.0486115
2780.0,0.0486967
2782.0,0.0487832
2784.0,0.0488698
2786.0,0.0489564
2788.0,0.049043
2790.0,0.0491298
2792.0,0.0492119
2794.0,0.049294
2796.0,0.0493762
2798.0,0.0494584
2800.0,0.0495406
2802.0,0.0496223
2804.0,0.0497039
2806.0,0.0497856
2808.0,0.0498672
2810.0,0.0499489
2812.0,0.0500265
2814.0,0.0501041
2816.0,0.0501817
2818.0,0.0502593
2820.0,0.0503369
2822.0,0.0504209
2824.0,0.0505048
2826.0,0.0505888
2828.0,0.0506728
2830.0,0.0507569
2832.0,0.0508459
2834.0,0.050935
2836.0,0.0510241
2838.0,0.0511132
2840.0,0.0512023
2842.0,0.0512954
2844.0,0.0513886
2846.0,0.0514817
2848.0,0.051575
2850.0,0.0516682
2852.0,0.0517666
2854.0,0.051865
2856.0,0.0519636
2858.0,0.0520621
2860.0,0.0521608
2862.0,0.0522617
2864.0,0.0523628
2866.0,0.0524639
2868.0,0.052565
2870.0,0.0526663
2872.0,0.0527605
2874.0,0.0528549
2876.0,0.0529492
2878.0,0.0530436
2880.0,0.0531381
2882.0,0.053226
2884.0,0.053314
2886.0,0.053402
2888.0,0.05349
2890.0,0.0535781
2892.0,0.0536654
2894.0,0.0537527
2896.0,0.0538401
2898.0,0.0539274
2900.0,0.0540148
2902.0,0.054103
2904.0,0.0541913
2906.0,0.0542796
2908.0,0.0543679
2910.0,0.0544562
2912.0,0.0545438
2914.0,0.0546314
2916.0,0.054719
2918.0,0.0548067
2920.0,0.0548943
2922.0,0.0549751
2924.0,0.0550559
2926.0,0.0551367
2928.0,0.0552175
2930.0,0.0552983
2932.0,0.0553713
2934.0,0.0554444
2936.0,0.0555174
2938.0,0.0555904
2940.0,0.0556634
2942.0,0.0557395
2944.0,0.0558157
2946.0,0.0558918
2948.0,0.055968
2950.0,0.0560441
2952.0,0.0561287
2954.0,0.0562134
2956.0,0.0562981
2958.0,0.0563828
2960.0,0.0564676
2962.0,0.0565551
2964.0,0.0566428
2966.0,0.0567304
2968.0,0.0568181
2970.0,0.0569058
2972.0,0.0569818
2974.0,0.0570578
2976.0,0.0571338
2978.0,0.0572098
2980.0,0.0572858
2982.0,0.0573499
2984.0,0.057414
2986.0,0.0574781
2988.0,0.0575421
2990.0,0.0576061
2992.0,0.0576733
2994.0,0.0577405
2996.0,0.0578077
2998.0,0.0578749
3000.0,0.057942
3002.0,0.0579808
3004.0,0.0580196
3006.0,0.0580584
3008.0,0.0580972
3010.0,0.058136
3012.0,0.0581795
3014.0,0.0582231
3016.0,0.0582667
3018.0,0.0583103
3020.0,0.0583538
3022.0,0.0583953
3024.0,0.0584368
3026.0,0.0584783
3028.0,0.0585198
3030.0,0.0585613
3032.0,0.0586015
3034.0,0.0586416
3036.0,0.0586818
3038.0,0.058722
3040.0,0.0587622
3042.0,0.0588029
3044.0,0.0588437
3046.0,0.0588845
3048.0,0.0589253
3050.0,0.0589661
3052.0,0.0590081
3054.0,0.05905
3056.0,0.059092
3058.0,0.0591339
3060.0,0.0591759
3062.0,0.0592177
3064.0,0.0592595
3066.0,0.0593013
3068.0,0.0593431
3070.0,0.059385
3072.0,0.0594198
3074.0,0.0594547
3076.0,0.0594895
3078.0,0.0595244
3080.0,0.0595592
3082.0,0.0595865
3084.0,0.0596137
3086.0,0.059641
3088.0,0.0596682
3090.0,0.0596954
3092.0,0.0597254
3094.0,0.0597554
3096.0,0.0597854
3098.0,0.0598153
3100.0,0.0598453
3102.0,0.0598807
3104.0,0.0599162
3106.0,0.0599516
3108.0,0.0599871
3110.0,0.0600225
3112.0,0.0600607
3114.0,0.0600988
3116.0,0.0601369
3118.0,0.0601751
3120.0,0.0602133
3122.0,0.0602518
3124.0,0.0602904
3126.0,0.060329
3128.0,0.0603675
3130.0,0.0604061
3132.0,0.0604428
3134.0,0.0604795
3136.0,0.0605162
3138.0,0.0605529
3140.0,0.0605897
3142.0,0.0606222
3144.0,0.0606548
3146.0,0.0606873
3148.0,0.0607198
3150.0,0.0607524
3152.0,0.0607741
3154.0,0.0607958
3156.0,0.0608175
3158.0,0.0608392
3160.0,0.0608609
3162.0,0.0608773
3164.0,0.0608936
3166.0,0.0609099
3168.0,0.0609262
3170.0,0.0609425
3172.0,0.0609573
3174.0,0.0609722
3176.0,0.060987
3178.0,0.0610018
3180.0,0.0610166
3182.0,0.061034
3184.0,0.0610514
3186.0,0.0610687
3188.0,0.061086
3190.0,0.0611034
3192.0,0.0611272
3194.0,0.0611511
3196.0,0.0611749
3198.0,0.0611987
3200.0,0.0612226
3202.0,0.0612445
3204.0,0.0612665
3206.0,0.0612884
3208.0,0.0613104
3210.0,0.0613324
3212.0,0.0613602
3214.0,0.061388
3216.0,0.0614158
3218.0,0.0614437
3220.0,0.0614715
3222.0,0.0615024
3224.0,0.0615333
3226.0,0.0615642
3228.0,0.0615951
3230.0,0.061626
3232.0,0.061657
3234.0,0.0616881
3236.0,0.0617192
3238.0,0.0617503
3240.0,0.0617814
3242.0,0.0618099
3244.0,0.0618383
3246.0,0.0618668
3248.0,0.0618952
3250.0,0.0619237
3252.0,0.0619458
3254.0,0.061968
3256.0,0.0619901
3258.0,0.0620123
3260.0,0.0620344
3262.0,0.0620559
3264.0,0.0620774
3266.0,0.0620989
3268.0,0.0621203
3270.0,0.0621418
3272.0,0.0621625
3274.0,0.0621832
3276.0,0.0622038
3278.0,0.0622245
3280.0,0.0622452
3282.0,0.0622649
3284.0,0.0622846
3286.0,0.0623043
3288.0,0.062324
3290.0,0.0623437
3292.0,0.0623623
3294.0,0.0623809
3296.0,0.0623995
3298.0,0.0624181
3300.0,0.0624367
3302.0,0.0624514
3304.0,0.0624662
3306.0,0.0624809
3308.0,0.0624957
3310.0,0.0625104
3312.0,0.0625232
3314.0,0.062536
3316.0,0.0625488
3318.0,0.0625616
3320.0,0.0625744
3322.0,0.0625866
3324.0,0.0625988
3326.0,0.0626111
3328.0,0.0626233
3330.0,0.0626355
3332.0,0.0626486
3334.0,0.0626618
3336.0,0.0626749
3338.0,0.062688
3340.0,0.0627012
3342.0,0.0627167
3344.0,0.0627322
3346.0,0.0627477
3348.0,0.0627632
3350.0,0.0627787
3352.0,0.0627989
3354.0,0.062819
3356.0,0.0628392
3358.0,0.0628594
3360.0,0.0628795
3362.0,0.0629019
3364.0,0.0629242
3366.0,0.0629466
3368.0,0.062969
3370.0,0.0629913
3372.0,0.0630148
3374.0,0.0630383
3376.0,0.0630618
3378.0,0.0630853
3380.0,0.0631088
3382.0,0.0631323
3384.0,0.0631558
3386.0,0.0631794
3388.0,0.0632029
3390.0,0.0632264
3392.0,0.0632488
3394.0,0.0632713
3396.0,0.0632937
3398.0,0.0633161
3400.0,0.0633385
3402.0,0.0633379
3404.0,0.0633372
3406.0,0.0633366
3408.0,0.0633359
3410.0,0.0633353
3412.0,0.0633332
3414.0,0.0633312
3416.0,0.0633291
3418.0,0.0633271
3420.0,0.063325
3422.0,0.0633231
3424.0,0.0633212
3426.0,0.0633194
3428.0,0.0633175
3430.0,0.0633156
3432.0,0.0633154
3434.0,0.0633153
3436.0,0.0633151
3438.0,0.063315
3440.0,0.0633148
3442.0,0.0633179
3444.0,0.0633211
3446.0,0.0633242
3448.0,0.0633273
3450.0,0.0633304
3452.0,0.0633372
3454.0,0.0633441
3456.0,0.063351
