Wavelength,Transmission
1160.0,0.000115934
1162.0,0.000159134
1170.0,0.00027047
1180.0,0.000387039
1190.0,0.00052504
1200.0,0.000701699
1210.0,0.000908482
1216.0,0.0010523
1220.0,0.00113147
1230.0,0.00136582
1240.0,0.00157466
1250.0,0.00176169
1260.0,0.00193387
1270.0,0.00203995
1280.0,0.0021306
1290.0,0.00216926
1300.0,0.00220249
1310.0,0.002237
1320.0,0.00226651
1330.0,0.00230684
1340.0,0.00234305
1350.0,0.00239231
1360.0,0.00243187
1370.0,0.0024824
1380.0,0.00252241
1390.0,0.00256203
1400.0,0.0025942
1410.0,0.00261896
1420.0,0.00263882
1430.0,0.00266051
1435.0,0.00266922
1440.0,0.00267319
1450.0,0.00268566
1460.0,0.00269403
1470.0,0.00270061
1480.0,0.00270374
1490.0,0.00271899
1500.0,0.00273092
1510.0,0.00275947
1520.0,0.00278477
1530.0,0.00280284
1540.0,0.00281688
1550.0,0.00280331
1560.0,0.00278717
1570.0,0.00274605
1580.0,0.00270483
1590.0,0.00266183
1600.0,0.00262026
1608.0,0.00257643
1610.0,0.00256756
1620.0,0.00252618
1630.0,0.00248847
1640.0,0.00248308
1650.0,0.00248185
1660.0,0.00248518
1670.0,0.00249301
1680.0,0.00250486
1690.0,0.00252023
1700.0,0.00253872
1710.0,0.00255995
1720.0,0.00258355
1730.0,0.00260906
1740.0,0.00263604
1750.0,0.00266417
1760.0,0.00269566
1770.0,0.00272793
1780.0,0.00276099
1790.0,0.00279486
1800.0,0.00282964
1810.0,0.00286543
1820.0,0.00290234
1830.0,0.00294051
1840.0,0.00298007
1850.0,0.00302116
1860.0,0.00306392
1870.0,0.00310853
1880.0,0.00315514
1890.0,0.00320392
1900.0,0.00325507
1910.0,0.00330872
1920.0,0.00336486
1930.0,0.00342322
1940.0,0.00348369
1950.0,0.00354618
1960.0,0.00361061
1961.0,0.0036172
1970.0,0.00368436
1980.0,0.00376095
1990.0,0.00383945
2000.0,0.00391975
2010.0,0.00399367
2020.0,0.00406887
2030.0,0.00414517
2040.0,0.00422241
2050.0,0.00430048
2060.0,0.00437913
2070.0,0.00445814
2080.0,0.00453721
2090.0,0.0046161
2100.0,0.00469453
2110.0,0.00477234
2120.0,0.00485009
2130.0,0.00492849
2140.0,0.00500827
2150.0,0.00509021
2160.0,0.0051751
2170.0,0.00526379
2180.0,0.00535714
2190.0,0.00545612
2200.0,0.00556156
2210.0,0.00566732
2220.0,0.00577811
2230.0,0.00589186
2240.0,0.00600646
2250.0,0.00611964
2260.0,0.00622953
2270.0,0.00633554
2280.0,0.00643744
2290.0,0.00653508
2300.0,0.00662831
2310.0,0.00671709
2320.0,0.00680123
2330.0,0.00688042
2340.0,0.00695488
2350.0,0.00702482
2360.0,0.00709046
2370.0,0.00715196
2380.0,0.00720952
2390.0,0.00726339
2400.0,0.00731381
2410.0,0.00736188
2420.0,0.00740698
2430.0,0.00744936
2440.0,0.00748922
2450.0,0.00752734
2460.0,0.00756415
2470.0,0.0075995
2480.0,0.00763324
2490.0,0.00766519
2500.0,0.0076952
2510.0,0.00772306
2520.0,0.00774854
2530.0,0.00777224
2540.0,0.0077944
2550.0,0.00781509
2560.0,0.0078344
2570.0,0.00785242
2580.0,0.00786926
2590.0,0.00788505
2600.0,0.00789988
2610.0,0.00791182
2620.0,0.00792299
2630.0,0.00793349
2640.0,0.00794335
2650.0,0.00795255
2660.0,0.00796106
2670.0,0.00796886
2680.0,0.00797592
2690.0,0.00798226
2700.0,0.00798784
2710.0,0.00799264
2720.0,0.00799662
2730.0,0.00799977
2740.0,0.00800216
2750.0,0.00800419
2760.0,0.00800589
2770.0,0.00800729
2780.0,0.00800837
2790.0,0.00800915
2800.0,0.00800966
2810.0,0.00801104
2820.0,0.00801213
2830.0,0.00801289
2840.0,0.00801329
2850.0,0.0080133
2860.0,0.00801287
2870.0,0.00801195
2880.0,0.00801051
2890.0,0.00800851
2900.0,0.00800595
2910.0,0.00800279
2920.0,0.00799901
2930.0,0.00799453
2940.0,0.0079891
2950.0,0.00798253
2960.0,0.00797491
2970.0,0.00796633
2980.0,0.00795685
2990.0,0.00794658
3000.0,0.00793562
3010.0,0.00792607
3020.0,0.007916
3030.0,0.00790545
3040.0,0.00789451
3050.0,0.00788329
3060.0,0.00787191
3070.0,0.00786039
3080.0,0.00784833
3090.0,0.00783567
3100.0,0.00782244
3110.0,0.00780868
3120.0,0.00779444
3130.0,0.00777977
3140.0,0.0077647
3150.0,0.00774931
3160.0,0.00773361
3170.0,0.00771762
3180.0,0.00770141
3190.0,0.00768504
3200.0,0.00766851
3210.0,0.00764895
3220.0,0.00762937
3230.0,0.00760983
3240.0,0.00759034
3250.0,0.0075709
3260.0,0.00755139
3270.0,0.00753179
3280.0,0.00751214
3290.0,0.00749243
3300.0,0.00747268
3310.0,0.00745291
3320.0,0.00743316
3330.0,0.00741344
3340.0,0.00739378
3350.0,0.00737421
3360.0,0.00735476
3370.0,0.00733549
3380.0,0.00731644
3390.0,0.00729766
3400.0,0.00727915
3410.0,0.00726113
3420.0,0.00724345
3430.0,0.00722619
3440.0,0.00720936
3450.0,0.007193
3460.0,0.00717711
3470.0,0.00716172
3480.0,0.00714692
3490.0,0.00713271
3500.0,0.00711914
3510.0,0.00710621
3520.0,0.00709374
3530.0,0.00708154
3540.0,0.0070694
3550.0,0.00705712
3560.0,0.00704449
3570.0,0.0070313
3580.0,0.00701728
3590.0,0.00700222
3600.0,0.00698595
3610.0,0.00696694
3620.0,0.00694657
3630.0,0.00692489
3640.0,0.00690196
3650.0,0.00687783
3660.0,0.00685257
3670.0,0.00682624
3680.0,0.00679888
3690.0,0.00677056
3700.0,0.00674129
3710.0,0.00671118
3720.0,0.00668024
3730.0,0.00664854
3740.0,0.00661616
3750.0,0.0065831
3760.0,0.00654945
3770.0,0.00651525
3780.0,0.00648055
3790.0,0.00644541
3800.0,0.00640987
3810.0,0.00637394
3820.0,0.00633747
3830.0,0.00630038
3840.0,0.00626256
3850.0,0.00622396
3860.0,0.00618446
3870.0,0.006144
3880.0,0.00610249
3890.0,0.00605984
3900.0,0.00601594
3910.0,0.00597072
3920.0,0.00592406
3930.0,0.0058759
3940.0,0.00582617
3950.0,0.00577476
3960.0,0.00572157
3970.0,0.00566652
3980.0,0.00560952
3990.0,0.00555049
4000.0,0.00548933
4010.0,0.00542496
4020.0,0.00535859
4030.0,0.00529042
4040.0,0.00522065
4050.0,0.00514946
4060.0,0.00507704
4070.0,0.00500359
4080.0,0.0049293
4090.0,0.00485447
4100.0,0.00477935
4110.0,0.0047041
4120.0,0.00462889
4130.0,0.00455389
4140.0,0.0044793
4150.0,0.00440529
4160.0,0.00433204
4170.0,0.00425974
4180.0,0.00418856
4190.0,0.00411867
4200.0,0.00405028
4210.0,0.00398384
4220.0,0.003919
4230.0,0.00385569
4240.0,0.00379385
4250.0,0.00373344
4260.0,0.00367444
4270.0,0.00361681
4280.0,0.0035605
4290.0,0.00350548
4300.0,0.00345169
4310.0,0.00339909
4320.0,0.00334765
4330.0,0.00329733
4340.0,0.00324807
4350.0,0.00319983
4360.0,0.00315255
4370.0,0.00310617
4380.0,0.00306066
4390.0,0.00301596
4400.0,0.00297204
4410.0,0.00292875
4420.0,0.00288614
4430.0,0.00284413
4440.0,0.00280267
4450.0,0.00276171
4460.0,0.00272118
4470.0,0.00268096
4480.0,0.00264099
4490.0,0.0026012
4500.0,0.00256153
4510.0,0.0025219
4520.0,0.00248225
4530.0,0.0024425
4540.0,0.00240262
4550.0,0.00236252
4560.0,0.00232214
4570.0,0.00228141
4580.0,0.00224028
4590.0,0.00219867
4600.0,0.00215654
4610.0,0.00211371
4620.0,0.00207036
4630.0,0.00202654
4640.0,0.00198235
4650.0,0.00193785
4660.0,0.00189313
4670.0,0.00184824
4680.0,0.00180326
4690.0,0.00175826
4700.0,0.00171331
4710.0,0.00166849
4720.0,0.00162387
4730.0,0.00157953
4740.0,0.00153554
4750.0,0.00149198
4760.0,0.00144891
4770.0,0.00140642
4780.0,0.00136458
4790.0,0.00132348
4800.0,0.00128319
4810.0,0.00124366
4820.0,0.00120501
4830.0,0.00116724
4840.0,0.00113033
4850.0,0.00109427
4860.0,0.00105905
4870.0,0.00102466
4880.0,0.000991095
4890.0,0.000958349
4900.0,0.000926408
4910.0,0.000895262
4920.0,0.000864897
4930.0,0.00083531
4940.0,0.000806493
4950.0,0.000778431
4960.0,0.000751115
4970.0,0.000724533
4980.0,0.000698676
4990.0,0.000673538
5000.0,0.000649107
5010.0,0.000625356
5020.0,0.000602294
5030.0,0.00057991
5040.0,0.000558194
5050.0,0.000537136
5060.0,0.000516724
5070.0,0.000496951
5080.0,0.000477806
5090.0,0.000459278
5100.0,0.000441359
5110.0,0.000424037
5120.0,0.000407301
5130.0,0.000391141
5140.0,0.000375547
5150.0,0.000360513
5160.0,0.000346027
5170.0,0.000332081
5180.0,0.000318662
5190.0,0.00030576
5200.0,0.000293366
5210.0,0.000281468
5220.0,0.000270046
5230.0,0.000259082
5240.0,0.000248558
5250.0,0.000238456
5260.0,0.000228756
5270.0,0.00021944
5280.0,0.00021049
5290.0,0.000201887
5300.0,0.000193612
5310.0,0.000185647
5320.0,0.000177973
5330.0,0.000170574
5340.0,0.000163431
5350.0,0.000156525
5360.0,0.000149837
5370.0,0.00014335
5380.0,0.000137047
5390.0,0.00013091
5400.0,0.000124921
5410.0,0.000119075
5420.0,0.000113362
5430.0,0.000107783
5440.0,0.00010234
5450.0,9.70348e-05
5460.0,9.18689e-05
5470.0,8.6844e-05
5480.0,8.19619e-05
5490.0,7.72243e-05
5500.0,7.26329e-05
5510.0,6.81894e-05
5520.0,6.38952e-05
5530.0,5.97519e-05
5540.0,5.57609e-05
5550.0,5.19236e-05
5560.0,4.82418e-05
5570.0,4.47167e-05
5580.0,4.135e-05
5590.0,3.8143e-05
5600.0,3.50973e-05
5610.0,3.22094e-05
5620.0,2.94802e-05
5630.0,2.6905e-05
5640.0,2.44794e-05
5650.0,2.21991e-05
5660.0,2.00595e-05
5670.0,1.80561e-05
5680.0,1.61844e-05
5690.0,1.44399e-05
5700.0,1.28182e-05
5710.0,1.13151e-05
5720.0,9.92608e-06
5730.0,8.64666e-06
5740.0,7.47251e-06
5750.0,6.39932e-06
5760.0,5.42271e-06
5770.0,4.53839e-06
5780.0,3.74201e-06
5790.0,3.02932e-06
5800.0,2.39603e-06
5810.0,1.83786e-06
