Wavelength,Transmission
1550.0,4.89587e-06
1560.0,7.9533e-06
1570.0,1.19421e-05
1580.0,1.68971e-05
1590.0,2.47498e-05
1600.0,4.56003e-05
1608.0,8.26028e-05
1610.0,9.18413e-05
1620.0,0.000166588
1630.0,0.000257656
1640.0,0.000351055
1650.0,0.000434776
1660.0,0.000507491
1670.0,0.000571003
1680.0,0.000626982
1690.0,0.000677055
1700.0,0.000722872
1710.0,0.000765784
1720.0,0.000806082
1730.0,0.000843811
1740.0,0.000879007
1750.0,0.000911723
1760.0,0.0009405
1770.0,0.000966924
1780.0,0.000991209
1790.0,0.0010136
1800.0,0.00103437
1810.0,0.00105382
1820.0,0.00107224
1830.0,0.00108994
1840.0,0.00110724
1850.0,0.00112448
1860.0,0.00114191
1870.0,0.00115955
1880.0,0.00117739
1890.0,0.00119544
1900.0,0.00121367
1910.0,0.00123209
1920.0,0.00125067
1930.0,0.00126934
1940.0,0.00128805
1950.0,0.00130675
1960.0,0.0013254
1961.0,0.00132725
1970.0,0.00134478
1980.0,0.00136412
1990.0,0.00138327
2000.0,0.00140217
2010.0,0.00141833
2020.0,0.00143412
2030.0,0.00144951
2040.0,0.00146447
2050.0,0.00147908
2060.0,0.00149333
2070.0,0.00150717
2080.0,0.00152057
2090.0,0.00153349
2100.0,0.00154588
2110.0,0.00155771
2120.0,0.00156894
2130.0,0.00157952
2140.0,0.00158942
2150.0,0.00159859
2160.0,0.001607
2170.0,0.0016146
2180.0,0.00162127
2190.0,0.00162658
2200.0,0.00163063
2210.0,0.0016327
2220.0,0.00163389
2230.0,0.00163438
2240.0,0.00163437
2250.0,0.00163392
2260.0,0.00163281
2270.0,0.00163104
2280.0,0.00162865
2290.0,0.00162569
2300.0,0.00162219
2310.0,0.00161818
2320.0,0.00161367
2330.0,0.0016087
2340.0,0.0016033
2350.0,0.0015975
2360.0,0.00159132
2370.0,0.00158479
2380.0,0.00157793
2390.0,0.00157076
2400.0,0.00156332
2410.0,0.00155577
2420.0,0.001548
2430.0,0.00154003
2440.0,0.00153189
2450.0,0.00152345
2460.0,0.00151465
2470.0,0.00150561
2480.0,0.00149644
2490.0,0.00148727
2500.0,0.0014782
2510.0,0.00146935
2520.0,0.00146079
2530.0,0.00145241
2540.0,0.0014442
2550.0,0.00143612
2560.0,0.00142819
2570.0,0.00142039
2580.0,0.00141272
2590.0,0.0014052
2600.0,0.00139781
2610.0,0.00139068
2620.0,0.00138368
2630.0,0.00137679
2640.0,0.00136999
2650.0,0.00136331
2660.0,0.00135674
2670.0,0.00135031
2680.0,0.00134402
2690.0,0.00133789
2700.0,0.00133194
2710.0,0.00132618
2720.0,0.00132062
2730.0,0.00131526
2740.0,0.00131012
2750.0,0.00130516
2760.0,0.00130038
2770.0,0.00129577
2780.0,0.00129133
2790.0,0.00128706
2800.0,0.00128295
2810.0,0.00127979
2820.0,0.0012768
2830.0,0.00127397
2840.0,0.0012713
2850.0,0.0012688
2860.0,0.00126647
2870.0,0.0012643
2880.0,0.00126229
2890.0,0.00126044
2900.0,0.00125876
2910.0,0.00125725
2920.0,0.00125591
2930.0,0.00125473
2940.0,0.00125373
2950.0,0.00125291
2960.0,0.00125229
2970.0,0.00125185
2980.0,0.00125158
2990.0,0.00125151
3000.0,0.00125161
3010.0,0.00125211
3020.0,0.0012528
3030.0,0.00125367
3040.0,0.00125472
3050.0,0.00125595
3060.0,0.00125738
3070.0,0.00125901
3080.0,0.00126082
3090.0,0.00126282
3100.0,0.00126499
3110.0,0.00126734
3120.0,0.00126985
3130.0,0.00127253
3140.0,0.00127536
3150.0,0.00127835
3160.0,0.00128149
3170.0,0.00128476
3180.0,0.00128817
3190.0,0.00129171
3200.0,0.00129537
3210.0,0.00129946
3220.0,0.00130366
3230.0,0.00130799
3240.0,0.00131242
3250.0,0.00131695
3260.0,0.00132153
3270.0,0.00132615
3280.0,0.00133081
3290.0,0.00133548
3300.0,0.00134016
3310.0,0.00134484
3320.0,0.0013495
3330.0,0.00135414
3340.0,0.00135874
3350.0,0.00136329
3360.0,0.00136777
3370.0,0.00137219
3380.0,0.00137652
3390.0,0.00138076
3400.0,0.0013849
3410.0,0.00138935
3420.0,0.00139368
3430.0,0.00139787
3440.0,0.00140192
3450.0,0.00140581
3460.0,0.00140952
3470.0,0.00141304
3480.0,0.00141637
3490.0,0.00141948
3500.0,0.00142237
3510.0,0.00142503
3520.0,0.00142744
3530.0,0.00142959
3540.0,0.00143147
3550.0,0.00143305
3560.0,0.00143434
3570.0,0.00143532
3580.0,0.00143599
3590.0,0.00143638
3600.0,0.00143648
3608.399902,0.0014366
3610.0,0.00153661
3620.0,0.00216128
3630.0,0.00278532
3640.0,0.00340839
3650.0,0.00403018
3660.0,0.00465038
3670.0,0.00526872
3680.0,0.00588489
3690.0,0.00649863
3700.0,0.00710969
3710.0,0.00771782
3720.0,0.00832278
3730.0,0.00892438
3730.5,0.00895434
3740.0,0.00949236
3750.0,0.0100551
3760.0,0.010614
3770.0,0.011169
3780.0,0.0117199
3790.0,0.0122666
3800.0,0.0128089
3810.0,0.0133452
3820.0,0.0138769
3830.0,0.0144039
3840.0,0.0149259
3850.0,0.015443
3860.0,0.0159551
3864.699951,0.0161939
3870.0,0.0162408
3880.0,0.0163275
3890.0,0.0164121
3900.0,0.0164946
3910.0,0.016575
3920.0,0.0166534
3930.0,0.0168261
3940.0,0.0169975
3950.0,0.0171676
3960.0,0.0173365
3970.0,0.0175042
3980.0,0.0176708
3990.0,0.0178363
4000.0,0.0180008
4010.0,0.0181664
4020.0,0.0183311
4030.0,0.0184948
4040.0,0.0186576
4050.0,0.0188195
4060.0,0.0189804
4060.100098,0.018982
4070.0,0.0190839
4080.0,0.0191859
4090.0,0.0192865
4100.0,0.0193856
4110.0,0.0194833
4120.0,0.0195796
4130.0,0.0196747
4140.0,0.0197688
4150.0,0.019862
4160.0,0.0199543
4170.0,0.0200461
4180.0,0.0201372
4190.0,0.0202279
4200.0,0.0203183
4210.0,0.0204044
4220.0,0.0204905
4230.0,0.0205768
4240.0,0.0206631
4250.0,0.020749
4260.0,0.0208345
4270.0,0.0209197
4280.0,0.0210047
4290.0,0.0210895
4300.0,0.0211751
4310.0,0.021262
4320.0,0.0213501
4330.0,0.0214394
4340.0,0.0215297
4340.799805,0.021537
4350.0,0.0215629
4360.0,0.0215919
4370.0,0.0216216
4380.0,0.0216519
4390.0,0.0216828
4400.0,0.0217142
4410.0,0.0217474
4420.0,0.021781
4430.0,0.0218148
4440.0,0.0218489
4450.0,0.021883
4460.0,0.0219172
4470.0,0.021951
4480.0,0.0219846
4490.0,0.0220178
4500.0,0.0220503
4510.0,0.0220822
4520.0,0.0221132
4530.0,0.0221432
4540.0,0.0221723
4548.299805,0.0221956
4550.0,0.0221972
4560.0,0.0222054
4570.0,0.0222123
4580.0,0.0222178
4590.0,0.0222218
4600.0,0.0222244
4610.0,0.0222251
4620.0,0.022224
4630.0,0.0222207
4640.0,0.0222153
4650.0,0.0222075
4660.0,0.0221962
4670.0,0.0221813
4680.0,0.022163
4690.0,0.0221415
4700.0,0.0221171
4710.0,0.0220899
4720.0,0.0220603
4730.0,0.0220285
4740.0,0.0219947
4750.0,0.0219592
4760.0,0.0219219
4770.0,0.0218834
4780.0,0.0218439
4790.0,0.0218037
4800.0,0.0217629
4804.700195,0.0217428
4810.0,0.0217133
4820.0,0.0216577
4830.0,0.0216023
4840.0,0.0215472
4850.0,0.0214926
4860.0,0.0214385
4870.0,0.0213851
4880.0,0.0213327
4890.0,0.0212816
4900.0,0.0212316
4910.0,0.0211831
4920.0,0.0211361
4930.0,0.0210902
4940.0,0.0210444
4950.0,0.0209985
4960.0,0.0209525
4970.0,0.0209061
4980.0,0.0208595
4990.0,0.0208124
5000.0,0.0207648
5010.0,0.0207156
5020.0,0.0206659
5024.399902,0.0206438
5030.0,0.0206156
5040.0,0.0205646
5050.0,0.020513
5060.0,0.0204607
5070.0,0.0204077
5080.0,0.020354
5090.0,0.0202995
5100.0,0.0202443
5110.0,0.0201882
5120.0,0.0201312
5130.0,0.0200733
5140.0,0.0200145
5150.0,0.0199548
5160.0,0.0198941
5170.0,0.0198319
5180.0,0.0197683
5190.0,0.0197034
5200.0,0.0196373
5210.0,0.01957
5220.0,0.0195014
5230.0,0.0194317
5240.0,0.0193608
5250.0,0.0192889
5260.0,0.0192161
5270.0,0.0191424
5280.0,0.0190678
5290.0,0.0189923
5300.0,0.0189159
5310.0,0.0188389
5320.0,0.018761
5330.0,0.0186826
5340.0,0.0186036
5350.0,0.018524
5360.0,0.0184438
5370.0,0.018363
5380.0,0.0182819
5390.0,0.0182004
5400.0,0.0181186
5410.0,0.0180364
5420.0,0.0179535
5430.0,0.0178701
5439.5,0.0177905
5440.0,0.0177865
5450.0,0.0177078
5460.0,0.0176286
5470.0,0.017549
5480.0,0.0174691
5490.0,0.0173889
5500.0,0.0173085
5510.0,0.017228
5520.0,0.0171474
5530.0,0.0170667
5540.0,0.0169859
5550.0,0.0169051
5560.0,0.0168243
5570.0,0.0167436
5580.0,0.016663
5590.0,0.0165827
5600.0,0.0165026
5610.0,0.0164204
5620.0,0.0163385
5630.0,0.0162568
5640.0,0.0161753
5650.0,0.0160941
5660.0,0.0160132
5670.0,0.0159325
5680.0,0.0158519
5690.0,0.0157714
5700.0,0.0156911
5710.0,0.0156111
5720.0,0.0155313
5730.0,0.0154515
5740.0,0.0153719
5750.0,0.0152924
5760.0,0.015213
5770.0,0.0151337
5780.0,0.0150545
5790.0,0.0149753
5800.0,0.0148962
5810.0,0.0148163
5820.0,0.0147364
5830.0,0.0146566
5830.100098,0.0146558
5840.0,0.0145773
5850.0,0.0144979
5860.0,0.0144187
5870.0,0.0143397
5880.0,0.0142609
5890.0,0.0141823
5900.0,0.0141037
5910.0,0.0140251
5920.0,0.0139465
5930.0,0.0138677
5940.0,0.0137886
5950.0,0.0137093
5960.0,0.0136295
5970.0,0.0135493
5980.0,0.0134684
5990.0,0.013387
6000.0,0.0133048
6010.0,0.0132223
6020.0,0.0131391
6030.0,0.013055
6040.0,0.0129704
6050.0,0.0128853
6060.0,0.0127998
6070.0,0.0127141
6080.0,0.0126281
6090.0,0.0125418
6100.0,0.0124554
6110.0,0.0123687
6120.0,0.012282
6130.0,0.0121952
6140.0,0.0121084
6150.0,0.0120216
6159.700195,0.0119374
6160.0,0.0119348
6170.0,0.0118507
6180.0,0.0117667
6190.0,0.0116828
6200.0,0.011599
6210.0,0.0115147
6220.0,0.0114306
6230.0,0.0113468
6240.0,0.0112633
6250.0,0.01118
6260.0,0.011097
6270.0,0.0110142
6280.0,0.0109318
6290.0,0.0108496
6300.0,0.0107678
6310.0,0.0106863
6320.0,0.0106051
6330.0,0.0105243
6340.0,0.0104438
6350.0,0.0103638
6360.0,0.0102841
6370.0,0.0102047
6380.0,0.0101258
6390.0,0.0100472
6400.0,0.009969
6410.0,0.00989041
6420.0,0.00981223
6430.0,0.00973448
6440.0,0.00965719
6450.0,0.00958036
6460.0,0.00950399
6470.0,0.00942807
6480.0,0.00935261
6490.0,0.00927761
6500.0,0.00920312
6510.0,0.00912913
6520.0,0.00905562
6530.0,0.00898263
6540.0,0.00891021
6550.0,0.00883836
6560.0,0.00876713
6570.0,0.00869648
6580.0,0.00862643
6590.0,0.00855698
6600.0,0.00848816
6610.0,0.00842067
6611.299805,0.00841198
6620.0,0.00834335
6630.0,0.00826539
6640.0,0.00818832
6650.0,0.00811207
6660.0,0.00803657
6670.0,0.0079618
6680.0,0.00788773
6690.0,0.00781434
6700.0,0.0077416
6710.0,0.00766946
6720.0,0.00759788
6730.0,0.00752672
6740.0,0.00745592
6750.0,0.00738547
6760.0,0.00731533
6770.0,0.00724551
6780.0,0.00717597
6790.0,0.00710667
6800.0,0.00703761
6810.0,0.00696839
6820.0,0.00689938
6830.0,0.00683056
6840.0,0.00676191
6850.0,0.0066934
6860.0,0.00662502
6870.0,0.00655672
6880.0,0.00648849
6890.0,0.0064203
6900.0,0.00635216
6910.0,0.00628406
6920.0,0.00621599
6930.0,0.00614793
6940.0,0.00607981
6940.899902,0.00607366
6950.0,0.00601813
6960.0,0.00595688
6970.0,0.00589546
6980.0,0.00583385
6990.0,0.00577202
7000.0,0.00570996
7010.0,0.00564744
7020.0,0.00558473
7030.0,0.00552191
7040.0,0.00545897
7050.0,0.00539596
7060.0,0.00533287
7070.0,0.00526975
7080.0,0.00520665
7090.0,0.00514357
7100.0,0.00508056
7110.0,0.00501765
7120.0,0.00495485
7130.0,0.00489217
7140.0,0.00482967
7150.0,0.00476735
7160.0,0.00470525
7170.0,0.0046434
7180.0,0.00458178
7190.0,0.00452043
7200.0,0.00445938
7210.0,0.00439866
7220.0,0.00433828
7230.0,0.00427825
7240.0,0.00421857
7250.0,0.00415936
7260.0,0.00410117
7270.0,0.00404398
7280.0,0.0039877
7290.0,0.00393221
7300.0,0.00387744
7310.0,0.0038233
7320.0,0.00376972
7330.0,0.00371662
7340.0,0.00366391
7350.0,0.00361154
7360.0,0.00355942
7370.0,0.00350751
7380.0,0.00345575
7390.0,0.00340409
7400.0,0.00335248
7410.0,0.00330092
7420.0,0.00324933
7430.0,0.00319767
7440.0,0.00314592
7450.0,0.00309404
7460.0,0.00304201
7470.0,0.00298981
7480.0,0.0029374
7490.0,0.00288481
7500.0,0.00283205
7510.0,0.00277913
7520.0,0.00272601
7530.0,0.00267268
7540.0,0.00261912
7550.0,0.00256546
7560.0,0.00251181
7570.0,0.00245826
7580.0,0.00240487
7590.0,0.00235172
7600.0,0.00229888
7610.0,0.0022464
7620.0,0.00219434
7630.0,0.00214277
7640.0,0.00209173
7650.0,0.00204126
7660.0,0.00199143
7670.0,0.00194226
7680.0,0.0018938
7690.0,0.00184607
7700.0,0.00179913
7710.0,0.00175299
7720.0,0.00170769
7730.0,0.00166325
7740.0,0.0016197
7750.0,0.00157705
7760.0,0.00153533
7770.0,0.00149455
7780.0,0.00145474
7790.0,0.0014159
7800.0,0.00137804
7810.0,0.00134118
7820.0,0.00130531
7830.0,0.00127046
7840.0,0.00123662
7850.0,0.00120379
7860.0,0.00117199
7870.0,0.0011412
7880.0,0.00111144
7890.0,0.00108269
7900.0,0.00105495
7910.0,0.00102822
7920.0,0.0010025
7930.0,0.000977787
7940.0,0.000954066
7950.0,0.000931257
7960.0,0.000909113
7970.0,0.000887609
7980.0,0.000866755
7990.0,0.000846607
8000.0,0.000827227
8010.0,0.00080863
8020.0,0.000790708
8030.0,0.000773375
8040.0,0.000756565
8050.0,0.00074023
8060.0,0.000724327
8070.0,0.00070882
8080.0,0.000693678
8090.0,0.000678867
8100.0,0.000664354
8110.0,0.000650107
8120.0,0.000636094
8130.0,0.000622285
8140.0,0.000608647
8150.0,0.000595149
8160.0,0.000581763
8170.0,0.000568457
8180.0,0.000555199
8190.0,0.000541964
8200.0,0.000528719
8210.0,0.000515451
8220.0,0.000502167
8230.0,0.000488874
8240.0,0.000475584
8250.0,0.000462306
8260.0,0.000449052
8270.0,0.000435829
8280.0,0.000422649
8290.0,0.000409522
8300.0,0.000396456
8310.0,0.000383463
8320.0,0.000370552
8330.0,0.000357733
8340.0,0.000345016
8350.0,0.000332409
8360.0,0.000319924
8370.0,0.00030757
8380.0,0.000295357
8390.0,0.000283294
8400.0,0.000271391
8410.0,0.000259665
8420.0,0.000248118
8430.0,0.000236759
8440.0,0.000225599
8450.0,0.000214646
8460.0,0.000203911
8470.0,0.000193403
8480.0,0.000183132
8490.0,0.000173109
8500.0,0.000163346
8510.0,0.000153852
8520.0,0.000144635
8530.0,0.000135702
8540.0,0.00012706
8550.0,0.000118721
8560.0,0.000110692
8570.0,0.000102983
8580.0,9.56039e-05
8590.0,8.85636e-05
8600.0,8.1871e-05
8610.0,7.55433e-05
8620.0,6.95516e-05
8630.0,6.38862e-05
8640.0,5.85379e-05
8650.0,5.34971e-05
8660.0,4.87544e-05
8670.0,4.43007e-05
8680.0,4.01265e-05
8690.0,3.62225e-05
8700.0,3.25795e-05
8710.0,2.91881e-05
8720.0,2.60394e-05
8730.0,2.3124e-05
8740.0,2.04328e-05
8750.0,1.79568e-05
8760.0,1.56867e-05
8770.0,1.36136e-05
8780.0,1.17285e-05
8790.0,1.00224e-05
8800.0,8.48633e-06
8810.0,7.11133e-06
8820.0,5.88853e-06
8830.0,4.80911e-06
