# Kurucz ODFNEW /NOVER, alpha: 0.0 (2003)
# teff = 26000 K (value for the effective temperature for the model. Temperatures are given in K)
# logg = 4 log(cm/s2) (value for Log(G) for the model.)
# lh = 1.25  (l/Hp where l is the  mixing length of the convective element and Hp is the pressure scale height)
# meta = 0.2  (value for the Metallicity for the model.)
# vtur = 2 km/s (Microturbulence velocity)
# alpha = 0  (Alpha)
#
# column 1: WAVELENGTH (ANGSTROM), Wavelength in Angstrom
# column 2: FLUX (ERG/CM2/S/A), Flux in erg/cm2/s/A
147.200000 3.36048000e-13
151.000000 1.32838000e-12
155.200000 5.64210000e-12
158.800000 1.84261000e-11
162.000000 5.06986000e-11
166.000000 1.70742000e-10
170.300000 5.92812000e-10
173.400000 1.40981000e-09
176.800000 3.51634000e-09
180.200000 8.49438000e-09
181.700000 1.24082000e-08
186.100000 3.65686000e-08
191.000000 1.15443000e-07
193.900000 2.22127000e-07
198.400000 5.91760000e-07
201.800000 1.20734000e-06
205.000000 2.31407000e-06
210.500000 6.78262000e-06
216.200000 1.95592000e-05
219.800000 3.71590000e-05
223.000000 6.46506000e-05
226.800000 1.22829000e-04
230.000000 9.55212000e-03
234.000000 2.13230000e-02
240.000000 4.71128000e-02
246.500000 1.08290000e-01
252.400000 2.23959000e-01
256.800000 3.56962000e-01
260.000000 5.82259000e-01
264.000000 9.00040000e-01
268.500000 1.46993000e+00
273.500000 2.45743000e+00
278.500000 4.01330000e+00
284.000000 7.46350000e+00
290.000000 1.27886000e+01
296.000000 2.15557000e+01
301.000000 3.23734000e+01
308.000000 5.97555000e+01
318.000000 1.37550000e+02
328.000000 2.72403000e+02
338.000000 5.55676000e+02
348.000000 1.04986000e+03
357.000000 4.85747000e+03
366.000000 9.80662000e+03
375.000000 1.42883000e+04
385.000000 2.33141000e+04
395.000000 4.43238000e+04
405.000000 6.48818000e+04
414.000000 9.50440000e+04
422.000000 1.29238000e+05
430.000000 1.82116000e+05
441.000000 2.65906000e+05
451.000000 3.50520000e+05
460.000000 4.51434000e+05
470.000000 6.27206000e+05
480.000000 8.36392000e+05
490.000000 1.11064000e+06
500.000000 1.42101000e+06
506.000000 6.31786000e+06
512.000000 4.99970000e+07
520.000000 5.36296000e+07
530.000000 5.84930000e+07
540.000000 6.03607000e+07
550.000000 8.86018000e+07
560.000000 1.05203000e+08
570.000000 1.20672000e+08
580.000000 1.13948000e+08
590.000000 1.45302000e+08
600.000000 1.54260000e+08
610.000000 1.80366000e+08
620.000000 1.98655000e+08
630.000000 2.03248000e+08
640.000000 1.80464000e+08
650.000000 1.32074000e+08
658.000000 1.97969000e+08
665.000000 2.48728000e+08
675.000000 2.67433000e+08
685.000000 2.63416000e+08
695.000000 3.55691000e+08
705.000000 3.47946000e+08
716.000000 4.00380000e+08
726.000000 4.05951000e+08
735.000000 4.17584000e+08
745.000000 4.73504000e+08
755.000000 4.96891000e+08
765.000000 5.27669000e+08
775.000000 5.59212000e+08
785.000000 5.95076000e+08
795.000000 6.09836000e+08
805.000000 6.23149000e+08
815.000000 6.32396000e+08
825.000000 6.89446000e+08
835.000000 5.79555000e+08
845.000000 6.92071000e+08
855.000000 6.96178000e+08
865.000000 7.39285000e+08
875.000000 7.82318000e+08
885.000000 8.41169000e+08
895.000000 8.73364000e+08
905.000000 8.55642000e+08
915.000000 1.16219000e+09
925.000000 7.55330000e+09
935.000000 1.63723000e+10
945.000000 2.80835000e+10
955.000000 3.33743000e+10
965.000000 3.72144000e+10
975.000000 6.59437000e+09
985.000000 2.79457000e+10
995.000000 2.85207000e+10
1005.000000 3.39373000e+10
1015.000000 3.52476000e+10
1025.000000 2.12241000e+10
1035.000000 2.84995000e+10
1045.000000 4.17843000e+10
1055.000000 3.80749000e+10
1065.000000 3.02769000e+10
1075.000000 3.46860000e+10
1085.000000 3.09973000e+10
1095.000000 3.46967000e+10
1105.000000 3.14984000e+10
1115.000000 3.03541000e+10
1125.000000 2.31710000e+10
1135.000000 3.12795000e+10
1145.000000 2.86636000e+10
1155.000000 2.88670000e+10
1165.000000 2.82098000e+10
1175.000000 1.52146000e+10
1185.000000 2.60763000e+10
1195.000000 2.46060000e+10
1205.000000 1.74860000e+10
1215.000000 1.47119000e+10
1225.000000 2.29029000e+10
1235.000000 2.59275000e+10
1245.000000 2.47641000e+10
1255.000000 2.44667000e+10
1265.000000 2.51690000e+10
1275.000000 2.60898000e+10
1285.000000 2.59408000e+10
1295.000000 1.86351000e+10
1305.000000 2.02506000e+10
1315.000000 2.52456000e+10
1325.000000 2.34648000e+10
1335.000000 2.26115000e+10
1345.000000 2.28804000e+10
1355.000000 2.24701000e+10
1365.000000 2.05690000e+10
1375.000000 1.97835000e+10
1385.000000 1.89792000e+10
1395.000000 1.27587000e+10
1405.000000 1.41340000e+10
1415.000000 1.66301000e+10
1425.000000 1.61428000e+10
1435.000000 1.69696000e+10
1442.000000 1.73216000e+10
1447.000000 1.70258000e+10
1455.000000 1.63204000e+10
1465.000000 1.48564000e+10
1475.000000 1.54023000e+10
1485.000000 1.52279000e+10
1495.000000 1.48293000e+10
1505.000000 1.32857000e+10
1512.000000 1.18158000e+10
1517.000000 1.22105000e+10
1525.000000 1.25920000e+10
1535.000000 1.03610000e+10
1545.000000 9.76456000e+09
1555.000000 9.57503000e+09
1565.000000 1.06305000e+10
1575.000000 1.14430000e+10
1585.000000 1.15521000e+10
1595.000000 1.13449000e+10
1605.000000 1.15548000e+10
1615.000000 1.11774000e+10
1625.000000 1.10491000e+10
1635.000000 1.17845000e+10
1645.000000 1.18122000e+10
1655.000000 1.16778000e+10
1665.000000 1.18367000e+10
1672.000000 1.11094000e+10
1677.000000 1.25774000e+10
1685.000000 1.19916000e+10
1695.000000 1.12412000e+10
1705.000000 1.09976000e+10
1715.000000 1.03040000e+10
1725.000000 1.00940000e+10
1735.000000 1.05549000e+10
1745.000000 1.03341000e+10
1755.000000 1.03608000e+10
1765.000000 1.02879000e+10
1775.000000 9.50629000e+09
1785.000000 9.75904000e+09
1795.000000 1.00174000e+10
1805.000000 1.01098000e+10
1815.000000 8.92070000e+09
1825.000000 9.30110000e+09
1835.000000 9.02211000e+09
1845.000000 8.15418000e+09
1855.000000 8.35477000e+09
1865.000000 8.45561000e+09
1875.000000 8.79000000e+09
1885.000000 7.76344000e+09
1895.000000 7.20596000e+09
1905.000000 7.87753000e+09
1915.000000 7.35641000e+09
1925.000000 6.90208000e+09
1935.000000 7.44569000e+09
1945.000000 7.62257000e+09
1955.000000 6.74718000e+09
1967.000000 7.42994000e+09
1976.000000 7.76977000e+09
1984.000000 7.17204000e+09
1995.000000 7.04887000e+09
2005.000000 7.36904000e+09
2015.000000 7.27168000e+09
2025.000000 7.47161000e+09
2035.000000 6.73710000e+09
2045.000000 6.89603000e+09
2055.000000 6.47591000e+09
2065.000000 6.43242000e+09
2074.000000 6.82916000e+09
2078.000000 6.09892000e+09
2085.000000 6.52981000e+09
2095.000000 6.21673000e+09
2105.000000 6.48913000e+09
2115.000000 6.52426000e+09
2125.000000 6.56011000e+09
2135.000000 6.44822000e+09
2145.000000 6.06907000e+09
2155.000000 6.36259000e+09
2165.000000 6.32517000e+09
2175.000000 6.25432000e+09
2185.000000 6.01042000e+09
2195.000000 6.12123000e+09
2205.000000 6.10884000e+09
2215.000000 5.98992000e+09
2225.000000 5.82814000e+09
2235.000000 5.71939000e+09
2245.000000 5.77492000e+09
2255.000000 5.57423000e+09
2265.000000 5.64643000e+09
2275.000000 5.55512000e+09
2285.000000 5.53944000e+09
2295.000000 4.92421000e+09
2305.000000 5.32510000e+09
2315.000000 5.16911000e+09
2325.000000 5.11631000e+09
2335.000000 4.96838000e+09
2345.000000 5.01708000e+09
2355.000000 4.97870000e+09
2365.000000 4.93224000e+09
2375.000000 4.80905000e+09
2385.000000 4.77092000e+09
2395.000000 4.70956000e+09
2405.000000 4.62853000e+09
2415.000000 4.58672000e+09
2425.000000 4.57043000e+09
2435.000000 4.42991000e+09
2445.000000 4.44209000e+09
2455.000000 4.44085000e+09
2465.000000 4.35945000e+09
2475.000000 4.28419000e+09
2485.000000 4.18103000e+09
2495.000000 3.42462000e+09
2505.000000 4.02610000e+09
2513.000000 3.86813000e+09
2518.000000 4.02082000e+09
2525.000000 3.99424000e+09
2535.000000 3.95534000e+09
2545.000000 3.80008000e+09
2555.000000 3.84680000e+09
2565.000000 3.79179000e+09
2575.000000 3.79671000e+09
2585.000000 3.73858000e+09
2595.000000 3.70322000e+09
2605.000000 3.67141000e+09
2615.000000 3.61027000e+09
2625.000000 3.58790000e+09
2635.000000 3.55497000e+09
2645.000000 3.50148000e+09
2655.000000 3.48600000e+09
2665.000000 3.32914000e+09
2675.000000 3.34620000e+09
2685.000000 3.34296000e+09
2695.000000 3.21031000e+09
2705.000000 3.13307000e+09
2715.000000 3.14606000e+09
2725.000000 3.15107000e+09
2735.000000 3.12167000e+09
2745.000000 3.05097000e+09
2755.000000 3.03879000e+09
2765.000000 2.99970000e+09
2775.000000 3.02416000e+09
2785.000000 2.96989000e+09
2795.000000 2.85787000e+09
2805.000000 2.88311000e+09
2815.000000 2.88986000e+09
2825.000000 2.84678000e+09
2835.000000 2.73729000e+09
2845.000000 2.77566000e+09
2855.000000 2.72020000e+09
2865.000000 2.72011000e+09
2875.000000 2.68946000e+09
2885.000000 2.65808000e+09
2895.000000 2.61327000e+09
2910.000000 2.55731000e+09
2930.000000 2.53006000e+09
2950.000000 2.44973000e+09
2970.000000 2.41415000e+09
2990.000000 2.35693000e+09
3010.000000 2.26384000e+09
3030.000000 2.25831000e+09
3050.000000 2.22300000e+09
3070.000000 2.18937000e+09
3090.000000 2.09448000e+09
3110.000000 2.09131000e+09
3130.000000 2.03537000e+09
3150.000000 2.00376000e+09
3170.000000 1.94894000e+09
3190.000000 1.91091000e+09
3210.000000 1.88458000e+09
3230.000000 1.83611000e+09
3250.000000 1.81058000e+09
3270.000000 1.76655000e+09
3290.000000 1.73150000e+09
3310.000000 1.69974000e+09
3330.000000 1.66104000e+09
3350.000000 1.63233000e+09
3370.000000 1.59802000e+09
3390.000000 1.57453000e+09
3410.000000 1.54481000e+09
3430.000000 1.51045000e+09
3450.000000 1.47641000e+09
3470.000000 1.44967000e+09
3490.000000 1.41999000e+09
3510.000000 1.39621000e+09
3530.000000 1.37859000e+09
3550.000000 1.35174000e+09
3570.000000 1.33182000e+09
3590.000000 1.29089000e+09
3610.000000 1.26934000e+09
3630.000000 1.25093000e+09
3640.000000 1.24950000e+09
3650.000000 1.21996000e+09
3670.000000 1.20642000e+09
3690.000000 1.18103000e+09
3710.000000 1.13527000e+09
3730.000000 1.09321000e+09
3750.000000 1.13545000e+09
3770.000000 1.12349000e+09
3790.000000 1.16887000e+09
3810.000000 1.20708000e+09
3830.000000 1.06787000e+09
3850.000000 1.21354000e+09
3870.000000 1.19363000e+09
3890.000000 1.01135000e+09
3910.000000 1.19255000e+09
3930.000000 1.15210000e+09
3950.000000 1.13795000e+09
3970.000000 9.37682000e+08
3990.000000 1.10117000e+09
4010.000000 1.09345000e+09
4030.000000 1.03753000e+09
4050.000000 1.05514000e+09
4070.000000 1.00409000e+09
4090.000000 9.45962000e+08
4110.000000 8.55241000e+08
4130.000000 9.60371000e+08
4150.000000 9.54090000e+08
4170.000000 9.49986000e+08
4190.000000 9.39114000e+08
4210.000000 9.30638000e+08
4230.000000 9.09352000e+08
4250.000000 8.82939000e+08
4270.000000 8.58860000e+08
4290.000000 8.47207000e+08
4310.000000 8.19711000e+08
4330.000000 7.63329000e+08
4350.000000 7.06155000e+08
4370.000000 7.80095000e+08
4390.000000 7.77264000e+08
4410.000000 7.71644000e+08
4430.000000 7.65403000e+08
4450.000000 7.52413000e+08
4470.000000 7.20769000e+08
4490.000000 7.30134000e+08
4510.000000 7.23747000e+08
4530.000000 7.12248000e+08
4550.000000 7.02488000e+08
4570.000000 6.90274000e+08
4590.000000 6.78299000e+08
4610.000000 6.61241000e+08
4630.000000 6.51569000e+08
4650.000000 6.29058000e+08
4670.000000 6.32924000e+08
4690.000000 6.28085000e+08
4710.000000 6.03556000e+08
4730.000000 6.06191000e+08
4750.000000 5.96222000e+08
4770.000000 5.96481000e+08
4790.000000 5.85468000e+08
4810.000000 5.72956000e+08
4830.000000 5.62166000e+08
4850.000000 5.30680000e+08
4870.000000 4.77899000e+08
4890.000000 5.38923000e+08
4910.000000 5.33260000e+08
4930.000000 5.15488000e+08
4950.000000 5.15805000e+08
4970.000000 5.13264000e+08
4990.000000 5.04467000e+08
5010.000000 4.82542000e+08
5030.000000 4.88778000e+08
5050.000000 4.77809000e+08
5070.000000 4.76303000e+08
5090.000000 4.68307000e+08
5110.000000 4.60537000e+08
5130.000000 4.49924000e+08
5150.000000 4.45442000e+08
5170.000000 4.42115000e+08
5190.000000 4.36672000e+08
5210.000000 4.29509000e+08
5230.000000 4.24082000e+08
5250.000000 4.18506000e+08
5270.000000 4.11483000e+08
5290.000000 4.07099000e+08
5310.000000 4.01072000e+08
5330.000000 3.95946000e+08
5350.000000 3.90003000e+08
5370.000000 3.85575000e+08
5390.000000 3.79905000e+08
5410.000000 3.75338000e+08
5430.000000 3.69831000e+08
5450.000000 3.64648000e+08
5470.000000 3.59771000e+08
5490.000000 3.55029000e+08
5510.000000 3.51191000e+08
5530.000000 3.45514000e+08
5550.000000 3.42123000e+08
5570.000000 3.37267000e+08
5590.000000 3.33242000e+08
5610.000000 3.28620000e+08
5630.000000 3.24696000e+08
5650.000000 3.18885000e+08
5670.000000 3.13229000e+08
5690.000000 3.08076000e+08
5710.000000 3.06661000e+08
5730.000000 3.03308000e+08
5750.000000 2.98353000e+08
5770.000000 2.96378000e+08
5790.000000 2.92222000e+08
5810.000000 2.88651000e+08
5830.000000 2.84202000e+08
5850.000000 2.81194000e+08
5870.000000 2.70426000e+08
5890.000000 2.71622000e+08
5910.000000 2.69808000e+08
5930.000000 2.65934000e+08
5950.000000 2.62468000e+08
5970.000000 2.61379000e+08
5990.000000 2.56528000e+08
6010.000000 2.54521000e+08
6030.000000 2.50722000e+08
6050.000000 2.48007000e+08
6070.000000 2.45568000e+08
6090.000000 2.42657000e+08
6110.000000 2.39699000e+08
6130.000000 2.37044000e+08
6150.000000 2.32806000e+08
6170.000000 2.30507000e+08
6190.000000 2.28361000e+08
6210.000000 2.25935000e+08
6230.000000 2.23390000e+08
6250.000000 2.20121000e+08
6270.000000 2.17780000e+08
6290.000000 2.15473000e+08
6310.000000 2.12738000e+08
6330.000000 2.10578000e+08
6350.000000 2.07431000e+08
6370.000000 2.05629000e+08
6390.000000 2.03163000e+08
6410.000000 2.00889000e+08
6430.000000 1.98766000e+08
6450.000000 1.96395000e+08
6470.000000 1.93373000e+08
6490.000000 1.91307000e+08
6510.000000 1.89547000e+08
6530.000000 1.86620000e+08
6550.000000 1.80214000e+08
6570.000000 1.60223000e+08
6590.000000 1.78657000e+08
6610.000000 1.78750000e+08
6630.000000 1.77159000e+08
6650.000000 1.75107000e+08
6670.000000 1.71815000e+08
6690.000000 1.69981000e+08
6710.000000 1.69596000e+08
6730.000000 1.67218000e+08
6750.000000 1.65972000e+08
6770.000000 1.64171000e+08
6790.000000 1.60868000e+08
6810.000000 1.60290000e+08
6830.000000 1.58537000e+08
6850.000000 1.57075000e+08
6870.000000 1.55347000e+08
6890.000000 1.53463000e+08
6910.000000 1.51613000e+08
6930.000000 1.50410000e+08
6950.000000 1.48843000e+08
6970.000000 1.47269000e+08
6990.000000 1.45649000e+08
7010.000000 1.44098000e+08
7030.000000 1.42540000e+08
7050.000000 1.41050000e+08
7070.000000 1.37344000e+08
7090.000000 1.38047000e+08
7110.000000 1.35520000e+08
7130.000000 1.34235000e+08
7150.000000 1.33735000e+08
7170.000000 1.32448000e+08
7190.000000 1.31129000e+08
7210.000000 1.29772000e+08
7230.000000 1.26432000e+08
7250.000000 1.26825000e+08
7270.000000 1.25786000e+08
7290.000000 1.23502000e+08
7310.000000 1.23193000e+08
7330.000000 1.21891000e+08
7350.000000 1.20740000e+08
7370.000000 1.19538000e+08
7390.000000 1.18326000e+08
7410.000000 1.17139000e+08
7430.000000 1.15909000e+08
7450.000000 1.14779000e+08
7470.000000 1.13031000e+08
7490.000000 1.12421000e+08
7510.000000 1.11315000e+08
7530.000000 1.10140000e+08
7550.000000 1.09200000e+08
7570.000000 1.08125000e+08
7590.000000 1.07039000e+08
7610.000000 1.05813000e+08
7630.000000 1.04923000e+08
7650.000000 1.03912000e+08
7670.000000 1.02916000e+08
7690.000000 1.01897000e+08
7710.000000 1.00875000e+08
7730.000000 9.98679000e+07
7750.000000 9.89893000e+07
7770.000000 9.76192000e+07
7790.000000 9.71000000e+07
7810.000000 9.61030000e+07
7830.000000 9.52440000e+07
7850.000000 9.43375000e+07
7870.000000 9.33112000e+07
7890.000000 9.21973000e+07
7910.000000 9.15630000e+07
7930.000000 9.06644000e+07
7950.000000 8.97677000e+07
7970.000000 8.89145000e+07
7990.000000 8.80037000e+07
8010.000000 8.72301000e+07
8030.000000 8.64164000e+07
8050.000000 8.56852000e+07
8070.000000 8.49313000e+07
8090.000000 8.40226000e+07
8110.000000 8.28755000e+07
8130.000000 8.26279000e+07
8150.000000 8.17804000e+07
8170.000000 8.11774000e+07
8190.000000 8.00007000e+07
8210.000000 7.91643000e+07
8230.000000 7.83072000e+07
8250.000000 7.80553000e+07
8270.000000 7.65490000e+07
8290.000000 7.65364000e+07
8310.000000 7.59175000e+07
8330.000000 7.52494000e+07
8350.000000 7.42085000e+07
8370.000000 7.36983000e+07
8390.000000 7.32136000e+07
8410.000000 7.24983000e+07
8430.000000 7.18366000e+07
8450.000000 7.05789000e+07
8470.000000 7.04508000e+07
8490.000000 6.97638000e+07
8510.000000 6.89161000e+07
8530.000000 6.86451000e+07
8550.000000 6.70720000e+07
8570.000000 6.81443000e+07
8590.000000 6.54890000e+07
8610.000000 6.52512000e+07
8630.000000 6.69218000e+07
8650.000000 6.50418000e+07
8670.000000 6.12038000e+07
8690.000000 6.51778000e+07
8710.000000 6.53356000e+07
8730.000000 6.34845000e+07
8750.000000 5.78164000e+07
8770.000000 6.16675000e+07
8790.000000 6.33619000e+07
8810.000000 6.30406000e+07
8830.000000 6.21755000e+07
8850.000000 5.86673000e+07
8870.000000 5.45101000e+07
8890.000000 6.01426000e+07
8910.000000 6.04044000e+07
8930.000000 5.99310000e+07
8950.000000 5.96164000e+07
8970.000000 5.90090000e+07
8990.000000 5.74416000e+07
9010.000000 5.14649000e+07
9030.000000 5.39862000e+07
9050.000000 5.67147000e+07
9070.000000 5.61076000e+07
9090.000000 5.60479000e+07
9110.000000 5.58384000e+07
9130.000000 5.54088000e+07
9150.000000 5.49418000e+07
9170.000000 5.42678000e+07
9190.000000 5.37152000e+07
9210.000000 5.15013000e+07
9230.000000 4.56668000e+07
9250.000000 5.06562000e+07
9270.000000 5.16347000e+07
9290.000000 5.17182000e+07
9310.000000 5.11528000e+07
9330.000000 5.08126000e+07
9350.000000 5.05394000e+07
9370.000000 5.01651000e+07
9390.000000 4.97722000e+07
9410.000000 4.92928000e+07
9430.000000 4.89526000e+07
9450.000000 4.85389000e+07
9470.000000 4.78847000e+07
9490.000000 4.76328000e+07
9510.000000 4.66829000e+07
9530.000000 4.48280000e+07
9550.000000 4.01404000e+07
9570.000000 4.50175000e+07
9590.000000 4.56615000e+07
9610.000000 4.52677000e+07
9630.000000 4.48321000e+07
9650.000000 4.48527000e+07
9670.000000 4.44901000e+07
9690.000000 4.40980000e+07
9710.000000 4.35769000e+07
9730.000000 4.34417000e+07
9750.000000 4.30933000e+07
9770.000000 4.27789000e+07
9790.000000 4.24313000e+07
9810.000000 4.20549000e+07
9830.000000 4.17787000e+07
9850.000000 4.14384000e+07
9870.000000 4.10811000e+07
9890.000000 4.07033000e+07
9910.000000 4.02093000e+07
9930.000000 4.01850000e+07
9950.000000 3.98638000e+07
9970.000000 3.95183000e+07
9990.000000 3.91828000e+07
10025.000000 3.72315000e+07
10075.000000 3.59707000e+07
10125.000000 3.71196000e+07
10175.000000 3.66065000e+07
10225.000000 3.59103000e+07
10275.000000 3.52566000e+07
10325.000000 3.44760000e+07
10375.000000 3.39744000e+07
10425.000000 3.33546000e+07
10475.000000 3.27469000e+07
10525.000000 3.21375000e+07
10575.000000 3.15706000e+07
10625.000000 3.10038000e+07
10675.000000 3.03875000e+07
10725.000000 2.99076000e+07
10775.000000 2.93747000e+07
10825.000000 2.85362000e+07
10875.000000 2.82798000e+07
10925.000000 2.57468000e+07
10975.000000 2.68376000e+07
11025.000000 2.67075000e+07
11075.000000 2.64144000e+07
11125.000000 2.59732000e+07
11175.000000 2.55320000e+07
11225.000000 2.50850000e+07
11275.000000 2.46449000e+07
11325.000000 2.42057000e+07
11375.000000 2.38396000e+07
11425.000000 2.34239000e+07
11475.000000 2.30528000e+07
11525.000000 2.26717000e+07
11575.000000 2.22764000e+07
11625.000000 2.19198000e+07
11675.000000 2.15470000e+07
11725.000000 2.12160000e+07
11775.000000 2.08625000e+07
11825.000000 2.05286000e+07
11875.000000 2.02009000e+07
11925.000000 1.98761000e+07
11975.000000 1.93694000e+07
12025.000000 1.92431000e+07
12075.000000 1.89394000e+07
12125.000000 1.86372000e+07
12175.000000 1.83436000e+07
12225.000000 1.80555000e+07
12275.000000 1.77739000e+07
12325.000000 1.74938000e+07
12375.000000 1.72224000e+07
12425.000000 1.69593000e+07
12475.000000 1.66813000e+07
12525.000000 1.63950000e+07
12575.000000 1.61757000e+07
12625.000000 1.59332000e+07
12675.000000 1.57004000e+07
12725.000000 1.54611000e+07
12775.000000 1.49701000e+07
12825.000000 1.38779000e+07
12875.000000 1.46932000e+07
12925.000000 1.45552000e+07
12975.000000 1.42373000e+07
13025.000000 1.41211000e+07
13075.000000 1.39223000e+07
