# Kurucz ODFNEW /NOVER, alpha: 0.0 (2003)
# teff = 19000 K (value for the effective temperature for the model. Temperatures are given in K)
# logg = 3 log(cm/s2) (value for Log(G) for the model.)
# lh = 1.25  (l/Hp where l is the  mixing length of the convective element and Hp is the pressure scale height)
# meta = -1  (value for the Metallicity for the model.)
# vtur = 2 km/s (Microturbulence velocity)
# alpha = 0  (Alpha)
#
# column 1: WAVELENGTH (ANGSTROM), Wavelength in Angstrom
# column 2: FLUX (ERG/CM2/S/A), Flux in erg/cm2/s/A
147.200000 1.89774000e-21
151.000000 1.34121000e-20
155.200000 1.04251000e-19
158.800000 5.56845000e-19
162.000000 2.32693000e-18
166.000000 1.29035000e-17
170.300000 7.45961000e-17
173.400000 2.50777000e-16
176.800000 9.04033000e-16
180.200000 3.10808000e-15
181.700000 5.28199000e-15
186.100000 2.38450000e-14
191.000000 1.17807000e-13
193.900000 2.91957000e-13
198.400000 1.13318000e-12
201.800000 3.03275000e-12
205.000000 7.43392000e-12
210.500000 3.25553000e-11
216.200000 1.38876000e-10
219.800000 3.33771000e-10
223.000000 7.10323000e-10
226.800000 1.69322000e-09
230.000000 1.07799000e-08
234.000000 2.82244000e-08
240.000000 9.14288000e-08
246.500000 3.05148000e-07
252.400000 8.69297000e-07
256.800000 1.79652000e-06
260.000000 3.09147000e-06
264.000000 5.84856000e-06
268.500000 1.16903000e-05
273.500000 2.45486000e-05
278.500000 5.02615000e-05
284.000000 1.07279000e-04
290.000000 2.36847000e-04
296.000000 5.05267000e-04
301.000000 9.28674000e-04
308.000000 2.07431000e-03
318.000000 6.34365000e-03
328.000000 1.77737000e-02
338.000000 4.69312000e-02
348.000000 1.16627000e-01
357.000000 2.53331000e-01
366.000000 5.28804000e-01
375.000000 1.05798000e+00
385.000000 2.20121000e+00
395.000000 4.39689000e+00
405.000000 8.47351000e+00
414.000000 1.48629000e+01
422.000000 2.39216000e+01
430.000000 3.77280000e+01
441.000000 6.89356000e+01
451.000000 1.15802000e+02
460.000000 1.80673000e+02
470.000000 2.90094000e+02
480.000000 4.55378000e+02
490.000000 7.01288000e+02
500.000000 1.05900000e+03
506.000000 8.71462000e+03
512.000000 3.09524000e+04
520.000000 4.07980000e+04
530.000000 6.18043000e+04
540.000000 7.04391000e+04
550.000000 1.10413000e+05
560.000000 1.39351000e+05
570.000000 1.81663000e+05
580.000000 1.84512000e+05
590.000000 2.59490000e+05
600.000000 3.46633000e+05
610.000000 4.35826000e+05
620.000000 5.23266000e+05
630.000000 6.36055000e+05
640.000000 7.34052000e+05
650.000000 8.58667000e+05
658.000000 1.03979000e+06
665.000000 1.15176000e+06
675.000000 1.31335000e+06
685.000000 1.52257000e+06
695.000000 1.83558000e+06
705.000000 2.09533000e+06
716.000000 2.44972000e+06
726.000000 2.76517000e+06
735.000000 3.10352000e+06
745.000000 3.58800000e+06
755.000000 4.06579000e+06
765.000000 4.57888000e+06
775.000000 5.16755000e+06
785.000000 5.79854000e+06
795.000000 6.40355000e+06
805.000000 7.09363000e+06
815.000000 7.76911000e+06
825.000000 8.67343000e+06
835.000000 9.29686000e+06
845.000000 1.02874000e+07
855.000000 1.12237000e+07
865.000000 1.23367000e+07
875.000000 1.35768000e+07
885.000000 1.48830000e+07
895.000000 1.61170000e+07
905.000000 1.70103000e+07
915.000000 3.34497000e+07
925.000000 4.24720000e+08
935.000000 1.52747000e+09
945.000000 3.64110000e+09
955.000000 4.75814000e+09
965.000000 5.69731000e+09
975.000000 1.48243000e+09
985.000000 5.86397000e+09
995.000000 5.63596000e+09
1005.000000 6.25691000e+09
1015.000000 6.04318000e+09
1025.000000 2.57899000e+09
1035.000000 4.58733000e+09
1045.000000 7.02660000e+09
1055.000000 6.64999000e+09
1065.000000 5.86339000e+09
1075.000000 6.62392000e+09
1085.000000 5.96508000e+09
1095.000000 6.68893000e+09
1105.000000 6.14078000e+09
1115.000000 6.13143000e+09
1125.000000 5.58177000e+09
1135.000000 6.41907000e+09
1145.000000 5.99422000e+09
1155.000000 6.20632000e+09
1165.000000 6.34033000e+09
1175.000000 5.05462000e+09
1185.000000 6.29740000e+09
1195.000000 5.47040000e+09
1205.000000 3.72857000e+09
1215.000000 1.85570000e+09
1225.000000 4.94666000e+09
1235.000000 5.81263000e+09
1245.000000 5.94299000e+09
1255.000000 5.77499000e+09
1265.000000 5.59765000e+09
1275.000000 5.81215000e+09
1285.000000 5.71884000e+09
1295.000000 4.60403000e+09
1305.000000 4.71159000e+09
1315.000000 5.55021000e+09
1325.000000 5.30345000e+09
1335.000000 4.92625000e+09
1345.000000 5.24248000e+09
1355.000000 5.22633000e+09
1365.000000 4.95553000e+09
1375.000000 4.90124000e+09
1385.000000 4.92440000e+09
1395.000000 4.42971000e+09
1405.000000 4.60524000e+09
1415.000000 4.65233000e+09
1425.000000 4.61546000e+09
1435.000000 4.65271000e+09
1442.000000 4.70295000e+09
1447.000000 4.62192000e+09
1455.000000 4.54330000e+09
1465.000000 4.38073000e+09
1475.000000 4.34335000e+09
1485.000000 4.27002000e+09
1495.000000 4.21376000e+09
1505.000000 4.03470000e+09
1512.000000 3.75997000e+09
1517.000000 3.86111000e+09
1525.000000 3.89101000e+09
1535.000000 3.59793000e+09
1545.000000 3.68077000e+09
1555.000000 3.50925000e+09
1565.000000 3.60883000e+09
1575.000000 3.69740000e+09
1585.000000 3.65584000e+09
1595.000000 3.67115000e+09
1605.000000 3.57231000e+09
1615.000000 3.53052000e+09
1625.000000 3.47779000e+09
1635.000000 3.54600000e+09
1645.000000 3.50163000e+09
1655.000000 3.40883000e+09
1665.000000 3.49221000e+09
1672.000000 3.37369000e+09
1677.000000 3.45969000e+09
1685.000000 3.42878000e+09
1695.000000 3.31055000e+09
1705.000000 3.19822000e+09
1715.000000 3.08213000e+09
1725.000000 3.05713000e+09
1735.000000 3.11023000e+09
1745.000000 3.03732000e+09
1755.000000 3.07913000e+09
1765.000000 2.92340000e+09
1775.000000 2.90885000e+09
1785.000000 2.90875000e+09
1795.000000 2.94950000e+09
1805.000000 2.93784000e+09
1815.000000 2.76066000e+09
1825.000000 2.81386000e+09
1835.000000 2.75082000e+09
1845.000000 2.57522000e+09
1855.000000 2.51381000e+09
1865.000000 2.54996000e+09
1875.000000 2.64371000e+09
1885.000000 2.43168000e+09
1895.000000 2.29876000e+09
1905.000000 2.44161000e+09
1915.000000 2.33431000e+09
1925.000000 2.26762000e+09
1935.000000 2.33983000e+09
1945.000000 2.37020000e+09
1955.000000 2.20516000e+09
1967.000000 2.32215000e+09
1976.000000 2.38740000e+09
1984.000000 2.25353000e+09
1995.000000 2.19723000e+09
2005.000000 2.23834000e+09
2015.000000 2.22889000e+09
2025.000000 2.27041000e+09
2035.000000 2.13854000e+09
2045.000000 2.14181000e+09
2055.000000 2.08382000e+09
2065.000000 2.10150000e+09
2074.000000 2.17202000e+09
2078.000000 2.04318000e+09
2085.000000 2.08339000e+09
2095.000000 1.99805000e+09
2105.000000 2.03132000e+09
2115.000000 2.01948000e+09
2125.000000 2.04599000e+09
2135.000000 2.00620000e+09
2145.000000 1.92990000e+09
2155.000000 1.97498000e+09
2165.000000 1.95163000e+09
2175.000000 1.92696000e+09
2185.000000 1.89579000e+09
2195.000000 1.90115000e+09
2205.000000 1.87279000e+09
2215.000000 1.84586000e+09
2225.000000 1.80670000e+09
2235.000000 1.80271000e+09
2245.000000 1.79708000e+09
2255.000000 1.75376000e+09
2265.000000 1.76056000e+09
2275.000000 1.73959000e+09
2285.000000 1.73594000e+09
2295.000000 1.68015000e+09
2305.000000 1.68801000e+09
2315.000000 1.65321000e+09
2325.000000 1.63881000e+09
2335.000000 1.59523000e+09
2345.000000 1.57220000e+09
2355.000000 1.58584000e+09
2365.000000 1.55198000e+09
2375.000000 1.54288000e+09
2385.000000 1.51580000e+09
2395.000000 1.51663000e+09
2405.000000 1.49232000e+09
2415.000000 1.47288000e+09
2425.000000 1.47979000e+09
2435.000000 1.44650000e+09
2445.000000 1.44188000e+09
2455.000000 1.43897000e+09
2465.000000 1.41045000e+09
2475.000000 1.39858000e+09
2485.000000 1.38790000e+09
2495.000000 1.34466000e+09
2505.000000 1.36186000e+09
2513.000000 1.31902000e+09
2518.000000 1.34065000e+09
2525.000000 1.32011000e+09
2535.000000 1.29834000e+09
2545.000000 1.28042000e+09
2555.000000 1.29350000e+09
2565.000000 1.27124000e+09
2575.000000 1.27292000e+09
2585.000000 1.26083000e+09
2595.000000 1.24806000e+09
2605.000000 1.24244000e+09
2615.000000 1.22976000e+09
2625.000000 1.21658000e+09
2635.000000 1.20204000e+09
2645.000000 1.20773000e+09
2655.000000 1.19662000e+09
2665.000000 1.17582000e+09
2675.000000 1.17089000e+09
2685.000000 1.16516000e+09
2695.000000 1.14160000e+09
2705.000000 1.13909000e+09
2715.000000 1.12550000e+09
2725.000000 1.10645000e+09
2735.000000 1.10714000e+09
2745.000000 1.07499000e+09
2755.000000 1.07082000e+09
2765.000000 1.06339000e+09
2775.000000 1.06757000e+09
2785.000000 1.05404000e+09
2795.000000 1.02163000e+09
2805.000000 1.02935000e+09
2815.000000 1.02837000e+09
2825.000000 1.01067000e+09
2835.000000 9.90100000e+08
2845.000000 9.94369000e+08
2855.000000 9.86861000e+08
2865.000000 9.81315000e+08
2875.000000 9.70580000e+08
2885.000000 9.62596000e+08
2895.000000 9.53395000e+08
2910.000000 9.40300000e+08
2930.000000 9.20398000e+08
2950.000000 8.99389000e+08
2970.000000 8.89409000e+08
2990.000000 8.71145000e+08
3010.000000 8.56156000e+08
3030.000000 8.43455000e+08
3050.000000 8.28258000e+08
3070.000000 8.13544000e+08
3090.000000 7.97484000e+08
3110.000000 7.84650000e+08
3130.000000 7.71732000e+08
3150.000000 7.58243000e+08
3170.000000 7.44206000e+08
3190.000000 7.26204000e+08
3210.000000 7.19011000e+08
3230.000000 7.06632000e+08
3250.000000 6.94787000e+08
3270.000000 6.83566000e+08
3290.000000 6.71208000e+08
3310.000000 6.61024000e+08
3330.000000 6.49880000e+08
3350.000000 6.37914000e+08
3370.000000 6.28374000e+08
3390.000000 6.18064000e+08
3410.000000 6.07984000e+08
3430.000000 5.95439000e+08
3450.000000 5.83871000e+08
3470.000000 5.76034000e+08
3490.000000 5.67347000e+08
3510.000000 5.60961000e+08
3530.000000 5.52476000e+08
3550.000000 5.43788000e+08
3570.000000 5.36973000e+08
3590.000000 5.25979000e+08
3610.000000 5.17797000e+08
3630.000000 5.09676000e+08
3640.000000 5.08273000e+08
3650.000000 5.00232000e+08
3670.000000 4.93704000e+08
3690.000000 4.76027000e+08
3710.000000 4.81254000e+08
3730.000000 4.88807000e+08
3750.000000 5.51626000e+08
3770.000000 5.55278000e+08
3790.000000 5.72408000e+08
3810.000000 5.95143000e+08
3830.000000 5.27949000e+08
3850.000000 6.03682000e+08
3870.000000 5.96075000e+08
3890.000000 5.06485000e+08
3910.000000 5.87096000e+08
3930.000000 5.71159000e+08
3950.000000 5.68456000e+08
3970.000000 4.71028000e+08
3990.000000 5.48644000e+08
4010.000000 5.40749000e+08
4030.000000 5.17905000e+08
4050.000000 5.27570000e+08
4070.000000 5.16826000e+08
4090.000000 4.93182000e+08
4110.000000 4.37010000e+08
4130.000000 4.87584000e+08
4150.000000 4.82656000e+08
4170.000000 4.77972000e+08
4190.000000 4.72411000e+08
4210.000000 4.65595000e+08
4230.000000 4.58108000e+08
4250.000000 4.50740000e+08
4270.000000 4.41032000e+08
4290.000000 4.37032000e+08
4310.000000 4.29456000e+08
4330.000000 4.03215000e+08
4350.000000 3.68995000e+08
4370.000000 4.09775000e+08
4390.000000 3.98367000e+08
4410.000000 3.98888000e+08
4430.000000 3.91589000e+08
4450.000000 3.87735000e+08
4470.000000 3.71245000e+08
4490.000000 3.75083000e+08
4510.000000 3.71134000e+08
4530.000000 3.65386000e+08
4550.000000 3.60015000e+08
4570.000000 3.54779000e+08
4590.000000 3.49905000e+08
4610.000000 3.44696000e+08
4630.000000 3.39633000e+08
4650.000000 3.34121000e+08
4670.000000 3.30212000e+08
4690.000000 3.25894000e+08
4710.000000 3.17053000e+08
4730.000000 3.15405000e+08
4750.000000 3.10667000e+08
4770.000000 3.08067000e+08
4790.000000 3.03678000e+08
4810.000000 2.99090000e+08
4830.000000 2.94535000e+08
4850.000000 2.80115000e+08
4870.000000 2.51911000e+08
4890.000000 2.82357000e+08
4910.000000 2.79374000e+08
4930.000000 2.70927000e+08
4950.000000 2.71879000e+08
4970.000000 2.68353000e+08
4990.000000 2.64663000e+08
5010.000000 2.57571000e+08
5030.000000 2.57522000e+08
5050.000000 2.51956000e+08
5070.000000 2.50807000e+08
5090.000000 2.47488000e+08
5110.000000 2.44140000e+08
5130.000000 2.40680000e+08
5150.000000 2.37536000e+08
5170.000000 2.34757000e+08
5190.000000 2.31707000e+08
5210.000000 2.28252000e+08
5230.000000 2.25738000e+08
5250.000000 2.22819000e+08
5270.000000 2.19924000e+08
5290.000000 2.17173000e+08
5310.000000 2.14365000e+08
5330.000000 2.11605000e+08
5350.000000 2.08776000e+08
5370.000000 2.06348000e+08
5390.000000 2.03730000e+08
5410.000000 2.01171000e+08
5430.000000 1.98453000e+08
5450.000000 1.96073000e+08
5470.000000 1.93647000e+08
5490.000000 1.91301000e+08
5510.000000 1.88922000e+08
5530.000000 1.86585000e+08
5550.000000 1.84326000e+08
5570.000000 1.82045000e+08
5590.000000 1.79840000e+08
5610.000000 1.77579000e+08
5630.000000 1.75511000e+08
5650.000000 1.73055000e+08
5670.000000 1.70993000e+08
5690.000000 1.68955000e+08
5710.000000 1.67150000e+08
5730.000000 1.65159000e+08
5750.000000 1.63146000e+08
5770.000000 1.61270000e+08
5790.000000 1.59360000e+08
5810.000000 1.57472000e+08
5830.000000 1.55596000e+08
5850.000000 1.53785000e+08
5870.000000 1.48409000e+08
5890.000000 1.49912000e+08
5910.000000 1.48435000e+08
5930.000000 1.46696000e+08
5950.000000 1.44924000e+08
5970.000000 1.43352000e+08
5990.000000 1.41651000e+08
6010.000000 1.40074000e+08
6030.000000 1.38462000e+08
6050.000000 1.36890000e+08
6070.000000 1.35335000e+08
6090.000000 1.33787000e+08
6110.000000 1.32287000e+08
6130.000000 1.30793000e+08
6150.000000 1.29237000e+08
6170.000000 1.27856000e+08
6190.000000 1.26441000e+08
6210.000000 1.25032000e+08
6230.000000 1.23629000e+08
6250.000000 1.22222000e+08
6270.000000 1.20897000e+08
6290.000000 1.19568000e+08
6310.000000 1.18224000e+08
6330.000000 1.16961000e+08
6350.000000 1.15469000e+08
6370.000000 1.14309000e+08
6390.000000 1.13151000e+08
6410.000000 1.11924000e+08
6430.000000 1.10737000e+08
6450.000000 1.09535000e+08
6470.000000 1.08310000e+08
6490.000000 1.07169000e+08
6510.000000 1.06032000e+08
6530.000000 1.04738000e+08
6550.000000 1.01544000e+08
6570.000000 9.09250000e+07
6590.000000 1.00766000e+08
6610.000000 1.00502000e+08
6630.000000 9.94684000e+07
6650.000000 9.84876000e+07
6670.000000 9.67547000e+07
6690.000000 9.57562000e+07
6710.000000 9.54372000e+07
6730.000000 9.44383000e+07
6750.000000 9.34661000e+07
6770.000000 9.25037000e+07
6790.000000 9.14529000e+07
6810.000000 9.05916000e+07
6830.000000 8.96661000e+07
6850.000000 8.87499000e+07
6870.000000 8.78428000e+07
6890.000000 8.69447000e+07
6910.000000 8.60634000e+07
6930.000000 8.51751000e+07
6950.000000 8.43347000e+07
6970.000000 8.34869000e+07
6990.000000 8.26320000e+07
7010.000000 8.18162000e+07
7030.000000 8.09931000e+07
7050.000000 8.01779000e+07
7070.000000 7.82402000e+07
7090.000000 7.86013000e+07
7110.000000 7.78169000e+07
7130.000000 7.70549000e+07
7150.000000 7.62928000e+07
7170.000000 7.55307000e+07
7190.000000 7.48050000e+07
7210.000000 7.40717000e+07
7230.000000 7.29490000e+07
7250.000000 7.26259000e+07
7270.000000 7.19275000e+07
7290.000000 7.07160000e+07
7310.000000 7.05291000e+07
7330.000000 6.98629000e+07
7350.000000 6.91917000e+07
7370.000000 6.85282000e+07
7390.000000 6.78722000e+07
7410.000000 6.72236000e+07
7430.000000 6.65776000e+07
7450.000000 6.59593000e+07
7470.000000 6.53264000e+07
7490.000000 6.47134000e+07
7510.000000 6.40786000e+07
7530.000000 6.35015000e+07
7550.000000 6.29064000e+07
7570.000000 6.23174000e+07
7590.000000 6.17331000e+07
7610.000000 6.11586000e+07
7630.000000 6.05899000e+07
7650.000000 6.00269000e+07
7670.000000 5.94722000e+07
7690.000000 5.89212000e+07
7710.000000 5.83745000e+07
7730.000000 5.78427000e+07
7750.000000 5.73055000e+07
7770.000000 5.66914000e+07
7790.000000 5.62697000e+07
7810.000000 5.57138000e+07
7830.000000 5.52507000e+07
7850.000000 5.47880000e+07
7870.000000 5.42952000e+07
7890.000000 5.37558000e+07
7910.000000 5.33296000e+07
7930.000000 5.27578000e+07
7950.000000 5.22447000e+07
7970.000000 5.17563000e+07
7990.000000 5.13128000e+07
8010.000000 5.08590000e+07
8030.000000 5.04353000e+07
8050.000000 5.00101000e+07
8070.000000 4.96005000e+07
8090.000000 4.90689000e+07
8110.000000 4.86720000e+07
8130.000000 4.83160000e+07
8150.000000 4.78006000e+07
8170.000000 4.74851000e+07
8190.000000 4.70366000e+07
8210.000000 4.64484000e+07
8230.000000 4.61762000e+07
8250.000000 4.57959000e+07
8270.000000 4.51825000e+07
8290.000000 4.49466000e+07
8310.000000 4.45751000e+07
8330.000000 4.41865000e+07
8350.000000 4.36157000e+07
8370.000000 4.32623000e+07
8390.000000 4.29348000e+07
8410.000000 4.25141000e+07
8430.000000 4.21382000e+07
8450.000000 4.16140000e+07
8470.000000 4.10044000e+07
8490.000000 4.14250000e+07
8510.000000 4.00903000e+07
8530.000000 4.10457000e+07
8550.000000 3.87503000e+07
8570.000000 4.10892000e+07
8590.000000 3.88421000e+07
8610.000000 3.84829000e+07
8630.000000 4.06003000e+07
8650.000000 3.94863000e+07
8670.000000 3.59570000e+07
8690.000000 3.98270000e+07
8710.000000 3.98797000e+07
8730.000000 3.87452000e+07
8750.000000 3.46018000e+07
8770.000000 3.77964000e+07
8790.000000 3.86378000e+07
8810.000000 3.83068000e+07
8830.000000 3.79668000e+07
8850.000000 3.60166000e+07
8870.000000 3.31289000e+07
8890.000000 3.68482000e+07
8910.000000 3.67945000e+07
8930.000000 3.64967000e+07
8950.000000 3.63098000e+07
8970.000000 3.59874000e+07
8990.000000 3.52108000e+07
9010.000000 3.16345000e+07
9030.000000 3.33407000e+07
9050.000000 3.47063000e+07
9070.000000 3.43011000e+07
9090.000000 3.41896000e+07
9110.000000 3.40228000e+07
9130.000000 3.37736000e+07
9150.000000 3.35051000e+07
9170.000000 3.31489000e+07
9190.000000 3.28826000e+07
9210.000000 3.18055000e+07
9230.000000 2.83734000e+07
9250.000000 3.14465000e+07
9270.000000 3.17669000e+07
9290.000000 3.16817000e+07
9310.000000 3.13102000e+07
9330.000000 3.11826000e+07
9350.000000 3.09226000e+07
9370.000000 3.07050000e+07
9390.000000 3.04641000e+07
9410.000000 3.01977000e+07
9430.000000 2.99922000e+07
9450.000000 2.97595000e+07
9470.000000 2.93710000e+07
9490.000000 2.92975000e+07
9510.000000 2.87616000e+07
9530.000000 2.78761000e+07
9550.000000 2.51299000e+07
9570.000000 2.79591000e+07
9590.000000 2.81134000e+07
9610.000000 2.78826000e+07
9630.000000 2.76203000e+07
9650.000000 2.75496000e+07
9670.000000 2.73383000e+07
9690.000000 2.71064000e+07
9710.000000 2.68494000e+07
9730.000000 2.67232000e+07
9750.000000 2.65210000e+07
9770.000000 2.63217000e+07
9790.000000 2.61239000e+07
9810.000000 2.59274000e+07
9830.000000 2.57327000e+07
9850.000000 2.55410000e+07
9870.000000 2.53502000e+07
9890.000000 2.51592000e+07
9910.000000 2.49415000e+07
9930.000000 2.47888000e+07
9950.000000 2.46051000e+07
9970.000000 2.44228000e+07
9990.000000 2.42424000e+07
10025.000000 2.32356000e+07
10075.000000 2.25108000e+07
10125.000000 2.30193000e+07
10175.000000 2.26513000e+07
10225.000000 2.22339000e+07
10275.000000 2.18457000e+07
10325.000000 2.13901000e+07
10375.000000 2.10756000e+07
10425.000000 2.07030000e+07
10475.000000 2.03390000e+07
10525.000000 1.99823000e+07
10575.000000 1.96341000e+07
10625.000000 1.92936000e+07
10675.000000 1.89245000e+07
10725.000000 1.86331000e+07
10775.000000 1.83143000e+07
10825.000000 1.78163000e+07
10875.000000 1.76828000e+07
10925.000000 1.63440000e+07
10975.000000 1.68975000e+07
11025.000000 1.67353000e+07
11075.000000 1.65320000e+07
11125.000000 1.62608000e+07
11175.000000 1.59913000e+07
11225.000000 1.57191000e+07
11275.000000 1.54644000e+07
11325.000000 1.52139000e+07
11375.000000 1.49684000e+07
11425.000000 1.47248000e+07
11475.000000 1.44877000e+07
11525.000000 1.42545000e+07
11575.000000 1.40254000e+07
11625.000000 1.38013000e+07
11675.000000 1.35824000e+07
11725.000000 1.33674000e+07
11775.000000 1.31544000e+07
11825.000000 1.29499000e+07
11875.000000 1.27470000e+07
11925.000000 1.25487000e+07
11975.000000 1.22796000e+07
12025.000000 1.21626000e+07
12075.000000 1.19750000e+07
12125.000000 1.17914000e+07
12175.000000 1.16111000e+07
12225.000000 1.14342000e+07
12275.000000 1.12607000e+07
12325.000000 1.10904000e+07
12375.000000 1.09235000e+07
12425.000000 1.07596000e+07
12475.000000 1.05980000e+07
12525.000000 1.04230000e+07
12575.000000 1.02855000e+07
12625.000000 1.01340000e+07
12675.000000 9.98480000e+06
12725.000000 9.83832000e+06
12775.000000 9.58671000e+06
12825.000000 9.00432000e+06
12875.000000 9.39064000e+06
12925.000000 9.27867000e+06
12975.000000 9.10189000e+06
13025.000000 9.01394000e+06
13075.000000 8.88497000e+06
