# Kurucz ODFNEW /NOVER, alpha: 0.0 (2003)
# teff = 9750 K (value for the effective temperature for the model. Temperatures are given in K)
# logg = 5 log(cm/s2) (value for Log(G) for the model.)
# lh = 1.25  (l/Hp where l is the  mixing length of the convective element and Hp is the pressure scale height)
# meta = 0  (value for the Metallicity for the model.)
# vtur = 2 km/s (Microturbulence velocity)
# alpha = 0  (Alpha)
#
# column 1: WAVELENGTH (ANGSTROM), Wavelength in Angstrom
# column 2: FLUX (ERG/CM2/S/A), Flux in erg/cm2/s/A
273.500000 3.15340000e-23
278.500000 1.64671000e-22
284.000000 7.30095000e-22
290.000000 3.41135000e-21
296.000000 1.49697000e-20
301.000000 4.93693000e-20
308.000000 2.47668000e-19
318.000000 2.21554000e-18
328.000000 1.74785000e-17
338.000000 1.23185000e-16
348.000000 7.79907000e-16
357.000000 3.76525000e-15
366.000000 1.69134000e-14
375.000000 7.06684000e-14
385.000000 3.20420000e-13
395.000000 1.34679000e-12
405.000000 5.26813000e-12
414.000000 1.69970000e-11
422.000000 4.61445000e-11
430.000000 1.20574000e-10
441.000000 4.26395000e-10
451.000000 1.27234000e-09
460.000000 3.26238000e-09
470.000000 8.89603000e-09
480.000000 2.32235000e-08
490.000000 5.81993000e-08
500.000000 1.40383000e-07
506.000000 2.35511000e-07
512.000000 3.96168000e-07
520.000000 7.52247000e-07
530.000000 1.63205000e-06
540.000000 3.43359000e-06
550.000000 7.02610000e-06
560.000000 1.40024000e-05
570.000000 2.72001000e-05
580.000000 5.15718000e-05
590.000000 9.56152000e-05
600.000000 1.73400000e-04
610.000000 3.08106000e-04
620.000000 5.36712000e-04
630.000000 9.17496000e-04
640.000000 1.54095000e-03
650.000000 2.54402000e-03
658.000000 3.75482000e-03
665.000000 5.23524000e-03
675.000000 8.31058000e-03
685.000000 1.30010000e-02
695.000000 2.00569000e-02
705.000000 3.05355000e-02
716.000000 4.77805000e-02
726.000000 7.08692000e-02
735.000000 1.00050000e-01
745.000000 1.45214000e-01
755.000000 2.08514000e-01
765.000000 2.96330000e-01
775.000000 4.16982000e-01
785.000000 5.81199000e-01
795.000000 8.02724000e-01
805.000000 1.09893000e+00
815.000000 1.49177000e+00
825.000000 2.00861000e+00
835.000000 2.68337000e+00
845.000000 3.55781000e+00
855.000000 4.68293000e+00
865.000000 6.12052000e+00
875.000000 7.94570000e+00
885.000000 1.02481000e+01
895.000000 1.31339000e+01
905.000000 1.67301000e+01
915.000000 1.21682000e+02
925.000000 8.18469000e+02
935.000000 1.33580000e+03
945.000000 2.09916000e+03
955.000000 2.91780000e+03
965.000000 3.78103000e+03
975.000000 3.43609000e+03
985.000000 5.18058000e+03
995.000000 5.72805000e+03
1005.000000 7.12784000e+03
1015.000000 8.16922000e+03
1025.000000 6.69104000e+03
1035.000000 1.06042000e+04
1045.000000 1.25439000e+04
1055.000000 1.43685000e+04
1065.000000 1.59537000e+04
1075.000000 1.87376000e+04
1085.000000 2.13149000e+04
1095.000000 2.34158000e+04
1105.000000 3.89032000e+04
1115.000000 9.33714000e+04
1125.000000 1.34850000e+05
1135.000000 1.98234000e+05
1145.000000 2.09390000e+05
1155.000000 2.22009000e+05
1165.000000 2.43548000e+05
1175.000000 2.36523000e+05
1185.000000 2.27552000e+05
1195.000000 1.35451000e+05
1205.000000 1.26529000e+05
1215.000000 3.17134000e+04
1225.000000 1.32857000e+05
1235.000000 2.63128000e+05
1245.000000 4.05646000e+05
1255.000000 1.03371000e+06
1265.000000 2.07591000e+06
1275.000000 5.65155000e+06
1285.000000 1.47630000e+07
1295.000000 2.02339000e+07
1305.000000 1.19784000e+07
1315.000000 2.62631000e+07
1325.000000 3.30352000e+07
1335.000000 3.46370000e+07
1345.000000 4.54131000e+07
1355.000000 4.10970000e+07
1365.000000 3.92111000e+07
1375.000000 4.16258000e+07
1385.000000 3.24405000e+07
1395.000000 3.50300000e+07
1405.000000 4.52451000e+07
1415.000000 5.20212000e+07
1425.000000 6.05884000e+07
1435.000000 5.12307000e+07
1442.000000 6.43933000e+07
1447.000000 6.79038000e+07
1455.000000 7.00118000e+07
1465.000000 6.31122000e+07
1475.000000 6.31806000e+07
1485.000000 6.64292000e+07
1495.000000 7.46422000e+07
1505.000000 7.64395000e+07
1512.000000 6.73011000e+07
1517.000000 7.58193000e+07
1525.000000 6.84637000e+07
1535.000000 7.31418000e+07
1545.000000 9.16609000e+07
1555.000000 6.08463000e+07
1565.000000 5.10945000e+07
1575.000000 7.89338000e+07
1585.000000 9.78704000e+07
1595.000000 1.07497000e+08
1605.000000 1.07630000e+08
1615.000000 1.06314000e+08
1625.000000 8.87501000e+07
1635.000000 9.42238000e+07
1645.000000 1.22032000e+08
1655.000000 8.62220000e+07
1665.000000 1.18455000e+08
1672.000000 8.09711000e+07
1677.000000 1.12679000e+08
1685.000000 1.29008000e+08
1695.000000 1.03241000e+08
1705.000000 1.06177000e+08
1715.000000 1.12088000e+08
1725.000000 1.10063000e+08
1735.000000 1.19994000e+08
1745.000000 1.15605000e+08
1755.000000 1.29053000e+08
1765.000000 1.03490000e+08
1775.000000 1.23435000e+08
1785.000000 1.22505000e+08
1795.000000 1.35152000e+08
1805.000000 1.24257000e+08
1815.000000 1.24093000e+08
1825.000000 1.17364000e+08
1835.000000 1.13638000e+08
1845.000000 1.02556000e+08
1855.000000 1.10555000e+08
1865.000000 1.13423000e+08
1875.000000 1.16771000e+08
1885.000000 1.16065000e+08
1895.000000 1.16753000e+08
1905.000000 1.08969000e+08
1915.000000 1.16392000e+08
1925.000000 1.17015000e+08
1935.000000 1.07639000e+08
1945.000000 1.19491000e+08
1955.000000 1.17779000e+08
1967.000000 1.22062000e+08
1976.000000 1.18859000e+08
1984.000000 1.15261000e+08
1995.000000 1.11589000e+08
2005.000000 1.07883000e+08
2015.000000 1.04885000e+08
2025.000000 1.01867000e+08
2035.000000 1.07664000e+08
2045.000000 1.12631000e+08
2055.000000 1.07246000e+08
2065.000000 1.05221000e+08
2074.000000 1.10922000e+08
2078.000000 1.14107000e+08
2085.000000 1.11791000e+08
2095.000000 1.07405000e+08
2105.000000 1.03241000e+08
2115.000000 1.03640000e+08
2125.000000 1.05645000e+08
2135.000000 8.98139000e+07
2145.000000 1.00941000e+08
2155.000000 1.00704000e+08
2165.000000 9.48248000e+07
2175.000000 9.33815000e+07
2185.000000 9.51722000e+07
2195.000000 1.00234000e+08
2205.000000 9.59253000e+07
2215.000000 8.75360000e+07
2225.000000 8.70021000e+07
2235.000000 9.70704000e+07
2245.000000 8.70435000e+07
2255.000000 8.45470000e+07
2265.000000 8.43896000e+07
2275.000000 8.95380000e+07
2285.000000 9.27100000e+07
2295.000000 8.63891000e+07
2305.000000 8.54285000e+07
2315.000000 8.31315000e+07
2325.000000 8.23761000e+07
2335.000000 7.84867000e+07
2345.000000 7.18105000e+07
2355.000000 8.24304000e+07
2365.000000 7.28103000e+07
2375.000000 7.70206000e+07
2385.000000 6.77199000e+07
2395.000000 7.42816000e+07
2405.000000 7.07863000e+07
2415.000000 7.21843000e+07
2425.000000 7.71188000e+07
2435.000000 7.32653000e+07
2445.000000 7.82066000e+07
2455.000000 7.54331000e+07
2465.000000 7.54361000e+07
2475.000000 7.17958000e+07
2485.000000 7.49588000e+07
2495.000000 7.19868000e+07
2505.000000 8.02265000e+07
2513.000000 7.17109000e+07
2518.000000 7.25850000e+07
2525.000000 6.77869000e+07
2535.000000 6.66259000e+07
2545.000000 6.57020000e+07
2555.000000 7.03826000e+07
2565.000000 7.05048000e+07
2575.000000 7.58956000e+07
2585.000000 7.64033000e+07
2595.000000 7.52169000e+07
2605.000000 7.20036000e+07
2615.000000 7.08589000e+07
2625.000000 7.54867000e+07
2635.000000 7.55062000e+07
2645.000000 8.33691000e+07
2655.000000 8.23949000e+07
2665.000000 7.53382000e+07
2675.000000 7.86456000e+07
2685.000000 7.86305000e+07
2695.000000 7.47284000e+07
2705.000000 7.63187000e+07
2715.000000 7.23435000e+07
2725.000000 7.28993000e+07
2735.000000 7.80229000e+07
2745.000000 6.70511000e+07
2755.000000 6.79898000e+07
2765.000000 7.02682000e+07
2775.000000 7.46157000e+07
2785.000000 7.20700000e+07
2795.000000 5.29647000e+07
2805.000000 6.04929000e+07
2815.000000 7.61377000e+07
2825.000000 7.70583000e+07
2835.000000 7.41626000e+07
2845.000000 7.12777000e+07
2855.000000 6.88150000e+07
2865.000000 7.35814000e+07
2875.000000 7.15982000e+07
2885.000000 7.29449000e+07
2895.000000 7.03831000e+07
2910.000000 7.68798000e+07
2930.000000 7.35432000e+07
2950.000000 7.32333000e+07
2970.000000 7.39245000e+07
2990.000000 7.39418000e+07
3010.000000 7.45924000e+07
3030.000000 7.36971000e+07
3050.000000 7.30254000e+07
3070.000000 7.23088000e+07
3090.000000 7.26384000e+07
3110.000000 7.10294000e+07
3130.000000 7.06937000e+07
3150.000000 7.12454000e+07
3170.000000 7.06117000e+07
3190.000000 6.78854000e+07
3210.000000 6.88885000e+07
3230.000000 6.72797000e+07
3250.000000 6.79415000e+07
3270.000000 6.81417000e+07
3290.000000 6.83007000e+07
3310.000000 6.82687000e+07
3330.000000 6.68362000e+07
3350.000000 6.57250000e+07
3370.000000 6.55078000e+07
3390.000000 6.48748000e+07
3410.000000 6.54249000e+07
3430.000000 6.50580000e+07
3450.000000 6.44515000e+07
3470.000000 6.36794000e+07
3490.000000 6.33476000e+07
3510.000000 6.36368000e+07
3530.000000 6.33470000e+07
3550.000000 6.31973000e+07
3570.000000 6.19177000e+07
3590.000000 6.14753000e+07
3610.000000 6.11256000e+07
3630.000000 6.08913000e+07
3640.000000 6.05231000e+07
3650.000000 6.12636000e+07
3670.000000 6.10900000e+07
3690.000000 5.98264000e+07
3710.000000 5.82771000e+07
3730.000000 5.51681000e+07
3750.000000 6.16269000e+07
3770.000000 6.36651000e+07
3790.000000 7.62476000e+07
3810.000000 8.96089000e+07
3830.000000 7.17714000e+07
3850.000000 1.00676000e+08
3870.000000 1.17087000e+08
3890.000000 6.32509000e+07
3910.000000 1.18718000e+08
3930.000000 1.28523000e+08
3950.000000 1.19020000e+08
3970.000000 6.07657000e+07
3990.000000 1.12800000e+08
4010.000000 1.39494000e+08
4030.000000 1.42857000e+08
4050.000000 1.40058000e+08
4070.000000 1.27363000e+08
4090.000000 8.81980000e+07
4110.000000 6.69799000e+07
4130.000000 1.16977000e+08
4150.000000 1.30996000e+08
4170.000000 1.32964000e+08
4190.000000 1.32069000e+08
4210.000000 1.30992000e+08
4230.000000 1.27943000e+08
4250.000000 1.26604000e+08
4270.000000 1.22272000e+08
4290.000000 1.19673000e+08
4310.000000 1.06322000e+08
4330.000000 7.26276000e+07
4350.000000 6.19431000e+07
4370.000000 1.01658000e+08
4390.000000 1.10690000e+08
4410.000000 1.12404000e+08
4430.000000 1.11620000e+08
4450.000000 1.12571000e+08
4470.000000 1.11249000e+08
4490.000000 1.08453000e+08
4510.000000 1.09036000e+08
4530.000000 1.07156000e+08
4550.000000 1.04957000e+08
4570.000000 1.05252000e+08
4590.000000 1.03191000e+08
4610.000000 1.03233000e+08
4630.000000 1.00728000e+08
4650.000000 1.00510000e+08
4670.000000 9.92104000e+07
4690.000000 9.62868000e+07
4710.000000 9.28438000e+07
4730.000000 9.51401000e+07
4750.000000 9.38597000e+07
4770.000000 9.21503000e+07
4790.000000 9.00919000e+07
4810.000000 8.63986000e+07
4830.000000 7.83838000e+07
4850.000000 5.67244000e+07
4870.000000 4.63460000e+07
4890.000000 7.22104000e+07
4910.000000 8.03649000e+07
4930.000000 8.14765000e+07
4950.000000 8.22708000e+07
4970.000000 8.22201000e+07
4990.000000 8.10555000e+07
5010.000000 7.92690000e+07
5030.000000 7.92965000e+07
5050.000000 7.78350000e+07
5070.000000 7.79110000e+07
5090.000000 7.70338000e+07
5110.000000 7.62055000e+07
5130.000000 7.52173000e+07
5150.000000 7.41030000e+07
5170.000000 7.22792000e+07
5190.000000 7.17148000e+07
5210.000000 7.16191000e+07
5230.000000 7.02846000e+07
5250.000000 7.03269000e+07
5270.000000 6.83739000e+07
5290.000000 6.87033000e+07
5310.000000 6.74987000e+07
5330.000000 6.64414000e+07
5350.000000 6.64550000e+07
5370.000000 6.55219000e+07
5390.000000 6.48615000e+07
5410.000000 6.37920000e+07
5430.000000 6.34226000e+07
5450.000000 6.28844000e+07
5470.000000 6.21887000e+07
5490.000000 6.15664000e+07
5510.000000 6.09391000e+07
5530.000000 6.01271000e+07
5550.000000 5.96493000e+07
5570.000000 5.89388000e+07
5590.000000 5.82803000e+07
5610.000000 5.77613000e+07
5630.000000 5.72174000e+07
5650.000000 5.65664000e+07
5670.000000 5.59102000e+07
5690.000000 5.53864000e+07
5710.000000 5.48165000e+07
5730.000000 5.43278000e+07
5750.000000 5.36691000e+07
5770.000000 5.31449000e+07
5790.000000 5.25694000e+07
5810.000000 5.20473000e+07
5830.000000 5.15301000e+07
5850.000000 5.09836000e+07
5870.000000 5.04159000e+07
5890.000000 4.95213000e+07
5910.000000 4.94208000e+07
5930.000000 4.89316000e+07
5950.000000 4.83712000e+07
5970.000000 4.79197000e+07
5990.000000 4.73672000e+07
6010.000000 4.68605000e+07
6030.000000 4.64746000e+07
6050.000000 4.59949000e+07
6070.000000 4.55788000e+07
6090.000000 4.51133000e+07
6110.000000 4.46399000e+07
6130.000000 4.41395000e+07
6150.000000 4.33260000e+07
6170.000000 4.32089000e+07
6190.000000 4.29301000e+07
6210.000000 4.25036000e+07
6230.000000 4.20457000e+07
6250.000000 4.14347000e+07
6270.000000 4.12771000e+07
6290.000000 4.08780000e+07
6310.000000 4.04120000e+07
6330.000000 4.00527000e+07
6350.000000 3.93094000e+07
6370.000000 3.90360000e+07
6390.000000 3.88151000e+07
6410.000000 3.83486000e+07
6430.000000 3.79883000e+07
6450.000000 3.73184000e+07
6470.000000 3.70323000e+07
6490.000000 3.63187000e+07
6510.000000 3.53750000e+07
6530.000000 3.33033000e+07
6550.000000 2.77517000e+07
6570.000000 2.26684000e+07
6590.000000 3.07599000e+07
6610.000000 3.32608000e+07
6630.000000 3.38995000e+07
6650.000000 3.39565000e+07
6670.000000 3.38049000e+07
6690.000000 3.36089000e+07
6710.000000 3.33587000e+07
6730.000000 3.30542000e+07
6750.000000 3.27702000e+07
6770.000000 3.25621000e+07
6790.000000 3.22692000e+07
6810.000000 3.19841000e+07
6830.000000 3.16646000e+07
6850.000000 3.13941000e+07
6870.000000 3.11221000e+07
6890.000000 3.08489000e+07
6910.000000 3.05656000e+07
6930.000000 3.02828000e+07
6950.000000 3.00182000e+07
6970.000000 2.97470000e+07
6990.000000 2.94952000e+07
7010.000000 2.91562000e+07
7030.000000 2.89448000e+07
7050.000000 2.86959000e+07
7070.000000 2.84622000e+07
7090.000000 2.82164000e+07
7110.000000 2.77002000e+07
7130.000000 2.76688000e+07
7150.000000 2.74324000e+07
7170.000000 2.72188000e+07
7190.000000 2.69772000e+07
7210.000000 2.67531000e+07
7230.000000 2.65181000e+07
7250.000000 2.62515000e+07
7270.000000 2.60759000e+07
7290.000000 2.58196000e+07
7310.000000 2.56144000e+07
7330.000000 2.53991000e+07
7350.000000 2.51983000e+07
7370.000000 2.49868000e+07
7390.000000 2.47565000e+07
7410.000000 2.45215000e+07
7430.000000 2.42573000e+07
7450.000000 2.40940000e+07
7470.000000 2.38166000e+07
7490.000000 2.36668000e+07
7510.000000 2.35128000e+07
7530.000000 2.33316000e+07
7550.000000 2.31540000e+07
7570.000000 2.29575000e+07
7590.000000 2.27693000e+07
7610.000000 2.25828000e+07
7630.000000 2.23901000e+07
7650.000000 2.21960000e+07
7670.000000 2.19926000e+07
7690.000000 2.18210000e+07
7710.000000 2.16446000e+07
7730.000000 2.14855000e+07
7750.000000 2.13026000e+07
7770.000000 2.07201000e+07
7790.000000 2.09664000e+07
7810.000000 2.07956000e+07
7830.000000 2.06028000e+07
7850.000000 2.04093000e+07
7870.000000 2.01877000e+07
7890.000000 1.99875000e+07
7910.000000 1.99112000e+07
7930.000000 1.97738000e+07
7950.000000 1.95456000e+07
7970.000000 1.94939000e+07
7990.000000 1.91586000e+07
8010.000000 1.91747000e+07
8030.000000 1.90121000e+07
8050.000000 1.88735000e+07
8070.000000 1.87165000e+07
8090.000000 1.85711000e+07
8110.000000 1.84326000e+07
8130.000000 1.82959000e+07
8150.000000 1.81523000e+07
8170.000000 1.80116000e+07
8190.000000 1.77530000e+07
8210.000000 1.76672000e+07
8230.000000 1.75158000e+07
8250.000000 1.74160000e+07
8270.000000 1.74057000e+07
8290.000000 1.72659000e+07
8310.000000 1.71474000e+07
8330.000000 1.69338000e+07
8350.000000 1.69052000e+07
8370.000000 1.67933000e+07
8390.000000 1.66598000e+07
8410.000000 1.65407000e+07
8430.000000 1.63987000e+07
8450.000000 1.60785000e+07
8470.000000 1.61035000e+07
8490.000000 1.60016000e+07
8510.000000 1.56211000e+07
8530.000000 1.57685000e+07
8550.000000 1.49666000e+07
8570.000000 1.56386000e+07
8590.000000 1.50185000e+07
8610.000000 1.48167000e+07
8630.000000 1.54381000e+07
8650.000000 1.48597000e+07
8670.000000 1.33353000e+07
8690.000000 1.48809000e+07
8710.000000 1.53261000e+07
8730.000000 1.46282000e+07
8750.000000 1.23201000e+07
8770.000000 1.39259000e+07
8790.000000 1.51079000e+07
8810.000000 1.52437000e+07
8830.000000 1.46862000e+07
8850.000000 1.29249000e+07
8870.000000 1.13713000e+07
8890.000000 1.38123000e+07
8910.000000 1.47293000e+07
8930.000000 1.49884000e+07
8950.000000 1.50080000e+07
8970.000000 1.45268000e+07
8990.000000 1.34121000e+07
9010.000000 1.08438000e+07
9030.000000 1.16247000e+07
9050.000000 1.34947000e+07
9070.000000 1.40109000e+07
9090.000000 1.41280000e+07
9110.000000 1.44056000e+07
9130.000000 1.43995000e+07
9150.000000 1.42417000e+07
9170.000000 1.38754000e+07
9190.000000 1.31893000e+07
9210.000000 1.18321000e+07
9230.000000 9.48402000e+06
9250.000000 1.13465000e+07
9270.000000 1.25018000e+07
9290.000000 1.32617000e+07
9310.000000 1.34621000e+07
9330.000000 1.34919000e+07
9350.000000 1.34734000e+07
9370.000000 1.34117000e+07
9390.000000 1.32568000e+07
9410.000000 1.29478000e+07
9430.000000 1.30399000e+07
9450.000000 1.29042000e+07
9470.000000 1.26851000e+07
9490.000000 1.23225000e+07
9510.000000 1.16622000e+07
9530.000000 1.03282000e+07
9550.000000 8.51212000e+06
9570.000000 1.04346000e+07
9590.000000 1.14570000e+07
9610.000000 1.18242000e+07
9630.000000 1.18637000e+07
9650.000000 1.20375000e+07
9670.000000 1.19309000e+07
9690.000000 1.19399000e+07
9710.000000 1.19323000e+07
9730.000000 1.18535000e+07
9750.000000 1.17645000e+07
9770.000000 1.17069000e+07
9790.000000 1.16253000e+07
9810.000000 1.15404000e+07
9830.000000 1.14404000e+07
9850.000000 1.13404000e+07
9870.000000 1.12520000e+07
9890.000000 1.11002000e+07
9910.000000 1.10647000e+07
9930.000000 1.09521000e+07
9950.000000 1.08309000e+07
9970.000000 1.06632000e+07
9990.000000 1.03853000e+07
10025.000000 9.06207000e+06
10075.000000 8.59860000e+06
10125.000000 9.95884000e+06
10175.000000 1.00886000e+07
10225.000000 9.99561000e+06
10275.000000 9.84897000e+06
10325.000000 9.69691000e+06
10375.000000 9.53998000e+06
10425.000000 9.38282000e+06
10475.000000 9.17810000e+06
10525.000000 9.04860000e+06
10575.000000 8.91034000e+06
10625.000000 8.77162000e+06
10675.000000 8.49856000e+06
10725.000000 8.42179000e+06
10775.000000 8.28638000e+06
10825.000000 8.08270000e+06
10875.000000 7.69318000e+06
10925.000000 6.29915000e+06
10975.000000 6.87993000e+06
11025.000000 7.49147000e+06
11075.000000 7.52933000e+06
11125.000000 7.44993000e+06
11175.000000 7.35234000e+06
11225.000000 7.25589000e+06
11275.000000 7.06070000e+06
11325.000000 6.95972000e+06
11375.000000 6.91177000e+06
11425.000000 6.79686000e+06
11475.000000 6.72030000e+06
11525.000000 6.62241000e+06
11575.000000 6.52061000e+06
11625.000000 6.38435000e+06
11675.000000 6.25820000e+06
11725.000000 6.23317000e+06
11775.000000 6.05862000e+06
11825.000000 6.01477000e+06
11875.000000 5.90865000e+06
11925.000000 5.87484000e+06
11975.000000 5.75863000e+06
12025.000000 5.69338000e+06
12075.000000 5.60137000e+06
12125.000000 5.52375000e+06
12175.000000 5.45433000e+06
12225.000000 5.37300000e+06
12275.000000 5.28782000e+06
12325.000000 5.21574000e+06
12375.000000 5.14612000e+06
12425.000000 5.08014000e+06
12475.000000 4.99351000e+06
12525.000000 4.92706000e+06
12575.000000 4.82840000e+06
12625.000000 4.76092000e+06
12675.000000 4.68521000e+06
12725.000000 4.55494000e+06
12775.000000 4.24027000e+06
12825.000000 3.60649000e+06
12875.000000 4.18556000e+06
12925.000000 4.32418000e+06
12975.000000 4.31732000e+06
13025.000000 4.27802000e+06
13075.000000 4.22862000e+06
13125.000000 4.17831000e+06
13175.000000 4.11323000e+06
13225.000000 4.07013000e+06
13275.000000 4.01558000e+06
13325.000000 3.96259000e+06
13375.000000 3.90985000e+06
13425.000000 3.85758000e+06
13475.000000 3.80598000e+06
13525.000000 3.75008000e+06
13575.000000 3.70268000e+06
13625.000000 3.65729000e+06
13675.000000 3.60743000e+06
13725.000000 3.54859000e+06
13775.000000 3.51474000e+06
13825.000000 3.47024000e+06
13875.000000 3.42904000e+06
13925.000000 3.37920000e+06
13975.000000 3.33982000e+06
14025.000000 3.29805000e+06
14075.000000 3.25697000e+06
14125.000000 3.21432000e+06
14175.000000 3.17424000e+06
14225.000000 3.13391000e+06
14275.000000 3.09406000e+06
14325.000000 3.05598000e+06
14375.000000 3.01889000e+06
14425.000000 2.95129000e+06
14475.000000 2.94334000e+06
14525.000000 2.89329000e+06
