# Kurucz ODFNEW /NOVER, alpha: 0.0 (2003)
# teff = 7250 K (value for the effective temperature for the model. Temperatures are given in K)
# logg = 0.5 log(cm/s2) (value for Log(G) for the model.)
# lh = 1.25  (l/Hp where l is the  mixing length of the convective element and Hp is the pressure scale height)
# meta = 0.2  (value for the Metallicity for the model.)
# vtur = 2 km/s (Microturbulence velocity)
# alpha = 0  (Alpha)
#
# column 1: WAVELENGTH (ANGSTROM), Wavelength in Angstrom
# column 2: FLUX (ERG/CM2/S/A), Flux in erg/cm2/s/A
385.000000 1.50405000e-26
395.000000 1.19286000e-25
405.000000 8.49878000e-25
414.000000 4.57031000e-24
422.000000 1.91246000e-23
430.000000 7.56495000e-23
441.000000 4.59984000e-22
451.000000 2.18832000e-21
460.000000 8.37724000e-21
470.000000 3.49306000e-20
480.000000 1.36707000e-19
490.000000 5.04466000e-19
500.000000 1.75918000e-18
506.000000 4.81999000e-18
512.000000 1.09993000e-17
520.000000 2.73672000e-17
530.000000 8.25827000e-17
540.000000 2.34332000e-16
550.000000 6.48547000e-16
560.000000 1.71510000e-15
570.000000 4.36816000e-15
580.000000 1.06186000e-14
590.000000 2.55475000e-14
600.000000 5.88797000e-14
610.000000 1.31951000e-13
620.000000 2.87026000e-13
630.000000 6.07893000e-13
640.000000 1.25481000e-12
650.000000 2.53064000e-12
658.000000 4.35972000e-12
665.000000 6.92182000e-12
675.000000 1.31989000e-11
685.000000 2.46467000e-11
695.000000 4.51303000e-11
705.000000 8.06176000e-11
716.000000 1.51065000e-10
726.000000 2.61385000e-10
735.000000 4.22103000e-10
745.000000 7.07676000e-10
755.000000 1.16953000e-09
765.000000 1.90526000e-09
775.000000 3.06044000e-09
785.000000 4.85559000e-09
795.000000 7.51283000e-09
805.000000 1.16677000e-08
815.000000 1.78926000e-08
825.000000 2.70105000e-08
835.000000 4.03149000e-08
845.000000 5.95570000e-08
855.000000 8.70571000e-08
865.000000 1.26000000e-07
875.000000 1.79826000e-07
885.000000 2.56425000e-07
895.000000 3.61019000e-07
905.000000 5.00221000e-07
915.000000 3.94942000e-04
925.000000 1.22720000e-03
935.000000 1.66903000e-03
945.000000 2.31224000e-03
955.000000 3.39221000e-03
965.000000 4.67056000e-03
975.000000 6.19927000e-03
985.000000 8.20691000e-03
995.000000 1.05516000e-02
1005.000000 1.48946000e-02
1015.000000 1.96420000e-02
1025.000000 2.48139000e-02
1035.000000 3.28403000e-02
1045.000000 4.30262000e-02
1055.000000 5.54724000e-02
1065.000000 6.92493000e-02
1075.000000 8.93328000e-02
1085.000000 1.13624000e-01
1095.000000 1.39915000e-01
1105.000000 5.07078000e-01
1115.000000 1.90618000e+00
1125.000000 2.89647000e+00
1135.000000 4.08598000e+00
1145.000000 5.22124000e+00
1155.000000 5.83609000e+00
1165.000000 8.03880000e+00
1175.000000 9.32720000e+00
1185.000000 1.00397000e+01
1195.000000 3.99252000e+00
1205.000000 3.85726000e+00
1215.000000 9.36933000e-01
1225.000000 4.72875000e+00
1235.000000 1.30865000e+01
1245.000000 3.18659000e+01
1255.000000 7.96214000e+01
1265.000000 7.64630000e+01
1275.000000 1.67785000e+02
1285.000000 2.91555000e+02
1295.000000 3.96874000e+02
1305.000000 2.42360000e+02
1315.000000 5.90619000e+02
1325.000000 8.05506000e+02
1335.000000 8.37747000e+02
1345.000000 1.31916000e+03
1355.000000 1.39447000e+03
1365.000000 1.54918000e+03
1375.000000 1.75416000e+03
1385.000000 2.06097000e+03
1395.000000 2.52189000e+03
1405.000000 2.95483000e+03
1415.000000 2.94633000e+03
1425.000000 3.65352000e+03
1435.000000 3.69736000e+03
1442.000000 4.46869000e+03
1447.000000 5.11384000e+03
1455.000000 6.23242000e+03
1465.000000 6.36792000e+03
1475.000000 7.30489000e+03
1485.000000 8.54841000e+03
1495.000000 1.04620000e+04
1505.000000 1.18621000e+04
1512.000000 1.18359000e+04
1517.000000 1.06779000e+04
1525.000000 1.07878000e+04
1535.000000 1.92344000e+04
1545.000000 6.34957000e+04
1555.000000 4.75004000e+04
1565.000000 3.14046000e+04
1575.000000 7.26631000e+04
1585.000000 9.98214000e+04
1595.000000 1.75006000e+05
1605.000000 1.21618000e+05
1615.000000 9.28743000e+04
1625.000000 7.13505000e+04
1635.000000 7.64374000e+04
1645.000000 1.14002000e+05
1655.000000 5.20182000e+04
1665.000000 7.70303000e+04
1672.000000 2.38887000e+04
1677.000000 2.03426000e+05
1685.000000 4.18815000e+05
1695.000000 5.56448000e+05
1705.000000 4.18377000e+05
1715.000000 7.09493000e+05
1725.000000 1.01458000e+06
1735.000000 1.45174000e+06
1745.000000 1.01453000e+06
1755.000000 1.65515000e+06
1765.000000 1.26470000e+06
1775.000000 1.87419000e+06
1785.000000 1.31338000e+06
1795.000000 2.53665000e+06
1805.000000 1.86467000e+06
1815.000000 2.38213000e+06
1825.000000 1.85388000e+06
1835.000000 1.59453000e+06
1845.000000 1.61083000e+06
1855.000000 2.04840000e+06
1865.000000 2.38858000e+06
1875.000000 2.17725000e+06
1885.000000 2.36414000e+06
1895.000000 2.77011000e+06
1905.000000 2.38140000e+06
1915.000000 2.46025000e+06
1925.000000 2.35678000e+06
1935.000000 1.40158000e+06
1945.000000 3.04279000e+06
1955.000000 3.19282000e+06
1967.000000 3.70840000e+06
1976.000000 3.54145000e+06
1984.000000 3.58157000e+06
1995.000000 3.50195000e+06
2005.000000 3.13433000e+06
2015.000000 2.60736000e+06
2025.000000 2.50873000e+06
2035.000000 3.26903000e+06
2045.000000 3.80312000e+06
2055.000000 2.92059000e+06
2065.000000 2.70084000e+06
2074.000000 4.11703000e+06
2078.000000 4.63679000e+06
2085.000000 4.40093000e+06
2095.000000 4.03061000e+06
2105.000000 3.78861000e+06
2115.000000 3.79532000e+06
2125.000000 3.91369000e+06
2135.000000 2.72343000e+06
2145.000000 3.66370000e+06
2155.000000 3.95134000e+06
2165.000000 3.04986000e+06
2175.000000 3.29877000e+06
2185.000000 3.51066000e+06
2195.000000 4.25879000e+06
2205.000000 3.77502000e+06
2215.000000 2.70010000e+06
2225.000000 2.56600000e+06
2235.000000 4.01231000e+06
2245.000000 3.48122000e+06
2255.000000 2.45625000e+06
2265.000000 2.33099000e+06
2275.000000 3.25688000e+06
2285.000000 3.50839000e+06
2295.000000 3.24650000e+06
2305.000000 3.40877000e+06
2315.000000 2.98847000e+06
2325.000000 2.71862000e+06
2335.000000 1.29964000e+06
2345.000000 8.81087000e+05
2355.000000 1.89593000e+06
2365.000000 8.51834000e+05
2375.000000 1.31433000e+06
2385.000000 6.35898000e+05
2395.000000 9.04514000e+05
2405.000000 8.50308000e+05
2415.000000 1.50253000e+06
2425.000000 3.26496000e+06
2435.000000 3.09721000e+06
2445.000000 3.51564000e+06
2455.000000 3.53525000e+06
2465.000000 3.17827000e+06
2475.000000 3.01931000e+06
2485.000000 3.10707000e+06
2495.000000 3.02587000e+06
2505.000000 4.28972000e+06
2513.000000 2.94718000e+06
2518.000000 3.48433000e+06
2525.000000 2.54343000e+06
2535.000000 2.54380000e+06
2545.000000 2.58533000e+06
2555.000000 3.37491000e+06
2565.000000 2.45441000e+06
2575.000000 2.98009000e+06
2585.000000 2.37080000e+06
2595.000000 1.90652000e+06
2605.000000 1.51163000e+06
2615.000000 1.42627000e+06
2625.000000 1.99222000e+06
2635.000000 3.23636000e+06
2645.000000 5.76077000e+06
2655.000000 6.02690000e+06
2665.000000 4.43341000e+06
2675.000000 5.02041000e+06
2685.000000 4.92100000e+06
2695.000000 4.70327000e+06
2705.000000 5.11963000e+06
2715.000000 3.94371000e+06
2725.000000 3.98792000e+06
2735.000000 4.12038000e+06
2745.000000 1.86164000e+06
2755.000000 2.42967000e+06
2765.000000 3.14349000e+06
2775.000000 3.89277000e+06
2785.000000 2.60104000e+06
2795.000000 8.79997000e+05
2805.000000 1.13828000e+06
2815.000000 3.39560000e+06
2825.000000 5.18600000e+06
2835.000000 5.16869000e+06
2845.000000 5.16826000e+06
2855.000000 4.45650000e+06
2865.000000 5.67787000e+06
2875.000000 5.55321000e+06
2885.000000 5.88095000e+06
2895.000000 5.52169000e+06
2910.000000 7.03134000e+06
2930.000000 6.47929000e+06
2950.000000 6.35321000e+06
2970.000000 7.20197000e+06
2990.000000 7.30190000e+06
3010.000000 7.90167000e+06
3030.000000 7.82519000e+06
3050.000000 7.81402000e+06
3070.000000 7.77170000e+06
3090.000000 8.39070000e+06
3110.000000 7.99178000e+06
3130.000000 7.88460000e+06
3150.000000 8.50085000e+06
3170.000000 8.34631000e+06
3190.000000 7.59671000e+06
3210.000000 8.31254000e+06
3230.000000 7.64588000e+06
3250.000000 8.43838000e+06
3270.000000 8.81075000e+06
3290.000000 8.87380000e+06
3310.000000 9.26273000e+06
3330.000000 8.95373000e+06
3350.000000 8.81055000e+06
3370.000000 8.58322000e+06
3390.000000 8.97036000e+06
3410.000000 9.39029000e+06
3430.000000 9.61028000e+06
3450.000000 9.57800000e+06
3470.000000 9.36528000e+06
3490.000000 9.21588000e+06
3510.000000 9.74657000e+06
3530.000000 9.89644000e+06
3550.000000 1.04052000e+07
3570.000000 9.70134000e+06
3590.000000 9.84873000e+06
3610.000000 9.93937000e+06
3630.000000 1.01981000e+07
3640.000000 9.92662000e+06
3650.000000 1.05035000e+07
3670.000000 1.05269000e+07
3690.000000 1.18604000e+07
3710.000000 1.62304000e+07
3730.000000 2.63339000e+07
3750.000000 3.60830000e+07
3770.000000 3.67481000e+07
3790.000000 4.23359000e+07
3810.000000 4.61254000e+07
3830.000000 3.82844000e+07
3850.000000 4.58124000e+07
3870.000000 4.80442000e+07
3890.000000 3.83797000e+07
3910.000000 4.35400000e+07
3930.000000 2.32391000e+07
3950.000000 3.91277000e+07
3970.000000 2.46581000e+07
3990.000000 4.50037000e+07
4010.000000 4.64091000e+07
4030.000000 4.55530000e+07
4050.000000 4.50169000e+07
4070.000000 4.42549000e+07
4090.000000 4.56203000e+07
4110.000000 3.83373000e+07
4130.000000 4.41799000e+07
4150.000000 4.53563000e+07
4170.000000 4.34620000e+07
4190.000000 4.34880000e+07
4210.000000 4.29546000e+07
4230.000000 4.21178000e+07
4250.000000 4.25441000e+07
4270.000000 4.12332000e+07
4290.000000 4.19673000e+07
4310.000000 3.93885000e+07
4330.000000 3.90134000e+07
4350.000000 3.43889000e+07
4370.000000 4.12596000e+07
4390.000000 3.99540000e+07
4410.000000 3.87808000e+07
4430.000000 3.90610000e+07
4450.000000 3.93043000e+07
4470.000000 3.91966000e+07
4490.000000 3.91378000e+07
4510.000000 3.99027000e+07
4530.000000 3.80385000e+07
4550.000000 3.72116000e+07
4570.000000 3.88258000e+07
4590.000000 3.68842000e+07
4610.000000 3.85963000e+07
4630.000000 3.71775000e+07
4650.000000 3.78498000e+07
4670.000000 3.75073000e+07
4690.000000 3.65098000e+07
4710.000000 3.52800000e+07
4730.000000 3.64658000e+07
4750.000000 3.67671000e+07
4770.000000 3.58501000e+07
4790.000000 3.56942000e+07
4810.000000 3.52987000e+07
4830.000000 3.48826000e+07
4850.000000 3.19722000e+07
4870.000000 2.63253000e+07
4890.000000 3.35813000e+07
4910.000000 3.35145000e+07
4930.000000 3.23829000e+07
4950.000000 3.31242000e+07
4970.000000 3.33706000e+07
4990.000000 3.16436000e+07
5010.000000 3.00992000e+07
5030.000000 3.10753000e+07
5050.000000 3.08607000e+07
5070.000000 3.12084000e+07
5090.000000 3.07527000e+07
5110.000000 3.05572000e+07
5130.000000 2.95421000e+07
5150.000000 2.90020000e+07
5170.000000 2.84215000e+07
5190.000000 2.81875000e+07
5210.000000 2.81394000e+07
5230.000000 2.79012000e+07
5250.000000 2.82549000e+07
5270.000000 2.65623000e+07
5290.000000 2.78198000e+07
5310.000000 2.69385000e+07
5330.000000 2.64543000e+07
5350.000000 2.72585000e+07
5370.000000 2.70310000e+07
5390.000000 2.64820000e+07
5410.000000 2.59815000e+07
5430.000000 2.58658000e+07
5450.000000 2.62483000e+07
5470.000000 2.58389000e+07
5490.000000 2.57098000e+07
5510.000000 2.53348000e+07
5530.000000 2.52148000e+07
5550.000000 2.52755000e+07
5570.000000 2.48964000e+07
5590.000000 2.47222000e+07
5610.000000 2.46683000e+07
5630.000000 2.45124000e+07
5650.000000 2.40547000e+07
5670.000000 2.36732000e+07
5690.000000 2.38527000e+07
5710.000000 2.36651000e+07
5730.000000 2.36930000e+07
5750.000000 2.33530000e+07
5770.000000 2.32162000e+07
5790.000000 2.28718000e+07
5810.000000 2.27291000e+07
5830.000000 2.25225000e+07
5850.000000 2.23864000e+07
5870.000000 2.22297000e+07
5890.000000 2.16001000e+07
5910.000000 2.17810000e+07
5930.000000 2.15764000e+07
5950.000000 2.13444000e+07
5970.000000 2.12703000e+07
5990.000000 2.09080000e+07
6010.000000 2.06815000e+07
6030.000000 2.06409000e+07
6050.000000 2.04264000e+07
6070.000000 2.03718000e+07
6090.000000 2.00757000e+07
6110.000000 1.97971000e+07
6130.000000 1.94977000e+07
6150.000000 1.90075000e+07
6170.000000 1.91873000e+07
6190.000000 1.92749000e+07
6210.000000 1.91676000e+07
6230.000000 1.87720000e+07
6250.000000 1.80753000e+07
6270.000000 1.87105000e+07
6290.000000 1.85365000e+07
6310.000000 1.80530000e+07
6330.000000 1.81121000e+07
6350.000000 1.78599000e+07
6370.000000 1.77312000e+07
6390.000000 1.76776000e+07
6410.000000 1.73832000e+07
6430.000000 1.73472000e+07
6450.000000 1.69391000e+07
6470.000000 1.71756000e+07
6490.000000 1.66388000e+07
6510.000000 1.66994000e+07
6530.000000 1.66689000e+07
6550.000000 1.54643000e+07
6570.000000 1.22074000e+07
6590.000000 1.60431000e+07
6610.000000 1.60617000e+07
6630.000000 1.61133000e+07
6650.000000 1.59918000e+07
6670.000000 1.58105000e+07
6690.000000 1.57321000e+07
6710.000000 1.56150000e+07
6730.000000 1.54733000e+07
6750.000000 1.53123000e+07
6770.000000 1.53000000e+07
6790.000000 1.51128000e+07
6810.000000 1.50526000e+07
6830.000000 1.48353000e+07
6850.000000 1.47536000e+07
6870.000000 1.46934000e+07
6890.000000 1.45884000e+07
6910.000000 1.44599000e+07
6930.000000 1.43303000e+07
6950.000000 1.42331000e+07
6970.000000 1.40988000e+07
6990.000000 1.40198000e+07
7010.000000 1.37421000e+07
7030.000000 1.37677000e+07
7050.000000 1.36813000e+07
7070.000000 1.35920000e+07
7090.000000 1.34989000e+07
7110.000000 1.30788000e+07
7130.000000 1.31723000e+07
7150.000000 1.31171000e+07
7170.000000 1.30301000e+07
7190.000000 1.28637000e+07
7210.000000 1.27946000e+07
7230.000000 1.26684000e+07
7250.000000 1.25993000e+07
7270.000000 1.25572000e+07
7290.000000 1.23863000e+07
7310.000000 1.22495000e+07
7330.000000 1.22157000e+07
7350.000000 1.21424000e+07
7370.000000 1.21348000e+07
7390.000000 1.19706000e+07
7410.000000 1.18155000e+07
7430.000000 1.16708000e+07
7450.000000 1.16469000e+07
7470.000000 1.14853000e+07
7490.000000 1.14657000e+07
7510.000000 1.13900000e+07
7530.000000 1.13681000e+07
7550.000000 1.13622000e+07
7570.000000 1.12141000e+07
7590.000000 1.11800000e+07
7610.000000 1.11089000e+07
7630.000000 1.10288000e+07
7650.000000 1.08765000e+07
7670.000000 1.07731000e+07
7690.000000 1.07503000e+07
7710.000000 1.06147000e+07
7730.000000 1.06173000e+07
7750.000000 1.05331000e+07
7770.000000 1.02118000e+07
7790.000000 1.04183000e+07
7810.000000 1.03311000e+07
7830.000000 1.01960000e+07
7850.000000 1.00647000e+07
7870.000000 1.00379000e+07
7890.000000 9.92596000e+06
7910.000000 9.87462000e+06
7930.000000 9.82907000e+06
7950.000000 9.69980000e+06
7970.000000 9.77039000e+06
7990.000000 9.55218000e+06
8010.000000 9.60318000e+06
8030.000000 9.51158000e+06
8050.000000 9.47891000e+06
8070.000000 9.39323000e+06
8090.000000 9.33073000e+06
8110.000000 9.29336000e+06
8130.000000 9.24769000e+06
8150.000000 9.18024000e+06
8170.000000 9.11672000e+06
8190.000000 8.89196000e+06
8210.000000 8.85987000e+06
8230.000000 8.80740000e+06
8250.000000 8.76365000e+06
8270.000000 8.82707000e+06
8290.000000 8.73629000e+06
8310.000000 8.62446000e+06
8330.000000 8.42456000e+06
8350.000000 8.56472000e+06
8370.000000 8.32057000e+06
8390.000000 8.41046000e+06
8410.000000 8.40939000e+06
8430.000000 8.65368000e+06
8450.000000 8.44235000e+06
8470.000000 8.28542000e+06
8490.000000 8.86212000e+06
8510.000000 7.93773000e+06
8530.000000 9.01530000e+06
8550.000000 7.11381000e+06
8570.000000 9.38478000e+06
8590.000000 8.92043000e+06
8610.000000 8.68440000e+06
8630.000000 9.63614000e+06
8650.000000 9.42296000e+06
8670.000000 7.18387000e+06
8690.000000 9.20221000e+06
8710.000000 9.48427000e+06
8730.000000 9.35436000e+06
8750.000000 7.83056000e+06
8770.000000 9.20898000e+06
8790.000000 9.29730000e+06
8810.000000 9.18621000e+06
8830.000000 8.93253000e+06
8850.000000 8.71953000e+06
8870.000000 7.55739000e+06
8890.000000 8.90722000e+06
8910.000000 8.86016000e+06
8930.000000 8.76855000e+06
8950.000000 8.79948000e+06
8970.000000 8.72377000e+06
8990.000000 8.59690000e+06
9010.000000 7.40046000e+06
9030.000000 8.10694000e+06
9050.000000 8.49064000e+06
9070.000000 8.18626000e+06
9090.000000 8.05042000e+06
9110.000000 8.21121000e+06
9130.000000 8.23539000e+06
9150.000000 8.24802000e+06
9170.000000 8.14667000e+06
9190.000000 8.02382000e+06
9210.000000 7.85711000e+06
9230.000000 6.55086000e+06
9250.000000 7.60261000e+06
9270.000000 7.62903000e+06
9290.000000 7.83543000e+06
9310.000000 7.80180000e+06
9330.000000 7.72208000e+06
9350.000000 7.69985000e+06
9370.000000 7.66744000e+06
9390.000000 7.53313000e+06
9410.000000 7.25055000e+06
9430.000000 7.40962000e+06
9450.000000 7.39812000e+06
9470.000000 7.38076000e+06
9490.000000 7.36224000e+06
9510.000000 7.28382000e+06
9530.000000 7.13713000e+06
9550.000000 6.00603000e+06
9570.000000 7.06772000e+06
9590.000000 7.10914000e+06
9610.000000 6.99351000e+06
9630.000000 6.84830000e+06
9650.000000 6.93403000e+06
9670.000000 6.80385000e+06
9690.000000 6.78502000e+06
9710.000000 6.85340000e+06
9730.000000 6.79421000e+06
9750.000000 6.68552000e+06
9770.000000 6.71817000e+06
9790.000000 6.66913000e+06
9810.000000 6.61182000e+06
9830.000000 6.56389000e+06
9850.000000 6.46116000e+06
9870.000000 6.44854000e+06
9890.000000 6.37434000e+06
9910.000000 6.36935000e+06
9930.000000 6.33913000e+06
9950.000000 6.29313000e+06
9970.000000 6.29330000e+06
9990.000000 6.25000000e+06
10025.000000 6.01564000e+06
10075.000000 5.73154000e+06
10125.000000 5.89666000e+06
10175.000000 5.86105000e+06
10225.000000 5.79738000e+06
10275.000000 5.72326000e+06
10325.000000 5.59127000e+06
10375.000000 5.52911000e+06
10425.000000 5.45124000e+06
10475.000000 5.28568000e+06
10525.000000 5.23184000e+06
10575.000000 5.18114000e+06
10625.000000 5.10512000e+06
10675.000000 4.93575000e+06
10725.000000 4.92325000e+06
10775.000000 4.85949000e+06
10825.000000 4.79091000e+06
10875.000000 4.72594000e+06
10925.000000 4.32611000e+06
10975.000000 4.54513000e+06
11025.000000 4.55854000e+06
11075.000000 4.49782000e+06
11125.000000 4.41395000e+06
11175.000000 4.35584000e+06
11225.000000 4.30307000e+06
11275.000000 4.14882000e+06
11325.000000 4.09875000e+06
11375.000000 4.09454000e+06
11425.000000 4.00885000e+06
11475.000000 4.00460000e+06
11525.000000 3.95319000e+06
11575.000000 3.88790000e+06
11625.000000 3.77926000e+06
11675.000000 3.70661000e+06
11725.000000 3.73343000e+06
11775.000000 3.60724000e+06
11825.000000 3.58758000e+06
11875.000000 3.51522000e+06
11925.000000 3.53852000e+06
11975.000000 3.44624000e+06
12025.000000 3.42416000e+06
12075.000000 3.36847000e+06
12125.000000 3.32640000e+06
12175.000000 3.29405000e+06
12225.000000 3.24296000e+06
12275.000000 3.19434000e+06
12325.000000 3.15558000e+06
12375.000000 3.11906000e+06
12425.000000 3.08693000e+06
12475.000000 3.03319000e+06
12525.000000 2.99461000e+06
12575.000000 2.93249000e+06
12625.000000 2.91096000e+06
12675.000000 2.88616000e+06
12725.000000 2.85422000e+06
12775.000000 2.80930000e+06
12825.000000 2.57535000e+06
12875.000000 2.73810000e+06
12925.000000 2.70320000e+06
12975.000000 2.66966000e+06
13025.000000 2.63987000e+06
13075.000000 2.60782000e+06
13125.000000 2.57028000e+06
13175.000000 2.52606000e+06
13225.000000 2.50850000e+06
13275.000000 2.47639000e+06
13325.000000 2.44659000e+06
13375.000000 2.41612000e+06
13425.000000 2.38353000e+06
13475.000000 2.35467000e+06
13525.000000 2.31772000e+06
13575.000000 2.28760000e+06
13625.000000 2.26759000e+06
13675.000000 2.23452000e+06
13725.000000 2.18587000e+06
13775.000000 2.17857000e+06
13825.000000 2.15437000e+06
13875.000000 2.13671000e+06
13925.000000 2.10003000e+06
13975.000000 2.08097000e+06
14025.000000 2.05716000e+06
14075.000000 2.03554000e+06
14125.000000 2.00718000e+06
14175.000000 1.98442000e+06
14225.000000 1.95951000e+06
14275.000000 1.93545000e+06
14325.000000 1.91481000e+06
14375.000000 1.89531000e+06
14425.000000 1.83367000e+06
14475.000000 1.84782000e+06
14525.000000 1.80583000e+06
14570.000000 1.80623000e+06
14620.000000 1.77944000e+06
14675.000000 1.76561000e+06
14725.000000 1.73956000e+06
14775.000000 1.71291000e+06
14825.000000 1.69871000e+06
14875.000000 1.67031000e+06
14925.000000 1.66589000e+06
14975.000000 1.64406000e+06
15025.000000 1.60893000e+06
15075.000000 1.59464000e+06
15125.000000 1.58354000e+06
15175.000000 1.56903000e+06
