# Kurucz ODFNEW /NOVER, alpha: 0.0 (2003)
# teff = 26000 K (value for the effective temperature for the model. Temperatures are given in K)
# logg = 4.5 log(cm/s2) (value for Log(G) for the model.)
# lh = 1.25  (l/Hp where l is the  mixing length of the convective element and Hp is the pressure scale height)
# meta = 0  (value for the Metallicity for the model.)
# vtur = 2 km/s (Microturbulence velocity)
# alpha = 0  (Alpha)
#
# column 1: WAVELENGTH (ANGSTROM), Wavelength in Angstrom
# column 2: FLUX (ERG/CM2/S/A), Flux in erg/cm2/s/A
147.200000 5.86884000e-13
151.000000 2.28010000e-12
155.200000 9.51323000e-12
158.800000 3.06419000e-11
162.000000 8.33516000e-11
166.000000 2.77133000e-10
170.300000 9.51277000e-10
173.400000 2.24227000e-09
176.800000 5.54870000e-09
180.200000 1.33083000e-08
181.700000 1.93860000e-08
186.100000 5.66956000e-08
191.000000 1.77620000e-07
193.900000 3.40394000e-07
198.400000 9.01862000e-07
201.800000 1.83299000e-06
205.000000 3.50213000e-06
210.500000 1.02110000e-05
216.200000 2.93058000e-05
219.800000 5.55222000e-05
223.000000 9.63698000e-05
226.800000 1.82087000e-04
230.000000 1.65483000e-02
234.000000 3.71473000e-02
240.000000 8.17817000e-02
246.500000 1.85586000e-01
252.400000 3.80669000e-01
256.800000 6.00345000e-01
260.000000 9.48734000e-01
264.000000 1.44484000e+00
268.500000 2.32756000e+00
273.500000 3.84867000e+00
278.500000 6.25792000e+00
284.000000 1.11123000e+01
290.000000 1.88526000e+01
296.000000 3.15157000e+01
301.000000 4.70449000e+01
308.000000 8.30033000e+01
318.000000 1.86204000e+02
328.000000 3.64705000e+02
338.000000 7.28173000e+02
348.000000 1.35108000e+03
357.000000 3.73954000e+03
366.000000 6.61546000e+03
375.000000 9.91404000e+03
385.000000 1.60820000e+04
395.000000 2.67676000e+04
405.000000 4.00260000e+04
414.000000 5.81834000e+04
422.000000 7.79906000e+04
430.000000 1.07693000e+05
441.000000 1.58209000e+05
451.000000 2.16868000e+05
460.000000 2.83295000e+05
470.000000 3.89895000e+05
480.000000 5.19883000e+05
490.000000 6.93082000e+05
500.000000 9.00941000e+05
506.000000 4.36032000e+06
512.000000 2.77980000e+07
520.000000 3.12111000e+07
530.000000 3.62245000e+07
540.000000 3.83525000e+07
550.000000 5.26176000e+07
560.000000 6.08677000e+07
570.000000 7.13664000e+07
580.000000 6.93579000e+07
590.000000 8.75893000e+07
600.000000 9.57029000e+07
610.000000 1.09921000e+08
620.000000 1.19379000e+08
630.000000 1.25605000e+08
640.000000 1.17756000e+08
650.000000 1.01953000e+08
658.000000 1.36008000e+08
665.000000 1.61298000e+08
675.000000 1.73050000e+08
685.000000 1.78632000e+08
695.000000 2.24778000e+08
705.000000 2.28952000e+08
716.000000 2.56730000e+08
726.000000 2.66410000e+08
735.000000 2.75602000e+08
745.000000 3.08802000e+08
755.000000 3.27258000e+08
765.000000 3.49387000e+08
775.000000 3.71533000e+08
785.000000 3.95917000e+08
795.000000 4.08860000e+08
805.000000 4.23950000e+08
815.000000 4.35678000e+08
825.000000 4.70435000e+08
835.000000 4.33202000e+08
845.000000 4.87151000e+08
855.000000 4.98858000e+08
865.000000 5.29025000e+08
875.000000 5.60155000e+08
885.000000 5.99083000e+08
895.000000 6.23395000e+08
905.000000 6.20734000e+08
915.000000 7.82415000e+08
925.000000 3.90491000e+09
935.000000 9.65584000e+09
945.000000 2.20412000e+10
955.000000 2.98521000e+10
965.000000 3.74150000e+10
975.000000 6.66610000e+09
985.000000 3.41649000e+10
995.000000 3.22674000e+10
1005.000000 3.72330000e+10
1015.000000 3.63669000e+10
1025.000000 1.51563000e+10
1035.000000 2.86412000e+10
1045.000000 4.36575000e+10
1055.000000 4.03054000e+10
1065.000000 3.23850000e+10
1075.000000 3.70625000e+10
1085.000000 3.29775000e+10
1095.000000 3.69181000e+10
1105.000000 3.34637000e+10
1115.000000 3.24268000e+10
1125.000000 2.61702000e+10
1135.000000 3.31745000e+10
1145.000000 2.96378000e+10
1155.000000 3.04936000e+10
1165.000000 3.00223000e+10
1175.000000 1.82238000e+10
1185.000000 2.81563000e+10
1195.000000 2.58198000e+10
1205.000000 1.82988000e+10
1215.000000 1.12417000e+10
1225.000000 2.23365000e+10
1235.000000 2.65030000e+10
1245.000000 2.58432000e+10
1255.000000 2.53565000e+10
1265.000000 2.57058000e+10
1275.000000 2.63841000e+10
1285.000000 2.60595000e+10
1295.000000 1.91783000e+10
1305.000000 2.02831000e+10
1315.000000 2.49799000e+10
1325.000000 2.31880000e+10
1335.000000 2.22902000e+10
1345.000000 2.24743000e+10
1355.000000 2.22198000e+10
1365.000000 2.03304000e+10
1375.000000 1.97223000e+10
1385.000000 1.92850000e+10
1395.000000 1.44257000e+10
1405.000000 1.54703000e+10
1415.000000 1.69872000e+10
1425.000000 1.65369000e+10
1435.000000 1.70516000e+10
1442.000000 1.74479000e+10
1447.000000 1.70999000e+10
1455.000000 1.65499000e+10
1465.000000 1.52465000e+10
1475.000000 1.54777000e+10
1485.000000 1.51987000e+10
1495.000000 1.48910000e+10
1505.000000 1.34372000e+10
1512.000000 1.20249000e+10
1517.000000 1.23816000e+10
1525.000000 1.27704000e+10
1535.000000 1.08143000e+10
1545.000000 1.05239000e+10
1555.000000 1.01834000e+10
1565.000000 1.10060000e+10
1575.000000 1.16615000e+10
1585.000000 1.16231000e+10
1595.000000 1.15112000e+10
1605.000000 1.15924000e+10
1615.000000 1.12573000e+10
1625.000000 1.11059000e+10
1635.000000 1.16781000e+10
1645.000000 1.15791000e+10
1655.000000 1.14531000e+10
1665.000000 1.15974000e+10
1672.000000 1.10540000e+10
1677.000000 1.19927000e+10
1685.000000 1.15804000e+10
1695.000000 1.09527000e+10
1705.000000 1.05785000e+10
1715.000000 1.00368000e+10
1725.000000 9.81557000e+09
1735.000000 1.01807000e+10
1745.000000 9.94496000e+09
1755.000000 9.98325000e+09
1765.000000 9.75907000e+09
1775.000000 9.20245000e+09
1785.000000 9.33705000e+09
1795.000000 9.57507000e+09
1805.000000 9.61011000e+09
1815.000000 8.61924000e+09
1825.000000 8.92828000e+09
1835.000000 8.62280000e+09
1845.000000 7.83932000e+09
1855.000000 7.91531000e+09
1865.000000 8.02150000e+09
1875.000000 8.32965000e+09
1885.000000 7.41049000e+09
1895.000000 6.88158000e+09
1905.000000 7.43768000e+09
1915.000000 7.00425000e+09
1925.000000 6.63430000e+09
1935.000000 7.03578000e+09
1945.000000 7.19526000e+09
1955.000000 6.46508000e+09
1967.000000 6.99596000e+09
1976.000000 7.31098000e+09
1984.000000 6.73264000e+09
1995.000000 6.61497000e+09
2005.000000 6.83001000e+09
2015.000000 6.74670000e+09
2025.000000 6.93196000e+09
2035.000000 6.30753000e+09
2045.000000 6.40616000e+09
2055.000000 6.15101000e+09
2065.000000 6.16137000e+09
2074.000000 6.43487000e+09
2078.000000 5.84094000e+09
2085.000000 6.11489000e+09
2095.000000 5.79460000e+09
2105.000000 6.02032000e+09
2115.000000 6.01448000e+09
2125.000000 6.06972000e+09
2135.000000 5.94340000e+09
2145.000000 5.62979000e+09
2155.000000 5.85120000e+09
2165.000000 5.80949000e+09
2175.000000 5.72266000e+09
2185.000000 5.54707000e+09
2195.000000 5.60157000e+09
2205.000000 5.55917000e+09
2215.000000 5.46724000e+09
2225.000000 5.32187000e+09
2235.000000 5.23740000e+09
2245.000000 5.26768000e+09
2255.000000 5.10082000e+09
2265.000000 5.14584000e+09
2275.000000 5.06482000e+09
2285.000000 5.04894000e+09
2295.000000 4.66922000e+09
2305.000000 4.87066000e+09
2315.000000 4.73257000e+09
2325.000000 4.67746000e+09
2335.000000 4.54489000e+09
2345.000000 4.55780000e+09
2355.000000 4.53799000e+09
2365.000000 4.48002000e+09
2375.000000 4.38614000e+09
2385.000000 4.35030000e+09
2395.000000 4.30222000e+09
2405.000000 4.21910000e+09
2415.000000 4.17726000e+09
2425.000000 4.16825000e+09
2435.000000 4.04742000e+09
2445.000000 4.04494000e+09
2455.000000 4.03631000e+09
2465.000000 3.96605000e+09
2475.000000 3.90670000e+09
2485.000000 3.84372000e+09
2495.000000 3.45240000e+09
2505.000000 3.73210000e+09
2513.000000 3.56061000e+09
2518.000000 3.68689000e+09
2525.000000 3.64467000e+09
2535.000000 3.59762000e+09
2545.000000 3.48414000e+09
2555.000000 3.51503000e+09
2565.000000 3.46615000e+09
2575.000000 3.46121000e+09
2585.000000 3.41796000e+09
2595.000000 3.38188000e+09
2605.000000 3.35119000e+09
2615.000000 3.30677000e+09
2625.000000 3.27900000e+09
2635.000000 3.24645000e+09
2645.000000 3.20822000e+09
2655.000000 3.18741000e+09
2665.000000 3.07681000e+09
2675.000000 3.07828000e+09
2685.000000 3.06798000e+09
2695.000000 2.96097000e+09
2705.000000 2.92120000e+09
2715.000000 2.91383000e+09
2725.000000 2.89136000e+09
2735.000000 2.87686000e+09
2745.000000 2.79964000e+09
2755.000000 2.79101000e+09
2765.000000 2.75426000e+09
2775.000000 2.77060000e+09
2785.000000 2.72543000e+09
2795.000000 2.62813000e+09
2805.000000 2.64725000e+09
2815.000000 2.64892000e+09
2825.000000 2.59914000e+09
2835.000000 2.51132000e+09
2845.000000 2.54843000e+09
2855.000000 2.50769000e+09
2865.000000 2.49934000e+09
2875.000000 2.47068000e+09
2885.000000 2.44263000e+09
2895.000000 2.40853000e+09
2910.000000 2.36071000e+09
2930.000000 2.32158000e+09
2950.000000 2.25025000e+09
2970.000000 2.22137000e+09
2990.000000 2.16819000e+09
3010.000000 2.10056000e+09
3030.000000 2.08486000e+09
3050.000000 2.04562000e+09
3070.000000 2.00894000e+09
3090.000000 1.93614000e+09
3110.000000 1.92137000e+09
3130.000000 1.87648000e+09
3150.000000 1.84304000e+09
3170.000000 1.79673000e+09
3190.000000 1.75406000e+09
3210.000000 1.73398000e+09
3230.000000 1.69376000e+09
3250.000000 1.66556000e+09
3270.000000 1.62982000e+09
3290.000000 1.59649000e+09
3310.000000 1.56825000e+09
3330.000000 1.53510000e+09
3350.000000 1.50584000e+09
3370.000000 1.47665000e+09
3390.000000 1.45183000e+09
3410.000000 1.42452000e+09
3430.000000 1.39133000e+09
3450.000000 1.36028000e+09
3470.000000 1.33695000e+09
3490.000000 1.31072000e+09
3510.000000 1.28867000e+09
3530.000000 1.26999000e+09
3550.000000 1.24631000e+09
3570.000000 1.23037000e+09
3590.000000 1.19332000e+09
3610.000000 1.17481000e+09
3630.000000 1.15513000e+09
3640.000000 1.15496000e+09
3650.000000 1.13020000e+09
3670.000000 1.11711000e+09
3690.000000 1.09662000e+09
3710.000000 1.05612000e+09
3730.000000 1.01441000e+09
3750.000000 1.02848000e+09
3770.000000 1.01272000e+09
3790.000000 1.05939000e+09
3810.000000 1.10002000e+09
3830.000000 9.63519000e+08
3850.000000 1.12250000e+09
3870.000000 1.12539000e+09
3890.000000 9.07585000e+08
3910.000000 1.11867000e+09
3930.000000 1.09105000e+09
3950.000000 1.07546000e+09
3970.000000 8.43338000e+08
3990.000000 1.03309000e+09
4010.000000 1.03495000e+09
4030.000000 9.70465000e+08
4050.000000 1.00486000e+09
4070.000000 9.61126000e+08
4090.000000 8.86439000e+08
4110.000000 7.85569000e+08
4130.000000 9.12377000e+08
4150.000000 9.09116000e+08
4170.000000 9.04944000e+08
4190.000000 8.94159000e+08
4210.000000 8.85237000e+08
4230.000000 8.66148000e+08
4250.000000 8.43936000e+08
4270.000000 8.19871000e+08
4290.000000 8.11917000e+08
4310.000000 7.87181000e+08
4330.000000 7.13577000e+08
4350.000000 6.53396000e+08
4370.000000 7.46657000e+08
4390.000000 7.33829000e+08
4410.000000 7.36893000e+08
4430.000000 7.29256000e+08
4450.000000 7.18454000e+08
4470.000000 6.77253000e+08
4490.000000 6.94348000e+08
4510.000000 6.89611000e+08
4530.000000 6.77643000e+08
4550.000000 6.67604000e+08
4570.000000 6.56236000e+08
4590.000000 6.45594000e+08
4610.000000 6.31372000e+08
4630.000000 6.21641000e+08
4650.000000 6.04527000e+08
4670.000000 6.04093000e+08
4690.000000 5.98489000e+08
4710.000000 5.75230000e+08
4730.000000 5.76404000e+08
4750.000000 5.67302000e+08
4770.000000 5.65850000e+08
4790.000000 5.55864000e+08
4810.000000 5.43598000e+08
4830.000000 5.32081000e+08
4850.000000 4.90625000e+08
4870.000000 4.38458000e+08
4890.000000 5.08895000e+08
4910.000000 5.05523000e+08
4930.000000 4.86270000e+08
4950.000000 4.91190000e+08
4970.000000 4.87168000e+08
4990.000000 4.79216000e+08
5010.000000 4.59518000e+08
5030.000000 4.64731000e+08
5050.000000 4.53449000e+08
5070.000000 4.52531000e+08
5090.000000 4.45420000e+08
5110.000000 4.38347000e+08
5130.000000 4.29110000e+08
5150.000000 4.23880000e+08
5170.000000 4.20635000e+08
5190.000000 4.15190000e+08
5210.000000 4.08164000e+08
5230.000000 4.03505000e+08
5250.000000 3.98100000e+08
5270.000000 3.91950000e+08
5290.000000 3.87269000e+08
5310.000000 3.81712000e+08
5330.000000 3.76532000e+08
5350.000000 3.70787000e+08
5370.000000 3.66750000e+08
5390.000000 3.61569000e+08
5410.000000 3.56983000e+08
5430.000000 3.51726000e+08
5450.000000 3.46904000e+08
5470.000000 3.42295000e+08
5490.000000 3.37905000e+08
5510.000000 3.33906000e+08
5530.000000 3.28969000e+08
5550.000000 3.25257000e+08
5570.000000 3.20777000e+08
5590.000000 3.16858000e+08
5610.000000 3.12484000e+08
5630.000000 3.08711000e+08
5650.000000 3.03390000e+08
5670.000000 2.98394000e+08
5690.000000 2.94089000e+08
5710.000000 2.92160000e+08
5730.000000 2.88770000e+08
5750.000000 2.84406000e+08
5770.000000 2.81951000e+08
5790.000000 2.78209000e+08
5810.000000 2.74734000e+08
5830.000000 2.70835000e+08
5850.000000 2.67753000e+08
5870.000000 2.56015000e+08
5890.000000 2.58721000e+08
5910.000000 2.57297000e+08
5930.000000 2.53786000e+08
5950.000000 2.50422000e+08
5970.000000 2.48715000e+08
5990.000000 2.44747000e+08
6010.000000 2.42443000e+08
6030.000000 2.39139000e+08
6050.000000 2.36438000e+08
6070.000000 2.33840000e+08
6090.000000 2.31026000e+08
6110.000000 2.28245000e+08
6130.000000 2.25635000e+08
6150.000000 2.21929000e+08
6170.000000 2.19790000e+08
6190.000000 2.17526000e+08
6210.000000 2.15082000e+08
6230.000000 2.12597000e+08
6250.000000 2.09676000e+08
6270.000000 2.07411000e+08
6290.000000 2.05123000e+08
6310.000000 2.02604000e+08
6330.000000 2.00433000e+08
6350.000000 1.97490000e+08
6370.000000 1.95630000e+08
6390.000000 1.93420000e+08
6410.000000 1.91234000e+08
6430.000000 1.89190000e+08
6450.000000 1.86932000e+08
6470.000000 1.84239000e+08
6490.000000 1.82291000e+08
6510.000000 1.80302000e+08
6530.000000 1.77361000e+08
6550.000000 1.68939000e+08
6570.000000 1.49025000e+08
6590.000000 1.69323000e+08
6610.000000 1.69973000e+08
6630.000000 1.68700000e+08
6650.000000 1.66869000e+08
6670.000000 1.63313000e+08
6690.000000 1.61572000e+08
6710.000000 1.61556000e+08
6730.000000 1.59490000e+08
6750.000000 1.58075000e+08
6770.000000 1.56362000e+08
6790.000000 1.53530000e+08
6810.000000 1.52752000e+08
6830.000000 1.51123000e+08
6850.000000 1.49632000e+08
6870.000000 1.48020000e+08
6890.000000 1.46328000e+08
6910.000000 1.44670000e+08
6930.000000 1.43279000e+08
6950.000000 1.41800000e+08
6970.000000 1.40298000e+08
6990.000000 1.38794000e+08
7010.000000 1.37321000e+08
7030.000000 1.35863000e+08
7050.000000 1.34418000e+08
7070.000000 1.30734000e+08
7090.000000 1.31632000e+08
7110.000000 1.29722000e+08
7130.000000 1.28417000e+08
7150.000000 1.27516000e+08
7170.000000 1.26241000e+08
7190.000000 1.24964000e+08
7210.000000 1.23678000e+08
7230.000000 1.20695000e+08
7250.000000 1.20998000e+08
7270.000000 1.19898000e+08
7290.000000 1.17660000e+08
7310.000000 1.17447000e+08
7330.000000 1.16247000e+08
7350.000000 1.15106000e+08
7370.000000 1.13948000e+08
7390.000000 1.12801000e+08
7410.000000 1.11671000e+08
7430.000000 1.10504000e+08
7450.000000 1.09437000e+08
7470.000000 1.08021000e+08
7490.000000 1.07237000e+08
7510.000000 1.06152000e+08
7530.000000 1.05084000e+08
7550.000000 1.04125000e+08
7570.000000 1.03109000e+08
7590.000000 1.02082000e+08
7610.000000 1.01000000e+08
7630.000000 1.00076000e+08
7650.000000 9.91222000e+07
7670.000000 9.81577000e+07
7690.000000 9.72018000e+07
7710.000000 9.62482000e+07
7730.000000 9.53032000e+07
7750.000000 9.44231000e+07
7770.000000 9.31264000e+07
7790.000000 9.26178000e+07
7810.000000 9.16808000e+07
7830.000000 9.08566000e+07
7850.000000 8.99908000e+07
7870.000000 8.90778000e+07
7890.000000 8.80700000e+07
7910.000000 8.74506000e+07
7930.000000 8.66266000e+07
7950.000000 8.57324000e+07
7970.000000 8.48934000e+07
7990.000000 8.39850000e+07
8010.000000 8.32784000e+07
8030.000000 8.24960000e+07
8050.000000 8.17378000e+07
8070.000000 8.10266000e+07
8090.000000 8.01717000e+07
8110.000000 7.92727000e+07
8130.000000 7.88376000e+07
8150.000000 7.80485000e+07
8170.000000 7.74523000e+07
8190.000000 7.64904000e+07
8210.000000 7.56487000e+07
8230.000000 7.49644000e+07
8250.000000 7.45405000e+07
8270.000000 7.32936000e+07
8290.000000 7.31432000e+07
8310.000000 7.25351000e+07
8330.000000 7.18724000e+07
8350.000000 7.08747000e+07
8370.000000 7.04396000e+07
8390.000000 6.99597000e+07
8410.000000 6.93130000e+07
8430.000000 6.86665000e+07
8450.000000 6.74396000e+07
8470.000000 6.74261000e+07
8490.000000 6.66488000e+07
8510.000000 6.60914000e+07
8530.000000 6.54971000e+07
8550.000000 6.45005000e+07
8570.000000 6.48615000e+07
8590.000000 6.26350000e+07
8610.000000 6.26086000e+07
8630.000000 6.35934000e+07
8650.000000 6.18194000e+07
8670.000000 5.90487000e+07
8690.000000 6.19002000e+07
8710.000000 6.21277000e+07
8730.000000 6.01874000e+07
8750.000000 5.54152000e+07
8770.000000 5.83808000e+07
8790.000000 6.02852000e+07
8810.000000 6.01040000e+07
8830.000000 5.91508000e+07
8850.000000 5.53676000e+07
8870.000000 5.17712000e+07
8890.000000 5.69536000e+07
8910.000000 5.76331000e+07
8930.000000 5.73138000e+07
8950.000000 5.70250000e+07
8970.000000 5.63402000e+07
8990.000000 5.44490000e+07
9010.000000 4.85970000e+07
9030.000000 5.07706000e+07
9050.000000 5.39088000e+07
9070.000000 5.35431000e+07
9090.000000 5.36315000e+07
9110.000000 5.34417000e+07
9130.000000 5.30360000e+07
9150.000000 5.25660000e+07
9170.000000 5.18934000e+07
9190.000000 5.12306000e+07
9210.000000 4.86278000e+07
9230.000000 4.29954000e+07
9250.000000 4.77723000e+07
9270.000000 4.92410000e+07
9290.000000 4.94832000e+07
9310.000000 4.89623000e+07
9330.000000 4.87829000e+07
9350.000000 4.84796000e+07
9370.000000 4.81312000e+07
9390.000000 4.77470000e+07
9410.000000 4.72719000e+07
9430.000000 4.69615000e+07
9450.000000 4.65562000e+07
9470.000000 4.57969000e+07
9490.000000 4.56040000e+07
9510.000000 4.44918000e+07
9530.000000 4.22188000e+07
9550.000000 3.76773000e+07
9570.000000 4.25083000e+07
9590.000000 4.35601000e+07
9610.000000 4.33545000e+07
9630.000000 4.29268000e+07
9650.000000 4.30242000e+07
9670.000000 4.26772000e+07
9690.000000 4.23006000e+07
9710.000000 4.18508000e+07
9730.000000 4.16829000e+07
9750.000000 4.13496000e+07
9770.000000 4.10384000e+07
9790.000000 4.07137000e+07
9810.000000 4.03717000e+07
9830.000000 4.00828000e+07
9850.000000 3.97687000e+07
9870.000000 3.94376000e+07
9890.000000 3.90972000e+07
9910.000000 3.86058000e+07
9930.000000 3.85574000e+07
9950.000000 3.82504000e+07
9970.000000 3.78648000e+07
9990.000000 3.75095000e+07
10025.000000 3.52834000e+07
10075.000000 3.40611000e+07
10125.000000 3.55564000e+07
10175.000000 3.51241000e+07
10225.000000 3.44589000e+07
10275.000000 3.38364000e+07
10325.000000 3.30663000e+07
10375.000000 3.26056000e+07
10425.000000 3.20107000e+07
10475.000000 3.14281000e+07
10525.000000 3.08503000e+07
10575.000000 3.03019000e+07
10625.000000 2.97598000e+07
10675.000000 2.91553000e+07
10725.000000 2.87086000e+07
10775.000000 2.81981000e+07
10825.000000 2.73743000e+07
10875.000000 2.70671000e+07
10925.000000 2.43308000e+07
10975.000000 2.55077000e+07
11025.000000 2.55852000e+07
11075.000000 2.53446000e+07
11125.000000 2.49389000e+07
11175.000000 2.45138000e+07
11225.000000 2.40831000e+07
11275.000000 2.36643000e+07
11325.000000 2.32607000e+07
11375.000000 2.28951000e+07
11425.000000 2.24986000e+07
11475.000000 2.21385000e+07
11525.000000 2.17718000e+07
11575.000000 2.13968000e+07
11625.000000 2.10532000e+07
11675.000000 2.07043000e+07
11725.000000 2.03752000e+07
11775.000000 2.00379000e+07
11825.000000 1.97187000e+07
11875.000000 1.94021000e+07
11925.000000 1.90906000e+07
11975.000000 1.85561000e+07
12025.000000 1.84849000e+07
12075.000000 1.81926000e+07
12125.000000 1.79043000e+07
12175.000000 1.76226000e+07
12225.000000 1.73464000e+07
12275.000000 1.70756000e+07
12325.000000 1.68096000e+07
12375.000000 1.65483000e+07
12425.000000 1.62936000e+07
12475.000000 1.60321000e+07
12525.000000 1.57552000e+07
12575.000000 1.55475000e+07
12625.000000 1.53142000e+07
12675.000000 1.50862000e+07
12725.000000 1.48351000e+07
12775.000000 1.43080000e+07
12825.000000 1.31142000e+07
12875.000000 1.40589000e+07
12925.000000 1.39734000e+07
12975.000000 1.36604000e+07
13025.000000 1.35760000e+07
13075.000000 1.33800000e+07
