# Kurucz ODFNEW /NOVER, alpha: 0.0 (2003)
# teff = 28000 K (value for the effective temperature for the model. Temperatures are given in K)
# logg = 4.5 log(cm/s2) (value for Log(G) for the model.)
# lh = 1.25  (l/Hp where l is the  mixing length of the convective element and Hp is the pressure scale height)
# meta = 0.5  (value for the Metallicity for the model.)
# vtur = 2 km/s (Microturbulence velocity)
# alpha = 0  (Alpha)
#
# column 1: WAVELENGTH (ANGSTROM), Wavelength in Angstrom
# column 2: FLUX (ERG/CM2/S/A), Flux in erg/cm2/s/A
147.200000 7.69808000e-11
151.000000 2.64343000e-10
155.200000 9.65900000e-10
158.800000 2.78453000e-09
162.000000 6.87757000e-09
166.000000 2.03239000e-08
170.300000 6.14453000e-08
173.400000 1.32987000e-07
176.800000 2.99846000e-07
180.200000 6.56677000e-07
181.700000 9.19148000e-07
186.100000 2.40212000e-06
191.000000 6.67768000e-06
193.900000 1.19370000e-05
198.400000 2.84883000e-05
201.800000 5.36436000e-05
205.000000 9.55786000e-05
210.500000 2.48601000e-04
216.200000 6.37360000e-04
219.800000 1.12843000e-03
223.000000 1.84800000e-03
226.800000 3.32462000e-03
230.000000 1.51888000e-01
234.000000 3.24096000e-01
240.000000 6.66994000e-01
246.500000 1.43141000e+00
252.400000 2.78447000e+00
256.800000 4.32175000e+00
260.000000 6.84076000e+00
264.000000 1.02982000e+01
268.500000 1.63270000e+01
273.500000 2.62031000e+01
278.500000 4.08353000e+01
284.000000 7.54804000e+01
290.000000 1.23882000e+02
296.000000 1.99170000e+02
301.000000 2.89525000e+02
308.000000 5.25159000e+02
318.000000 1.14154000e+03
328.000000 2.12054000e+03
338.000000 4.11077000e+03
348.000000 7.39746000e+03
357.000000 3.81639000e+04
366.000000 8.71150000e+04
375.000000 1.20074000e+05
385.000000 1.93053000e+05
395.000000 4.50651000e+05
405.000000 6.21693000e+05
414.000000 9.27844000e+05
422.000000 1.24486000e+06
430.000000 1.72397000e+06
441.000000 2.40394000e+06
451.000000 2.95918000e+06
460.000000 3.62255000e+06
470.000000 4.91317000e+06
480.000000 6.39688000e+06
490.000000 8.17053000e+06
500.000000 9.99870000e+06
506.000000 2.87348000e+07
512.000000 2.50488000e+08
520.000000 2.54292000e+08
530.000000 2.58480000e+08
540.000000 2.57303000e+08
550.000000 3.78423000e+08
560.000000 4.50189000e+08
570.000000 4.94038000e+08
580.000000 4.58918000e+08
590.000000 5.58666000e+08
600.000000 5.46143000e+08
610.000000 6.43933000e+08
620.000000 7.07122000e+08
630.000000 6.95692000e+08
640.000000 5.94885000e+08
650.000000 4.72396000e+08
658.000000 6.17722000e+08
665.000000 7.74867000e+08
675.000000 8.48752000e+08
685.000000 7.85726000e+08
695.000000 1.13286000e+09
705.000000 1.04653000e+09
716.000000 1.26285000e+09
726.000000 1.24803000e+09
735.000000 1.27867000e+09
745.000000 1.42329000e+09
755.000000 1.46845000e+09
765.000000 1.54361000e+09
775.000000 1.62634000e+09
785.000000 1.71906000e+09
795.000000 1.73199000e+09
805.000000 1.73341000e+09
815.000000 1.73674000e+09
825.000000 1.89171000e+09
835.000000 1.49244000e+09
845.000000 1.83557000e+09
855.000000 1.81159000e+09
865.000000 1.91530000e+09
875.000000 2.00114000e+09
885.000000 2.13303000e+09
895.000000 2.19460000e+09
905.000000 2.11583000e+09
915.000000 2.50168000e+09
925.000000 1.14931000e+10
935.000000 2.33017000e+10
945.000000 3.95854000e+10
955.000000 4.73336000e+10
965.000000 5.44083000e+10
975.000000 9.84797000e+09
985.000000 3.98464000e+10
995.000000 3.95746000e+10
1005.000000 4.65678000e+10
1015.000000 4.94980000e+10
1025.000000 2.97744000e+10
1035.000000 4.13788000e+10
1045.000000 5.94681000e+10
1055.000000 5.40373000e+10
1065.000000 4.15018000e+10
1075.000000 4.76281000e+10
1085.000000 4.29140000e+10
1095.000000 4.76133000e+10
1105.000000 4.35436000e+10
1115.000000 4.21206000e+10
1125.000000 3.03497000e+10
1135.000000 4.20179000e+10
1145.000000 3.87728000e+10
1155.000000 3.84178000e+10
1165.000000 3.71476000e+10
1175.000000 1.90018000e+10
1185.000000 3.38788000e+10
1195.000000 3.25438000e+10
1205.000000 2.49885000e+10
1215.000000 1.98516000e+10
1225.000000 2.99953000e+10
1235.000000 3.41649000e+10
1245.000000 3.23131000e+10
1255.000000 3.19294000e+10
1265.000000 3.33382000e+10
1275.000000 3.46944000e+10
1285.000000 3.48615000e+10
1295.000000 2.58225000e+10
1305.000000 2.78329000e+10
1315.000000 3.41692000e+10
1325.000000 3.16662000e+10
1335.000000 3.06989000e+10
1345.000000 3.07085000e+10
1355.000000 3.02590000e+10
1365.000000 2.75932000e+10
1375.000000 2.62926000e+10
1385.000000 2.48695000e+10
1395.000000 1.60226000e+10
1405.000000 1.79118000e+10
1415.000000 2.19013000e+10
1425.000000 2.09327000e+10
1435.000000 2.23141000e+10
1442.000000 2.27085000e+10
1447.000000 2.24115000e+10
1455.000000 2.13062000e+10
1465.000000 1.93225000e+10
1475.000000 2.01938000e+10
1485.000000 1.99672000e+10
1495.000000 1.93756000e+10
1505.000000 1.71880000e+10
1512.000000 1.55056000e+10
1517.000000 1.59912000e+10
1525.000000 1.63724000e+10
1535.000000 1.32719000e+10
1545.000000 1.21155000e+10
1555.000000 1.20144000e+10
1565.000000 1.35327000e+10
1575.000000 1.46008000e+10
1585.000000 1.48570000e+10
1595.000000 1.45688000e+10
1605.000000 1.49096000e+10
1615.000000 1.42729000e+10
1625.000000 1.42207000e+10
1635.000000 1.51694000e+10
1645.000000 1.53363000e+10
1655.000000 1.51213000e+10
1665.000000 1.53085000e+10
1672.000000 1.41780000e+10
1677.000000 1.65744000e+10
1685.000000 1.56505000e+10
1695.000000 1.46730000e+10
1705.000000 1.44211000e+10
1715.000000 1.34810000e+10
1725.000000 1.30264000e+10
1735.000000 1.37027000e+10
1745.000000 1.34991000e+10
1755.000000 1.34875000e+10
1765.000000 1.34283000e+10
1775.000000 1.23447000e+10
1785.000000 1.27412000e+10
1795.000000 1.30019000e+10
1805.000000 1.31033000e+10
1815.000000 1.16533000e+10
1825.000000 1.20519000e+10
1835.000000 1.17285000e+10
1845.000000 1.05936000e+10
1855.000000 1.09909000e+10
1865.000000 1.10997000e+10
1875.000000 1.14145000e+10
1885.000000 1.01193000e+10
1895.000000 9.45636000e+09
1905.000000 1.02926000e+10
1915.000000 9.61058000e+09
1925.000000 8.93974000e+09
1935.000000 9.73924000e+09
1945.000000 1.00142000e+10
1955.000000 8.77176000e+09
1967.000000 9.68559000e+09
1976.000000 1.01540000e+10
1984.000000 9.35761000e+09
1995.000000 9.22811000e+09
2005.000000 9.64871000e+09
2015.000000 9.52906000e+09
2025.000000 9.75029000e+09
2035.000000 8.82168000e+09
2045.000000 9.00740000e+09
2055.000000 8.28389000e+09
2065.000000 8.20024000e+09
2074.000000 8.63176000e+09
2078.000000 7.79670000e+09
2085.000000 8.31622000e+09
2095.000000 7.97393000e+09
2105.000000 8.44648000e+09
2115.000000 8.50778000e+09
2125.000000 8.52133000e+09
2135.000000 8.35326000e+09
2145.000000 7.91185000e+09
2155.000000 8.26707000e+09
2165.000000 8.16034000e+09
2175.000000 8.10299000e+09
2185.000000 7.78895000e+09
2195.000000 7.94427000e+09
2205.000000 7.93204000e+09
2215.000000 7.75462000e+09
2225.000000 7.55761000e+09
2235.000000 7.40325000e+09
2245.000000 7.45734000e+09
2255.000000 7.18709000e+09
2265.000000 7.28392000e+09
2275.000000 7.16005000e+09
2285.000000 7.09701000e+09
2295.000000 6.14473000e+09
2305.000000 6.80244000e+09
2315.000000 6.62191000e+09
2325.000000 6.57545000e+09
2335.000000 6.40262000e+09
2345.000000 6.47000000e+09
2355.000000 6.38196000e+09
2365.000000 6.32163000e+09
2375.000000 6.13340000e+09
2385.000000 6.07379000e+09
2395.000000 5.99612000e+09
2405.000000 5.91190000e+09
2415.000000 5.85413000e+09
2425.000000 5.83004000e+09
2435.000000 5.64596000e+09
2445.000000 5.65861000e+09
2455.000000 5.64867000e+09
2465.000000 5.55054000e+09
2475.000000 5.45043000e+09
2485.000000 5.27762000e+09
2495.000000 4.08791000e+09
2505.000000 5.04185000e+09
2513.000000 4.86669000e+09
2518.000000 5.04857000e+09
2525.000000 5.06807000e+09
2535.000000 5.03355000e+09
2545.000000 4.82098000e+09
2555.000000 4.86792000e+09
2565.000000 4.79018000e+09
2575.000000 4.79498000e+09
2585.000000 4.73061000e+09
2595.000000 4.68337000e+09
2605.000000 4.63143000e+09
2615.000000 4.54765000e+09
2625.000000 4.52543000e+09
2635.000000 4.48344000e+09
2645.000000 4.39758000e+09
2655.000000 4.38173000e+09
2665.000000 4.15105000e+09
2675.000000 4.17004000e+09
2685.000000 4.18209000e+09
2695.000000 3.99800000e+09
2705.000000 3.86835000e+09
2715.000000 3.89715000e+09
2725.000000 3.93166000e+09
2735.000000 3.88211000e+09
2745.000000 3.80923000e+09
2755.000000 3.78848000e+09
2765.000000 3.73387000e+09
2775.000000 3.78078000e+09
2785.000000 3.70628000e+09
2795.000000 3.54743000e+09
2805.000000 3.58184000e+09
2815.000000 3.60802000e+09
2825.000000 3.55354000e+09
2835.000000 3.40214000e+09
2845.000000 3.45623000e+09
2855.000000 3.38089000e+09
2865.000000 3.37918000e+09
2875.000000 3.33944000e+09
2885.000000 3.29176000e+09
2895.000000 3.23880000e+09
2910.000000 3.15856000e+09
2930.000000 3.14477000e+09
2950.000000 3.03903000e+09
2970.000000 2.99004000e+09
2990.000000 2.91035000e+09
3010.000000 2.78261000e+09
3030.000000 2.77517000e+09
3050.000000 2.73926000e+09
3070.000000 2.70680000e+09
3090.000000 2.57442000e+09
3110.000000 2.58294000e+09
3130.000000 2.50377000e+09
3150.000000 2.46942000e+09
3170.000000 2.39412000e+09
3190.000000 2.35502000e+09
3210.000000 2.31933000e+09
3230.000000 2.25354000e+09
3250.000000 2.22685000e+09
3270.000000 2.16626000e+09
3290.000000 2.12524000e+09
3310.000000 2.08279000e+09
3330.000000 2.03060000e+09
3350.000000 1.99679000e+09
3370.000000 1.95120000e+09
3390.000000 1.92746000e+09
3410.000000 1.88846000e+09
3430.000000 1.85135000e+09
3450.000000 1.80700000e+09
3470.000000 1.77265000e+09
3490.000000 1.73492000e+09
3510.000000 1.70285000e+09
3530.000000 1.68225000e+09
3550.000000 1.64733000e+09
3570.000000 1.62141000e+09
3590.000000 1.56817000e+09
3610.000000 1.54440000e+09
3630.000000 1.52048000e+09
3640.000000 1.51817000e+09
3650.000000 1.49156000e+09
3670.000000 1.47465000e+09
3690.000000 1.44750000e+09
3710.000000 1.38656000e+09
3730.000000 1.33894000e+09
3750.000000 1.34463000e+09
3770.000000 1.31139000e+09
3790.000000 1.36486000e+09
3810.000000 1.40896000e+09
3830.000000 1.24150000e+09
3850.000000 1.41583000e+09
3870.000000 1.39072000e+09
3890.000000 1.16683000e+09
3910.000000 1.40482000e+09
3930.000000 1.35958000e+09
3950.000000 1.32930000e+09
3970.000000 1.08100000e+09
3990.000000 1.29225000e+09
4010.000000 1.28785000e+09
4030.000000 1.21609000e+09
4050.000000 1.23891000e+09
4070.000000 1.16608000e+09
4090.000000 1.08854000e+09
4110.000000 9.84370000e+08
4130.000000 1.12394000e+09
4150.000000 1.11694000e+09
4170.000000 1.11715000e+09
4190.000000 1.10428000e+09
4210.000000 1.09503000e+09
4230.000000 1.06859000e+09
4250.000000 1.03038000e+09
4270.000000 1.00263000e+09
4290.000000 9.85194000e+08
4310.000000 9.45509000e+08
4330.000000 8.73200000e+08
4350.000000 8.11753000e+08
4370.000000 9.00529000e+08
4390.000000 9.06222000e+08
4410.000000 8.98447000e+08
4430.000000 8.95114000e+08
4450.000000 8.77517000e+08
4470.000000 8.39514000e+08
4490.000000 8.53336000e+08
4510.000000 8.45544000e+08
4530.000000 8.34276000e+08
4550.000000 8.23482000e+08
4570.000000 8.09435000e+08
4590.000000 7.94118000e+08
4610.000000 7.70473000e+08
4630.000000 7.57258000e+08
4650.000000 7.27272000e+08
4670.000000 7.37691000e+08
4690.000000 7.32595000e+08
4710.000000 7.01932000e+08
4730.000000 7.09042000e+08
4750.000000 6.97290000e+08
4770.000000 6.99419000e+08
4790.000000 6.85627000e+08
4810.000000 6.68946000e+08
4830.000000 6.55052000e+08
4850.000000 6.11528000e+08
4870.000000 5.48601000e+08
4890.000000 6.27276000e+08
4910.000000 6.21801000e+08
4930.000000 6.00367000e+08
4950.000000 6.00937000e+08
4970.000000 5.99985000e+08
4990.000000 5.89254000e+08
5010.000000 5.60214000e+08
5030.000000 5.69154000e+08
5050.000000 5.57017000e+08
5070.000000 5.56237000e+08
5090.000000 5.45607000e+08
5110.000000 5.35689000e+08
5130.000000 5.21757000e+08
5150.000000 5.17343000e+08
5170.000000 5.14236000e+08
5190.000000 5.08351000e+08
5210.000000 5.00083000e+08
5230.000000 4.93374000e+08
5250.000000 4.86574000e+08
5270.000000 4.77665000e+08
5290.000000 4.73387000e+08
5310.000000 4.66100000e+08
5330.000000 4.60209000e+08
5350.000000 4.52970000e+08
5370.000000 4.47904000e+08
5390.000000 4.41085000e+08
5410.000000 4.35629000e+08
5430.000000 4.29513000e+08
5450.000000 4.23195000e+08
5470.000000 4.17475000e+08
5490.000000 4.11751000e+08
5510.000000 4.07651000e+08
5530.000000 4.00408000e+08
5550.000000 3.97026000e+08
5570.000000 3.91253000e+08
5590.000000 3.86470000e+08
5610.000000 3.81073000e+08
5630.000000 3.76576000e+08
5650.000000 3.69348000e+08
5670.000000 3.62329000e+08
5690.000000 3.55469000e+08
5710.000000 3.54266000e+08
5730.000000 3.50810000e+08
5750.000000 3.44614000e+08
5770.000000 3.42976000e+08
5790.000000 3.37824000e+08
5810.000000 3.33661000e+08
5830.000000 3.28028000e+08
5850.000000 3.24798000e+08
5870.000000 3.11754000e+08
5890.000000 3.12887000e+08
5910.000000 3.11010000e+08
5930.000000 3.06591000e+08
5950.000000 3.02565000e+08
5970.000000 3.01978000e+08
5990.000000 2.95566000e+08
6010.000000 2.93738000e+08
6030.000000 2.88922000e+08
6050.000000 2.85832000e+08
6070.000000 2.83266000e+08
6090.000000 2.79946000e+08
6110.000000 2.76391000e+08
6130.000000 2.73437000e+08
6150.000000 2.67887000e+08
6170.000000 2.65331000e+08
6190.000000 2.63128000e+08
6210.000000 2.60478000e+08
6230.000000 2.57615000e+08
6250.000000 2.53384000e+08
6270.000000 2.50793000e+08
6290.000000 2.48286000e+08
6310.000000 2.44945000e+08
6330.000000 2.42620000e+08
6350.000000 2.38805000e+08
6370.000000 2.36955000e+08
6390.000000 2.33979000e+08
6410.000000 2.31311000e+08
6430.000000 2.28890000e+08
6450.000000 2.26069000e+08
6470.000000 2.22073000e+08
6490.000000 2.19892000e+08
6510.000000 2.17601000e+08
6530.000000 2.14044000e+08
6550.000000 2.05477000e+08
6570.000000 1.81518000e+08
6590.000000 2.04682000e+08
6610.000000 2.05083000e+08
6630.000000 2.03548000e+08
6650.000000 2.01150000e+08
6670.000000 1.97066000e+08
6690.000000 1.94989000e+08
6710.000000 1.94765000e+08
6730.000000 1.91796000e+08
6750.000000 1.90595000e+08
6770.000000 1.88542000e+08
6790.000000 1.84181000e+08
6810.000000 1.83888000e+08
6830.000000 1.81812000e+08
6850.000000 1.80254000e+08
6870.000000 1.78232000e+08
6890.000000 1.75913000e+08
6910.000000 1.73547000e+08
6930.000000 1.72562000e+08
6950.000000 1.70752000e+08
6970.000000 1.68928000e+08
6990.000000 1.67022000e+08
7010.000000 1.65181000e+08
7030.000000 1.63297000e+08
7050.000000 1.61614000e+08
7070.000000 1.57189000e+08
7090.000000 1.57817000e+08
7110.000000 1.54829000e+08
7130.000000 1.53369000e+08
7150.000000 1.52836000e+08
7170.000000 1.51648000e+08
7190.000000 1.50208000e+08
7210.000000 1.48629000e+08
7230.000000 1.44449000e+08
7250.000000 1.45087000e+08
7270.000000 1.44005000e+08
7290.000000 1.41337000e+08
7310.000000 1.40988000e+08
7330.000000 1.39434000e+08
7350.000000 1.38132000e+08
7370.000000 1.36773000e+08
7390.000000 1.35365000e+08
7410.000000 1.33990000e+08
7430.000000 1.32560000e+08
7450.000000 1.31232000e+08
7470.000000 1.28896000e+08
7490.000000 1.28390000e+08
7510.000000 1.27206000e+08
7530.000000 1.25761000e+08
7550.000000 1.24784000e+08
7570.000000 1.23541000e+08
7590.000000 1.22256000e+08
7610.000000 1.20743000e+08
7630.000000 1.19794000e+08
7650.000000 1.18634000e+08
7670.000000 1.17516000e+08
7690.000000 1.16313000e+08
7710.000000 1.15121000e+08
7730.000000 1.13902000e+08
7750.000000 1.12983000e+08
7770.000000 1.11391000e+08
7790.000000 1.10807000e+08
7810.000000 1.09672000e+08
7830.000000 1.08670000e+08
7850.000000 1.07592000e+08
7870.000000 1.06261000e+08
7890.000000 1.04960000e+08
7910.000000 1.04280000e+08
7930.000000 1.03233000e+08
7950.000000 1.02339000e+08
7970.000000 1.01399000e+08
7990.000000 1.00396000e+08
8010.000000 9.94139000e+07
8030.000000 9.84577000e+07
8050.000000 9.76261000e+07
8070.000000 9.67610000e+07
8090.000000 9.57479000e+07
8110.000000 9.41020000e+07
8130.000000 9.40842000e+07
8150.000000 9.31863000e+07
8170.000000 9.24258000e+07
8190.000000 9.08123000e+07
8210.000000 9.01133000e+07
8230.000000 8.89195000e+07
8250.000000 8.88929000e+07
8270.000000 8.69377000e+07
8290.000000 8.71272000e+07
8310.000000 8.64901000e+07
8330.000000 8.57332000e+07
8350.000000 8.45449000e+07
8370.000000 8.39263000e+07
8390.000000 8.34410000e+07
8410.000000 8.25546000e+07
8430.000000 8.19036000e+07
8450.000000 8.04347000e+07
8470.000000 8.04124000e+07
8490.000000 7.94643000e+07
8510.000000 7.86543000e+07
8530.000000 7.80787000e+07
8550.000000 7.69666000e+07
8570.000000 7.71721000e+07
8590.000000 7.48015000e+07
8610.000000 7.46984000e+07
8630.000000 7.56171000e+07
8650.000000 7.36516000e+07
8670.000000 7.06860000e+07
8690.000000 7.35139000e+07
8710.000000 7.35938000e+07
8730.000000 7.15961000e+07
8750.000000 6.63979000e+07
8770.000000 6.95192000e+07
8790.000000 7.13437000e+07
8810.000000 7.11560000e+07
8830.000000 6.99595000e+07
8850.000000 6.59736000e+07
8870.000000 6.18889000e+07
8890.000000 6.75788000e+07
8910.000000 6.81679000e+07
8930.000000 6.77259000e+07
8950.000000 6.73577000e+07
8970.000000 6.65801000e+07
8990.000000 6.45501000e+07
9010.000000 5.79572000e+07
9030.000000 6.04313000e+07
9050.000000 6.38121000e+07
9070.000000 6.32791000e+07
9090.000000 6.32927000e+07
9110.000000 6.30878000e+07
9130.000000 6.26354000e+07
9150.000000 6.20334000e+07
9170.000000 6.12613000e+07
9190.000000 6.05132000e+07
9210.000000 5.76836000e+07
9230.000000 5.10617000e+07
9250.000000 5.65298000e+07
9270.000000 5.80967000e+07
9290.000000 5.83270000e+07
9310.000000 5.77203000e+07
9330.000000 5.73389000e+07
9350.000000 5.70809000e+07
9370.000000 5.66573000e+07
9390.000000 5.62197000e+07
9410.000000 5.56618000e+07
9430.000000 5.52565000e+07
9450.000000 5.47529000e+07
9470.000000 5.39842000e+07
9490.000000 5.36565000e+07
9510.000000 5.24896000e+07
9530.000000 5.00420000e+07
9550.000000 4.46610000e+07
9570.000000 5.02663000e+07
9590.000000 5.13800000e+07
9610.000000 5.09787000e+07
9630.000000 5.04665000e+07
9650.000000 5.06257000e+07
9670.000000 5.02191000e+07
9690.000000 4.97713000e+07
9710.000000 4.90150000e+07
9730.000000 4.89968000e+07
9750.000000 4.86216000e+07
9770.000000 4.82767000e+07
9790.000000 4.78753000e+07
9810.000000 4.74141000e+07
9830.000000 4.71356000e+07
9850.000000 4.67230000e+07
9870.000000 4.63018000e+07
9890.000000 4.58143000e+07
9910.000000 4.52076000e+07
9930.000000 4.53123000e+07
9950.000000 4.49324000e+07
9970.000000 4.44719000e+07
9990.000000 4.41052000e+07
10025.000000 4.15862000e+07
10075.000000 4.01352000e+07
10125.000000 4.17132000e+07
10175.000000 4.12497000e+07
10225.000000 4.04581000e+07
10275.000000 3.97192000e+07
10325.000000 3.88195000e+07
10375.000000 3.82677000e+07
10425.000000 3.75618000e+07
10475.000000 3.68710000e+07
10525.000000 3.61679000e+07
10575.000000 3.55336000e+07
10625.000000 3.48896000e+07
10675.000000 3.41899000e+07
10725.000000 3.36492000e+07
10775.000000 3.30391000e+07
10825.000000 3.20803000e+07
10875.000000 3.17300000e+07
10925.000000 2.85957000e+07
10975.000000 2.99402000e+07
11025.000000 2.99823000e+07
11075.000000 2.96738000e+07
11125.000000 2.91803000e+07
11175.000000 2.86869000e+07
11225.000000 2.81822000e+07
11275.000000 2.76768000e+07
11325.000000 2.71562000e+07
11375.000000 2.67611000e+07
11425.000000 2.62806000e+07
11475.000000 2.58750000e+07
11525.000000 2.54493000e+07
11575.000000 2.49864000e+07
11625.000000 2.45893000e+07
11675.000000 2.41569000e+07
11725.000000 2.38039000e+07
11775.000000 2.34006000e+07
11825.000000 2.30215000e+07
11875.000000 2.26544000e+07
11925.000000 2.22881000e+07
11975.000000 2.16668000e+07
12025.000000 2.15725000e+07
12075.000000 2.12306000e+07
12125.000000 2.08865000e+07
12175.000000 2.05560000e+07
12225.000000 2.02304000e+07
12275.000000 1.99146000e+07
12325.000000 1.95927000e+07
12375.000000 1.92881000e+07
12425.000000 1.89945000e+07
12475.000000 1.86719000e+07
12525.000000 1.83430000e+07
12575.000000 1.81010000e+07
12625.000000 1.78274000e+07
12675.000000 1.75728000e+07
12725.000000 1.72866000e+07
12775.000000 1.66834000e+07
12825.000000 1.53142000e+07
12875.000000 1.63904000e+07
12925.000000 1.62709000e+07
12975.000000 1.59025000e+07
13025.000000 1.57839000e+07
13075.000000 1.55700000e+07
