# Kurucz ODFNEW /NOVER, alpha: 0.0 (2003)
# teff = 37000 K (value for the effective temperature for the model. Temperatures are given in K)
# logg = 5 log(cm/s2) (value for Log(G) for the model.)
# lh = 1.25  (l/Hp where l is the  mixing length of the convective element and Hp is the pressure scale height)
# meta = 0.2  (value for the Metallicity for the model.)
# vtur = 2 km/s (Microturbulence velocity)
# alpha = 0  (Alpha)
#
# column 1: WAVELENGTH (ANGSTROM), Wavelength in Angstrom
# column 2: FLUX (ERG/CM2/S/A), Flux in erg/cm2/s/A
147.200000 4.73019000e-03
151.000000 1.08447000e-02
155.200000 2.56548000e-02
158.800000 5.17929000e-02
162.000000 9.39311000e-02
166.000000 1.92876000e-01
170.300000 3.99902000e-01
173.400000 6.64436000e-01
176.800000 1.13934000e+00
180.200000 1.90395000e+00
181.700000 2.38659000e+00
186.100000 4.47182000e+00
191.000000 8.70585000e+00
193.900000 1.27126000e+01
198.400000 2.24272000e+01
201.800000 3.37115000e+01
205.000000 4.89287000e+01
210.500000 9.05387000e+01
216.200000 1.64281000e+02
219.800000 2.38692000e+02
223.000000 3.26965000e+02
226.800000 4.73982000e+02
230.000000 1.67769000e+05
234.000000 4.05729000e+05
240.000000 5.70425000e+05
246.500000 8.27398000e+05
252.400000 1.25486000e+06
256.800000 1.67536000e+06
260.000000 2.50007000e+06
264.000000 4.67615000e+06
268.500000 6.80276000e+06
273.500000 8.41371000e+06
278.500000 9.07699000e+06
284.000000 1.63913000e+07
290.000000 2.16881000e+07
296.000000 2.53726000e+07
301.000000 5.31532000e+07
308.000000 1.39919000e+08
318.000000 2.19718000e+08
328.000000 2.98273000e+08
338.000000 4.77523000e+08
348.000000 6.59581000e+08
357.000000 1.36342000e+09
366.000000 2.83062000e+09
375.000000 3.23646000e+09
385.000000 3.65686000e+09
395.000000 6.18148000e+09
405.000000 7.83937000e+09
414.000000 7.70137000e+09
422.000000 8.06540000e+09
430.000000 7.80129000e+09
441.000000 8.87231000e+09
451.000000 9.12092000e+09
460.000000 8.17927000e+09
470.000000 8.79899000e+09
480.000000 9.95161000e+09
490.000000 8.89966000e+09
500.000000 1.05418000e+10
506.000000 1.16937000e+10
512.000000 4.93733000e+10
520.000000 4.57147000e+10
530.000000 4.06986000e+10
540.000000 3.59624000e+10
550.000000 3.80627000e+10
560.000000 4.94674000e+10
570.000000 5.27131000e+10
580.000000 4.92055000e+10
590.000000 5.02584000e+10
600.000000 3.94498000e+10
610.000000 4.48339000e+10
620.000000 5.40740000e+10
630.000000 5.13630000e+10
640.000000 5.28065000e+10
650.000000 5.05656000e+10
658.000000 4.20093000e+10
665.000000 4.93392000e+10
675.000000 5.41564000e+10
685.000000 4.26191000e+10
695.000000 5.31340000e+10
705.000000 4.26661000e+10
716.000000 5.47793000e+10
726.000000 5.35043000e+10
735.000000 5.35828000e+10
745.000000 4.95692000e+10
755.000000 4.90579000e+10
765.000000 4.76421000e+10
775.000000 4.90524000e+10
785.000000 4.83010000e+10
795.000000 4.92864000e+10
805.000000 4.71801000e+10
815.000000 4.67979000e+10
825.000000 4.80747000e+10
835.000000 3.98286000e+10
845.000000 4.54107000e+10
855.000000 4.42541000e+10
865.000000 4.52866000e+10
875.000000 4.48956000e+10
885.000000 4.46072000e+10
895.000000 4.42509000e+10
905.000000 4.26050000e+10
915.000000 3.68893000e+10
925.000000 6.95362000e+10
935.000000 1.02462000e+11
945.000000 1.34665000e+11
955.000000 1.49940000e+11
965.000000 1.75539000e+11
975.000000 9.20121000e+10
985.000000 1.49069000e+11
995.000000 1.29923000e+11
1005.000000 1.33310000e+11
1015.000000 1.38727000e+11
1025.000000 1.06368000e+11
1035.000000 1.36600000e+11
1045.000000 1.50816000e+11
1055.000000 1.43824000e+11
1065.000000 1.27126000e+11
1075.000000 1.29835000e+11
1085.000000 1.16818000e+11
1095.000000 1.24849000e+11
1105.000000 1.18647000e+11
1115.000000 1.17150000e+11
1125.000000 1.01357000e+11
1135.000000 1.11587000e+11
1145.000000 1.08419000e+11
1155.000000 1.01116000e+11
1165.000000 9.62236000e+10
1175.000000 7.12106000e+10
1185.000000 8.84824000e+10
1195.000000 8.50871000e+10
1205.000000 8.20332000e+10
1215.000000 6.24188000e+10
1225.000000 7.72702000e+10
1235.000000 8.15542000e+10
1245.000000 7.92480000e+10
1255.000000 7.85331000e+10
1265.000000 7.99449000e+10
1275.000000 8.15393000e+10
1285.000000 8.10508000e+10
1295.000000 7.68903000e+10
1305.000000 7.56102000e+10
1315.000000 7.80659000e+10
1325.000000 7.54306000e+10
1335.000000 7.33135000e+10
1345.000000 7.25689000e+10
1355.000000 7.02090000e+10
1365.000000 6.77566000e+10
1375.000000 6.55113000e+10
1385.000000 6.35396000e+10
1395.000000 5.57885000e+10
1405.000000 5.47625000e+10
1415.000000 6.07591000e+10
1425.000000 5.42435000e+10
1435.000000 5.75113000e+10
1442.000000 5.60991000e+10
1447.000000 5.58776000e+10
1455.000000 5.32825000e+10
1465.000000 5.24189000e+10
1475.000000 5.20516000e+10
1485.000000 5.22020000e+10
1495.000000 5.03632000e+10
1505.000000 4.94466000e+10
1512.000000 4.87031000e+10
1517.000000 4.85872000e+10
1525.000000 4.69287000e+10
1535.000000 4.15690000e+10
1545.000000 3.46581000e+10
1555.000000 3.51486000e+10
1565.000000 3.89354000e+10
1575.000000 4.02695000e+10
1585.000000 4.01874000e+10
1595.000000 4.00493000e+10
1605.000000 3.76623000e+10
1615.000000 3.59350000e+10
1625.000000 3.66868000e+10
1635.000000 3.63972000e+10
1645.000000 3.57890000e+10
1655.000000 3.64127000e+10
1665.000000 3.56355000e+10
1672.000000 3.30563000e+10
1677.000000 3.76726000e+10
1685.000000 3.60883000e+10
1695.000000 3.49885000e+10
1705.000000 3.43486000e+10
1715.000000 3.28963000e+10
1725.000000 3.16133000e+10
1735.000000 3.25890000e+10
1745.000000 3.22376000e+10
1755.000000 3.14970000e+10
1765.000000 3.09803000e+10
1775.000000 2.99614000e+10
1785.000000 3.02556000e+10
1795.000000 2.93641000e+10
1805.000000 2.90732000e+10
1815.000000 2.84380000e+10
1825.000000 2.77574000e+10
1835.000000 2.77018000e+10
1845.000000 2.68003000e+10
1855.000000 2.68055000e+10
1865.000000 2.66217000e+10
1875.000000 2.58477000e+10
1885.000000 2.49550000e+10
1895.000000 2.47993000e+10
1905.000000 2.49217000e+10
1915.000000 2.43149000e+10
1925.000000 2.28602000e+10
1935.000000 2.38521000e+10
1945.000000 2.38225000e+10
1955.000000 2.20723000e+10
1967.000000 2.26899000e+10
1976.000000 2.27413000e+10
1984.000000 2.22664000e+10
1995.000000 2.16315000e+10
2005.000000 2.18474000e+10
2015.000000 2.15902000e+10
2025.000000 2.13307000e+10
2035.000000 2.07149000e+10
2045.000000 2.03525000e+10
2055.000000 1.57613000e+10
2065.000000 1.50560000e+10
2074.000000 1.53110000e+10
2078.000000 1.53036000e+10
2085.000000 1.59731000e+10
2095.000000 1.71377000e+10
2105.000000 1.83041000e+10
2115.000000 1.85391000e+10
2125.000000 1.80722000e+10
2135.000000 1.79405000e+10
2145.000000 1.76417000e+10
2155.000000 1.75563000e+10
2165.000000 1.66478000e+10
2175.000000 1.71489000e+10
2185.000000 1.63926000e+10
2195.000000 1.67909000e+10
2205.000000 1.65366000e+10
2215.000000 1.56620000e+10
2225.000000 1.60086000e+10
2235.000000 1.57835000e+10
2245.000000 1.54533000e+10
2255.000000 1.47491000e+10
2265.000000 1.50663000e+10
2275.000000 1.49079000e+10
2285.000000 1.44834000e+10
2295.000000 1.35041000e+10
2305.000000 1.36368000e+10
2315.000000 1.38039000e+10
2325.000000 1.37433000e+10
2335.000000 1.35401000e+10
2345.000000 1.33050000e+10
2355.000000 1.30143000e+10
2365.000000 1.28007000e+10
2375.000000 1.25088000e+10
2385.000000 1.18207000e+10
2395.000000 1.20545000e+10
2405.000000 1.20209000e+10
2415.000000 1.18873000e+10
2425.000000 1.18125000e+10
2435.000000 1.15975000e+10
2445.000000 1.14562000e+10
2455.000000 1.12731000e+10
2465.000000 1.11440000e+10
2475.000000 1.10086000e+10
2485.000000 1.07292000e+10
2495.000000 8.85991000e+09
2505.000000 1.03130000e+10
2513.000000 9.65153000e+09
2518.000000 9.99886000e+09
2525.000000 1.01958000e+10
2535.000000 1.01296000e+10
2545.000000 9.95941000e+09
2555.000000 9.81293000e+09
2565.000000 9.69248000e+09
2575.000000 9.56507000e+09
2585.000000 9.44667000e+09
2595.000000 9.24533000e+09
2605.000000 9.21335000e+09
2615.000000 9.02677000e+09
2625.000000 8.97016000e+09
2635.000000 8.87019000e+09
2645.000000 8.71493000e+09
2655.000000 8.62643000e+09
2665.000000 8.45943000e+09
2675.000000 8.23520000e+09
2685.000000 8.26020000e+09
2695.000000 8.09838000e+09
2705.000000 8.04737000e+09
2715.000000 7.91358000e+09
2725.000000 7.81806000e+09
2735.000000 7.52882000e+09
2745.000000 7.66506000e+09
2755.000000 7.55938000e+09
2765.000000 7.43581000e+09
2775.000000 7.39259000e+09
2785.000000 7.26480000e+09
2795.000000 7.04895000e+09
2805.000000 7.06294000e+09
2815.000000 7.01807000e+09
2825.000000 6.91183000e+09
2835.000000 6.80316000e+09
2845.000000 6.77264000e+09
2855.000000 6.67582000e+09
2865.000000 6.55633000e+09
2875.000000 6.49484000e+09
2885.000000 6.42183000e+09
2895.000000 6.33349000e+09
2910.000000 6.19496000e+09
2930.000000 6.08830000e+09
2950.000000 5.91555000e+09
2970.000000 5.77764000e+09
2990.000000 5.60284000e+09
3010.000000 5.45711000e+09
3030.000000 5.30898000e+09
3050.000000 5.22298000e+09
3070.000000 5.12158000e+09
3090.000000 4.98881000e+09
3110.000000 4.90343000e+09
3130.000000 4.77752000e+09
3150.000000 4.68553000e+09
3170.000000 4.57111000e+09
3190.000000 4.47177000e+09
3210.000000 4.32006000e+09
3230.000000 4.28081000e+09
3250.000000 4.20118000e+09
3270.000000 4.06962000e+09
3290.000000 4.00672000e+09
3310.000000 3.91477000e+09
3330.000000 3.82508000e+09
3350.000000 3.72248000e+09
3370.000000 3.65587000e+09
3390.000000 3.59942000e+09
3410.000000 3.52039000e+09
3430.000000 3.45288000e+09
3450.000000 3.35883000e+09
3470.000000 3.30615000e+09
3490.000000 3.24115000e+09
3510.000000 3.17679000e+09
3530.000000 3.11369000e+09
3550.000000 3.04791000e+09
3570.000000 2.99317000e+09
3590.000000 2.92115000e+09
3610.000000 2.85895000e+09
3630.000000 2.80346000e+09
3640.000000 2.75777000e+09
3650.000000 2.57234000e+09
3670.000000 2.52813000e+09
3690.000000 2.48029000e+09
3710.000000 2.40942000e+09
3730.000000 2.38923000e+09
3750.000000 2.36518000e+09
3770.000000 2.31857000e+09
3790.000000 2.36060000e+09
3810.000000 2.40294000e+09
3830.000000 2.20140000e+09
3850.000000 2.38446000e+09
3870.000000 2.34881000e+09
3890.000000 2.04954000e+09
3910.000000 2.32285000e+09
3930.000000 2.27254000e+09
3950.000000 2.20967000e+09
3970.000000 1.88631000e+09
3990.000000 2.14848000e+09
4010.000000 2.12117000e+09
4030.000000 2.03116000e+09
4050.000000 2.05911000e+09
4070.000000 1.98787000e+09
4090.000000 1.85958000e+09
4110.000000 1.70928000e+09
4130.000000 1.88540000e+09
4150.000000 1.86178000e+09
4170.000000 1.84863000e+09
4190.000000 1.80810000e+09
4210.000000 1.76582000e+09
4230.000000 1.75960000e+09
4250.000000 1.71670000e+09
4270.000000 1.68195000e+09
4290.000000 1.65370000e+09
4310.000000 1.60979000e+09
4330.000000 1.49792000e+09
4350.000000 1.40339000e+09
4370.000000 1.53340000e+09
4390.000000 1.49551000e+09
4410.000000 1.48461000e+09
4430.000000 1.47143000e+09
4450.000000 1.44511000e+09
4470.000000 1.38935000e+09
4490.000000 1.39875000e+09
4510.000000 1.36591000e+09
4530.000000 1.34831000e+09
4550.000000 1.30908000e+09
4570.000000 1.31153000e+09
4590.000000 1.28577000e+09
4610.000000 1.26459000e+09
4630.000000 1.23427000e+09
4650.000000 1.17712000e+09
4670.000000 1.19853000e+09
4690.000000 1.15877000e+09
4710.000000 1.15819000e+09
4730.000000 1.15916000e+09
4750.000000 1.14015000e+09
4770.000000 1.12456000e+09
4790.000000 1.10641000e+09
4810.000000 1.08690000e+09
4830.000000 1.06442000e+09
4850.000000 1.00162000e+09
4870.000000 9.18374000e+08
4890.000000 1.01313000e+09
4910.000000 1.00184000e+09
4930.000000 9.74866000e+08
4950.000000 9.72416000e+08
4970.000000 9.62547000e+08
4990.000000 9.48008000e+08
5010.000000 9.20837000e+08
5030.000000 9.16358000e+08
5050.000000 9.01772000e+08
5070.000000 8.92415000e+08
5090.000000 8.78916000e+08
5110.000000 8.65687000e+08
5130.000000 8.52379000e+08
5150.000000 8.39834000e+08
5170.000000 8.27458000e+08
5190.000000 8.15988000e+08
5210.000000 8.04475000e+08
5230.000000 7.92990000e+08
5250.000000 7.79251000e+08
5270.000000 7.68016000e+08
5290.000000 7.59353000e+08
5310.000000 7.48339000e+08
5330.000000 7.37721000e+08
5350.000000 7.27438000e+08
5370.000000 7.17091000e+08
5390.000000 7.06787000e+08
5410.000000 6.85095000e+08
5430.000000 6.87315000e+08
5450.000000 6.77828000e+08
5470.000000 6.68284000e+08
5490.000000 6.59112000e+08
5510.000000 6.49658000e+08
5530.000000 6.41049000e+08
5550.000000 6.32561000e+08
5570.000000 6.23630000e+08
5590.000000 6.13606000e+08
5610.000000 6.07168000e+08
5630.000000 5.98975000e+08
5650.000000 5.90753000e+08
5670.000000 5.82292000e+08
5690.000000 5.66663000e+08
5710.000000 5.46108000e+08
5730.000000 5.39296000e+08
5750.000000 5.31916000e+08
5770.000000 5.25768000e+08
5790.000000 5.18917000e+08
5810.000000 5.10809000e+08
5830.000000 5.04672000e+08
5850.000000 5.00137000e+08
5870.000000 4.85014000e+08
5890.000000 4.88274000e+08
5910.000000 4.84145000e+08
5930.000000 4.79374000e+08
5950.000000 4.74880000e+08
5970.000000 4.71101000e+08
5990.000000 4.66553000e+08
6010.000000 4.62598000e+08
6030.000000 4.57825000e+08
6050.000000 4.53743000e+08
6070.000000 4.48743000e+08
6090.000000 4.43424000e+08
6110.000000 4.37670000e+08
6130.000000 4.32543000e+08
6150.000000 4.26636000e+08
6170.000000 4.21401000e+08
6190.000000 4.16824000e+08
6210.000000 4.11848000e+08
6230.000000 4.06577000e+08
6250.000000 4.01510000e+08
6270.000000 3.96826000e+08
6290.000000 3.92097000e+08
6310.000000 3.86597000e+08
6330.000000 3.82663000e+08
6350.000000 3.77846000e+08
6370.000000 3.73564000e+08
6390.000000 3.69034000e+08
6410.000000 3.63883000e+08
6430.000000 3.60347000e+08
6450.000000 3.55752000e+08
6470.000000 3.51154000e+08
6490.000000 3.47240000e+08
6510.000000 3.42567000e+08
6530.000000 3.36752000e+08
6550.000000 3.25479000e+08
6570.000000 2.95650000e+08
6590.000000 3.24749000e+08
6610.000000 3.23442000e+08
6630.000000 3.20243000e+08
6650.000000 3.16505000e+08
6670.000000 3.09452000e+08
6690.000000 3.05299000e+08
6710.000000 3.05013000e+08
6730.000000 3.01531000e+08
6750.000000 2.98316000e+08
6770.000000 2.95438000e+08
6790.000000 2.91894000e+08
6810.000000 2.88907000e+08
6830.000000 2.85643000e+08
6850.000000 2.82420000e+08
6870.000000 2.79101000e+08
6890.000000 2.74293000e+08
6910.000000 2.72613000e+08
6930.000000 2.70155000e+08
6950.000000 2.67152000e+08
6970.000000 2.64225000e+08
6990.000000 2.61281000e+08
7010.000000 2.58206000e+08
7030.000000 2.54939000e+08
7050.000000 2.52487000e+08
7070.000000 2.47081000e+08
7090.000000 2.47368000e+08
7110.000000 2.44614000e+08
7130.000000 2.41992000e+08
7150.000000 2.39468000e+08
7170.000000 2.35811000e+08
7190.000000 2.33670000e+08
7210.000000 2.31861000e+08
7230.000000 2.28620000e+08
7250.000000 2.26844000e+08
7270.000000 2.24557000e+08
7290.000000 2.20987000e+08
7310.000000 2.19737000e+08
7330.000000 2.17516000e+08
7350.000000 2.15246000e+08
7370.000000 2.12977000e+08
7390.000000 2.10791000e+08
7410.000000 2.08563000e+08
7430.000000 2.06439000e+08
7450.000000 2.04185000e+08
7470.000000 2.02013000e+08
7490.000000 1.99404000e+08
7510.000000 1.97996000e+08
7530.000000 1.95963000e+08
7550.000000 1.94014000e+08
7570.000000 1.91991000e+08
7590.000000 1.88338000e+08
7610.000000 1.87805000e+08
7630.000000 1.86155000e+08
7650.000000 1.84314000e+08
7670.000000 1.82522000e+08
7690.000000 1.80255000e+08
7710.000000 1.78674000e+08
7730.000000 1.76547000e+08
7750.000000 1.75292000e+08
7770.000000 1.73617000e+08
7790.000000 1.71894000e+08
7810.000000 1.70169000e+08
7830.000000 1.68514000e+08
7850.000000 1.66715000e+08
7870.000000 1.65048000e+08
7890.000000 1.63474000e+08
7910.000000 1.62052000e+08
7930.000000 1.60439000e+08
7950.000000 1.58953000e+08
7970.000000 1.57297000e+08
7990.000000 1.55849000e+08
8010.000000 1.54355000e+08
8030.000000 1.52758000e+08
8050.000000 1.51436000e+08
8070.000000 1.49969000e+08
8090.000000 1.48492000e+08
8110.000000 1.46821000e+08
8130.000000 1.45729000e+08
8150.000000 1.44260000e+08
8170.000000 1.42906000e+08
8190.000000 1.41108000e+08
8210.000000 1.37487000e+08
8230.000000 1.35518000e+08
8250.000000 1.34850000e+08
8270.000000 1.33466000e+08
8290.000000 1.32577000e+08
8310.000000 1.31475000e+08
8330.000000 1.29949000e+08
8350.000000 1.28528000e+08
8370.000000 1.27720000e+08
8390.000000 1.26748000e+08
8410.000000 1.25566000e+08
8430.000000 1.24462000e+08
8450.000000 1.23029000e+08
8470.000000 1.22265000e+08
8490.000000 1.21115000e+08
8510.000000 1.19708000e+08
8530.000000 1.18982000e+08
8550.000000 1.17947000e+08
8570.000000 1.17120000e+08
8590.000000 1.15335000e+08
8610.000000 1.14845000e+08
8630.000000 1.14455000e+08
8650.000000 1.12814000e+08
8670.000000 1.10981000e+08
8690.000000 1.11628000e+08
8710.000000 1.11116000e+08
8730.000000 1.09243000e+08
8750.000000 1.05905000e+08
8770.000000 1.06921000e+08
8790.000000 1.07757000e+08
8810.000000 1.07239000e+08
8830.000000 1.05923000e+08
8850.000000 1.02154000e+08
8870.000000 9.89073000e+07
8890.000000 1.02648000e+08
8910.000000 1.02985000e+08
8930.000000 1.02364000e+08
8950.000000 1.01544000e+08
8970.000000 1.00526000e+08
8990.000000 9.81071000e+07
9010.000000 9.18805000e+07
9030.000000 9.34698000e+07
9050.000000 9.64517000e+07
9070.000000 9.58711000e+07
9090.000000 9.56868000e+07
9110.000000 9.51264000e+07
9130.000000 9.44118000e+07
9150.000000 9.35451000e+07
9170.000000 9.24789000e+07
9190.000000 9.13007000e+07
9210.000000 8.79689000e+07
9230.000000 8.14325000e+07
9250.000000 8.63423000e+07
9270.000000 8.81402000e+07
9290.000000 8.79401000e+07
9310.000000 8.72150000e+07
9330.000000 8.66640000e+07
9350.000000 8.48371000e+07
9370.000000 8.52262000e+07
9390.000000 8.46756000e+07
9410.000000 8.38863000e+07
9430.000000 8.32385000e+07
9450.000000 8.25533000e+07
9470.000000 8.15203000e+07
9490.000000 8.09135000e+07
9510.000000 7.93239000e+07
9530.000000 7.62577000e+07
9550.000000 7.05233000e+07
9570.000000 7.60782000e+07
9590.000000 7.73137000e+07
9610.000000 7.69881000e+07
9630.000000 7.63356000e+07
9650.000000 7.61246000e+07
9670.000000 7.55482000e+07
9690.000000 7.49037000e+07
9710.000000 7.30371000e+07
9730.000000 7.35410000e+07
9750.000000 7.31365000e+07
9770.000000 7.24980000e+07
9790.000000 7.19741000e+07
9810.000000 7.13952000e+07
9830.000000 7.08281000e+07
9850.000000 7.02651000e+07
9870.000000 6.97099000e+07
9890.000000 6.91009000e+07
9910.000000 6.84463000e+07
9930.000000 6.80868000e+07
9950.000000 6.75546000e+07
9970.000000 6.69276000e+07
9990.000000 6.62673000e+07
10025.000000 6.30765000e+07
10075.000000 6.11418000e+07
10125.000000 6.21380000e+07
10175.000000 6.19000000e+07
10225.000000 6.06979000e+07
10275.000000 5.95520000e+07
10325.000000 5.82592000e+07
10375.000000 5.73561000e+07
10425.000000 5.62318000e+07
10475.000000 5.52396000e+07
10525.000000 5.42127000e+07
10575.000000 5.32195000e+07
10625.000000 5.22426000e+07
10675.000000 5.12419000e+07
10725.000000 5.03624000e+07
10775.000000 4.94483000e+07
10825.000000 4.81888000e+07
10875.000000 4.74696000e+07
10925.000000 4.36430000e+07
10975.000000 4.49227000e+07
11025.000000 4.49748000e+07
11075.000000 4.43639000e+07
11125.000000 4.36160000e+07
11175.000000 4.28645000e+07
11225.000000 4.21068000e+07
11275.000000 4.13874000e+07
11325.000000 4.06586000e+07
11375.000000 3.99700000e+07
11425.000000 3.92890000e+07
11475.000000 3.86241000e+07
11525.000000 3.79777000e+07
11575.000000 3.73241000e+07
11625.000000 3.64824000e+07
11675.000000 3.59854000e+07
11725.000000 3.54956000e+07
11775.000000 3.49068000e+07
11825.000000 3.43131000e+07
11875.000000 3.37576000e+07
11925.000000 3.32049000e+07
11975.000000 3.23503000e+07
12025.000000 3.21391000e+07
12075.000000 3.16125000e+07
12125.000000 3.10910000e+07
12175.000000 3.06099000e+07
12225.000000 3.01181000e+07
12275.000000 2.96407000e+07
12325.000000 2.91675000e+07
12375.000000 2.87085000e+07
12425.000000 2.82583000e+07
12475.000000 2.78119000e+07
12525.000000 2.73381000e+07
12575.000000 2.69449000e+07
12625.000000 2.65333000e+07
12675.000000 2.61274000e+07
12725.000000 2.56992000e+07
12775.000000 2.49028000e+07
12825.000000 2.31790000e+07
12875.000000 2.43720000e+07
12925.000000 2.41771000e+07
12975.000000 2.37159000e+07
13025.000000 2.34586000e+07
13075.000000 2.31187000e+07
