# Kurucz ODFNEW /NOVER, alpha: 0.0 (2003)
# teff = 27000 K (value for the effective temperature for the model. Temperatures are given in K)
# logg = 3.5 log(cm/s2) (value for Log(G) for the model.)
# lh = 1.25  (l/Hp where l is the  mixing length of the convective element and Hp is the pressure scale height)
# meta = -2  (value for the Metallicity for the model.)
# vtur = 2 km/s (Microturbulence velocity)
# alpha = 0  (Alpha)
#
# column 1: WAVELENGTH (ANGSTROM), Wavelength in Angstrom
# column 2: FLUX (ERG/CM2/S/A), Flux in erg/cm2/s/A
147.200000 1.75170000e-11
151.000000 7.04057000e-11
155.200000 3.02875000e-10
158.800000 9.95805000e-10
162.000000 2.74537000e-09
166.000000 9.23422000e-09
170.300000 3.19236000e-08
173.400000 7.51628000e-08
176.800000 1.85664000e-07
180.200000 4.43206000e-07
181.700000 6.43928000e-07
186.100000 1.86139000e-06
191.000000 5.72751000e-06
193.900000 1.08388000e-05
198.400000 2.81026000e-05
201.800000 5.61006000e-05
205.000000 1.05269000e-04
210.500000 2.96663000e-04
216.200000 8.20879000e-04
219.800000 1.51793000e-03
223.000000 2.57655000e-03
226.800000 4.73381000e-03
230.000000 5.33161000e-01
234.000000 1.35016000e+00
240.000000 2.81363000e+00
246.500000 6.11394000e+00
252.400000 1.19709000e+01
256.800000 1.63148000e+01
260.000000 2.63549000e+01
264.000000 3.83583000e+01
268.500000 5.94993000e+01
273.500000 9.43558000e+01
278.500000 1.46403000e+02
284.000000 2.36021000e+02
290.000000 3.82401000e+02
296.000000 6.05065000e+02
301.000000 8.39108000e+02
308.000000 1.26310000e+03
318.000000 2.85311000e+03
328.000000 5.30196000e+03
338.000000 9.66292000e+03
348.000000 1.67756000e+04
357.000000 2.70375000e+04
366.000000 4.26238000e+04
375.000000 6.37272000e+04
385.000000 9.98800000e+04
395.000000 1.50851000e+05
405.000000 2.22549000e+05
414.000000 3.12337000e+05
422.000000 4.11139000e+05
430.000000 5.37160000e+05
441.000000 7.67363000e+05
451.000000 1.04461000e+06
460.000000 1.34777000e+06
470.000000 1.78797000e+06
480.000000 2.32251000e+06
490.000000 2.98496000e+06
500.000000 3.80241000e+06
506.000000 3.05490000e+07
512.000000 9.31405000e+07
520.000000 9.86407000e+07
530.000000 1.11240000e+08
540.000000 1.09058000e+08
550.000000 1.33406000e+08
560.000000 1.46019000e+08
570.000000 1.61406000e+08
580.000000 1.55877000e+08
590.000000 1.84393000e+08
600.000000 1.99750000e+08
610.000000 2.17908000e+08
620.000000 2.34270000e+08
630.000000 2.53108000e+08
640.000000 2.63361000e+08
650.000000 2.86323000e+08
658.000000 3.03566000e+08
665.000000 3.17893000e+08
675.000000 3.30720000e+08
685.000000 3.45020000e+08
695.000000 3.84236000e+08
705.000000 3.95614000e+08
716.000000 4.30245000e+08
726.000000 4.49830000e+08
735.000000 4.74433000e+08
745.000000 5.04028000e+08
755.000000 5.28786000e+08
765.000000 5.55041000e+08
775.000000 5.84778000e+08
785.000000 6.16853000e+08
795.000000 6.40295000e+08
805.000000 6.68843000e+08
815.000000 6.91666000e+08
825.000000 7.26752000e+08
835.000000 7.24470000e+08
845.000000 7.77017000e+08
855.000000 8.04298000e+08
865.000000 8.37316000e+08
875.000000 8.73004000e+08
885.000000 9.05767000e+08
895.000000 9.35680000e+08
905.000000 9.57664000e+08
915.000000 1.63647000e+09
925.000000 1.41701000e+10
935.000000 2.48745000e+10
945.000000 3.78959000e+10
955.000000 4.08410000e+10
965.000000 4.59167000e+10
975.000000 2.74824000e+10
985.000000 4.34886000e+10
995.000000 4.12870000e+10
1005.000000 4.25582000e+10
1015.000000 4.11862000e+10
1025.000000 2.87722000e+10
1035.000000 3.90718000e+10
1045.000000 4.18636000e+10
1055.000000 4.08334000e+10
1065.000000 3.79146000e+10
1075.000000 3.85556000e+10
1085.000000 3.62417000e+10
1095.000000 3.78670000e+10
1105.000000 3.66108000e+10
1115.000000 3.59813000e+10
1125.000000 3.38234000e+10
1135.000000 3.48911000e+10
1145.000000 3.35803000e+10
1155.000000 3.36000000e+10
1165.000000 3.31173000e+10
1175.000000 2.85857000e+10
1185.000000 3.14481000e+10
1195.000000 3.05758000e+10
1205.000000 2.87057000e+10
1215.000000 1.97985000e+10
1225.000000 2.88605000e+10
1235.000000 2.90496000e+10
1245.000000 2.82275000e+10
1255.000000 2.80832000e+10
1265.000000 2.76010000e+10
1275.000000 2.72161000e+10
1285.000000 2.67371000e+10
1295.000000 2.51576000e+10
1305.000000 2.52248000e+10
1315.000000 2.52914000e+10
1325.000000 2.45613000e+10
1335.000000 2.38227000e+10
1345.000000 2.38217000e+10
1355.000000 2.35083000e+10
1365.000000 2.29670000e+10
1375.000000 2.25584000e+10
1385.000000 2.21926000e+10
1395.000000 2.08476000e+10
1405.000000 2.07160000e+10
1415.000000 2.08909000e+10
1425.000000 2.04076000e+10
1435.000000 2.02358000e+10
1442.000000 2.00760000e+10
1447.000000 1.98638000e+10
1455.000000 1.95392000e+10
1465.000000 1.91838000e+10
1475.000000 1.88449000e+10
1485.000000 1.85544000e+10
1495.000000 1.81772000e+10
1505.000000 1.77618000e+10
1512.000000 1.75417000e+10
1517.000000 1.74099000e+10
1525.000000 1.71256000e+10
1535.000000 1.63884000e+10
1545.000000 1.60223000e+10
1555.000000 1.56673000e+10
1565.000000 1.57277000e+10
1575.000000 1.56531000e+10
1585.000000 1.54547000e+10
1595.000000 1.52097000e+10
1605.000000 1.46595000e+10
1615.000000 1.43915000e+10
1625.000000 1.42553000e+10
1635.000000 1.40682000e+10
1645.000000 1.35129000e+10
1655.000000 1.37352000e+10
1665.000000 1.35160000e+10
1672.000000 1.32935000e+10
1677.000000 1.34251000e+10
1685.000000 1.31931000e+10
1695.000000 1.29355000e+10
1705.000000 1.26707000e+10
1715.000000 1.23547000e+10
1725.000000 1.21873000e+10
1735.000000 1.21254000e+10
1745.000000 1.19088000e+10
1755.000000 1.17398000e+10
1765.000000 1.14735000e+10
1775.000000 1.13258000e+10
1785.000000 1.12119000e+10
1795.000000 1.10433000e+10
1805.000000 1.09170000e+10
1815.000000 1.06836000e+10
1825.000000 1.05308000e+10
1835.000000 1.03871000e+10
1845.000000 1.00443000e+10
1855.000000 9.81230000e+09
1865.000000 9.75610000e+09
1875.000000 9.70953000e+09
1885.000000 9.35795000e+09
1895.000000 9.10533000e+09
1905.000000 9.18844000e+09
1915.000000 8.90730000e+09
1925.000000 8.73316000e+09
1935.000000 8.74123000e+09
1945.000000 8.69928000e+09
1955.000000 8.34033000e+09
1967.000000 8.39642000e+09
1976.000000 8.37887000e+09
1984.000000 8.16050000e+09
1995.000000 7.91591000e+09
2005.000000 7.97031000e+09
2015.000000 7.91079000e+09
2025.000000 7.82908000e+09
2035.000000 7.64817000e+09
2045.000000 7.53553000e+09
2055.000000 6.99564000e+09
2065.000000 6.85242000e+09
2074.000000 6.96553000e+09
2078.000000 6.86597000e+09
2085.000000 6.98608000e+09
2095.000000 6.93997000e+09
2105.000000 6.93243000e+09
2115.000000 6.87924000e+09
2125.000000 6.80388000e+09
2135.000000 6.70087000e+09
2145.000000 6.58900000e+09
2155.000000 6.52767000e+09
2165.000000 6.42081000e+09
2175.000000 6.34996000e+09
2185.000000 6.24715000e+09
2195.000000 6.18746000e+09
2205.000000 6.10171000e+09
2215.000000 5.99860000e+09
2225.000000 5.93285000e+09
2235.000000 5.84843000e+09
2245.000000 5.77612000e+09
2255.000000 5.67529000e+09
2265.000000 5.62088000e+09
2275.000000 5.54610000e+09
2285.000000 5.47147000e+09
2295.000000 5.31646000e+09
2305.000000 5.30851000e+09
2315.000000 5.25206000e+09
2325.000000 5.18307000e+09
2335.000000 5.11148000e+09
2345.000000 5.05023000e+09
2355.000000 4.98414000e+09
2365.000000 4.91911000e+09
2375.000000 4.85346000e+09
2385.000000 4.77450000e+09
2395.000000 4.72676000e+09
2405.000000 4.66767000e+09
2415.000000 4.60630000e+09
2425.000000 4.54910000e+09
2435.000000 4.48830000e+09
2445.000000 4.43270000e+09
2455.000000 4.37747000e+09
2465.000000 4.32187000e+09
2475.000000 4.26660000e+09
2485.000000 4.21281000e+09
2495.000000 4.03102000e+09
2505.000000 4.10612000e+09
2513.000000 4.02365000e+09
2518.000000 4.03591000e+09
2525.000000 4.00612000e+09
2535.000000 3.95675000e+09
2545.000000 3.89751000e+09
2555.000000 3.85633000e+09
2565.000000 3.81177000e+09
2575.000000 3.76546000e+09
2585.000000 3.71958000e+09
2595.000000 3.67464000e+09
2605.000000 3.64787000e+09
2615.000000 3.60327000e+09
2625.000000 3.55838000e+09
2635.000000 3.51004000e+09
2645.000000 3.46815000e+09
2655.000000 3.42374000e+09
2665.000000 3.37879000e+09
2675.000000 3.33694000e+09
2685.000000 3.31270000e+09
2695.000000 3.25320000e+09
2705.000000 3.23347000e+09
2715.000000 3.19599000e+09
2725.000000 3.13955000e+09
2735.000000 3.11301000e+09
2745.000000 3.08497000e+09
2755.000000 3.04956000e+09
2765.000000 2.99349000e+09
2775.000000 2.97988000e+09
2785.000000 2.94512000e+09
2795.000000 2.90103000e+09
2805.000000 2.87559000e+09
2815.000000 2.84545000e+09
2825.000000 2.79084000e+09
2835.000000 2.76935000e+09
2845.000000 2.74959000e+09
2855.000000 2.71803000e+09
2865.000000 2.68766000e+09
2875.000000 2.65760000e+09
2885.000000 2.62812000e+09
2895.000000 2.59858000e+09
2910.000000 2.55491000e+09
2930.000000 2.49891000e+09
2950.000000 2.43025000e+09
2970.000000 2.39092000e+09
2990.000000 2.33898000e+09
3010.000000 2.28792000e+09
3030.000000 2.23984000e+09
3050.000000 2.19230000e+09
3070.000000 2.14604000e+09
3090.000000 2.09847000e+09
3110.000000 2.05668000e+09
3130.000000 2.01518000e+09
3150.000000 1.97323000e+09
3170.000000 1.93195000e+09
3190.000000 1.87900000e+09
3210.000000 1.85153000e+09
3230.000000 1.81567000e+09
3250.000000 1.77888000e+09
3270.000000 1.74478000e+09
3290.000000 1.70776000e+09
3310.000000 1.67611000e+09
3330.000000 1.64286000e+09
3350.000000 1.60789000e+09
3370.000000 1.57905000e+09
3390.000000 1.54841000e+09
3410.000000 1.51847000e+09
3430.000000 1.48256000e+09
3450.000000 1.44931000e+09
3470.000000 1.42565000e+09
3490.000000 1.39856000e+09
3510.000000 1.37793000e+09
3530.000000 1.35298000e+09
3550.000000 1.32807000e+09
3570.000000 1.30885000e+09
3590.000000 1.27797000e+09
3610.000000 1.25619000e+09
3630.000000 1.23109000e+09
3640.000000 1.22707000e+09
3650.000000 1.20149000e+09
3670.000000 1.18390000e+09
3690.000000 1.15273000e+09
3710.000000 1.12096000e+09
3730.000000 1.09001000e+09
3750.000000 1.15337000e+09
3770.000000 1.14886000e+09
3790.000000 1.17521000e+09
3810.000000 1.20851000e+09
3830.000000 1.08584000e+09
3850.000000 1.20950000e+09
3870.000000 1.19499000e+09
3890.000000 1.03518000e+09
3910.000000 1.16653000e+09
3930.000000 1.14229000e+09
3950.000000 1.12653000e+09
3970.000000 9.58932000e+08
3990.000000 1.08513000e+09
4010.000000 1.06700000e+09
4030.000000 1.02398000e+09
4050.000000 1.03700000e+09
4070.000000 1.01680000e+09
4090.000000 9.71973000e+08
4110.000000 8.74533000e+08
4130.000000 9.58692000e+08
4150.000000 9.44465000e+08
4170.000000 9.33585000e+08
4190.000000 9.19415000e+08
4210.000000 9.03750000e+08
4230.000000 8.89329000e+08
4250.000000 8.74263000e+08
4270.000000 8.58819000e+08
4290.000000 8.45569000e+08
4310.000000 8.30621000e+08
4330.000000 7.85090000e+08
4350.000000 7.25407000e+08
4370.000000 7.90175000e+08
4390.000000 7.66982000e+08
4410.000000 7.66143000e+08
4430.000000 7.52253000e+08
4450.000000 7.42482000e+08
4470.000000 7.11606000e+08
4490.000000 7.19071000e+08
4510.000000 7.07911000e+08
4530.000000 6.96809000e+08
4550.000000 6.85183000e+08
4570.000000 6.74996000e+08
4590.000000 6.64513000e+08
4610.000000 6.54363000e+08
4630.000000 6.44293000e+08
4650.000000 6.32648000e+08
4670.000000 6.24546000e+08
4690.000000 6.13013000e+08
4710.000000 5.99684000e+08
4730.000000 5.96779000e+08
4750.000000 5.87673000e+08
4770.000000 5.79112000e+08
4790.000000 5.70461000e+08
4810.000000 5.61900000e+08
4830.000000 5.52767000e+08
4850.000000 5.28070000e+08
4870.000000 4.80869000e+08
4890.000000 5.28021000e+08
4910.000000 5.21681000e+08
4930.000000 5.06095000e+08
4950.000000 5.06611000e+08
4970.000000 4.99415000e+08
4990.000000 4.92212000e+08
5010.000000 4.80441000e+08
5030.000000 4.78206000e+08
5050.000000 4.69241000e+08
5070.000000 4.64696000e+08
5090.000000 4.58114000e+08
5110.000000 4.51649000e+08
5130.000000 4.45272000e+08
5150.000000 4.39022000e+08
5170.000000 4.32911000e+08
5190.000000 4.26910000e+08
5210.000000 4.20988000e+08
5230.000000 4.15171000e+08
5250.000000 4.09458000e+08
5270.000000 4.03833000e+08
5290.000000 3.98308000e+08
5310.000000 3.92882000e+08
5330.000000 3.87552000e+08
5350.000000 3.82304000e+08
5370.000000 3.77149000e+08
5390.000000 3.72060000e+08
5410.000000 3.66856000e+08
5430.000000 3.62190000e+08
5450.000000 3.57355000e+08
5470.000000 3.52619000e+08
5490.000000 3.47955000e+08
5510.000000 3.43374000e+08
5530.000000 3.38862000e+08
5550.000000 3.34430000e+08
5570.000000 3.30054000e+08
5590.000000 3.25767000e+08
5610.000000 3.21545000e+08
5630.000000 3.17387000e+08
5650.000000 3.13291000e+08
5670.000000 3.09233000e+08
5690.000000 3.05190000e+08
5710.000000 3.01392000e+08
5730.000000 2.97570000e+08
5750.000000 2.93761000e+08
5770.000000 2.90098000e+08
5790.000000 2.86434000e+08
5810.000000 2.82848000e+08
5830.000000 2.79281000e+08
5850.000000 2.75811000e+08
5870.000000 2.66019000e+08
5890.000000 2.68864000e+08
5910.000000 2.65677000e+08
5930.000000 2.62388000e+08
5950.000000 2.59159000e+08
5970.000000 2.56009000e+08
5990.000000 2.52874000e+08
6010.000000 2.49796000e+08
6030.000000 2.46754000e+08
6050.000000 2.43777000e+08
6070.000000 2.40833000e+08
6090.000000 2.37934000e+08
6110.000000 2.35077000e+08
6130.000000 2.32272000e+08
6150.000000 2.29489000e+08
6170.000000 2.26767000e+08
6190.000000 2.24075000e+08
6210.000000 2.21432000e+08
6230.000000 2.18819000e+08
6250.000000 2.16254000e+08
6270.000000 2.13717000e+08
6290.000000 2.11217000e+08
6310.000000 2.08754000e+08
6330.000000 2.06337000e+08
6350.000000 2.03946000e+08
6370.000000 2.01591000e+08
6390.000000 1.99270000e+08
6410.000000 1.96983000e+08
6430.000000 1.94730000e+08
6450.000000 1.92501000e+08
6470.000000 1.90305000e+08
6490.000000 1.88141000e+08
6510.000000 1.86017000e+08
6530.000000 1.83749000e+08
6550.000000 1.78747000e+08
6570.000000 1.62117000e+08
6590.000000 1.77139000e+08
6610.000000 1.75801000e+08
6630.000000 1.73851000e+08
6650.000000 1.72006000e+08
6670.000000 1.68808000e+08
6690.000000 1.66967000e+08
6710.000000 1.66375000e+08
6730.000000 1.64539000e+08
6750.000000 1.62755000e+08
6770.000000 1.60973000e+08
6790.000000 1.59209000e+08
6810.000000 1.57496000e+08
6830.000000 1.55783000e+08
6850.000000 1.54104000e+08
6870.000000 1.52442000e+08
6890.000000 1.50804000e+08
6910.000000 1.49191000e+08
6930.000000 1.47594000e+08
6950.000000 1.46028000e+08
6970.000000 1.44477000e+08
6990.000000 1.42935000e+08
7010.000000 1.41430000e+08
7030.000000 1.39941000e+08
7050.000000 1.38473000e+08
7070.000000 1.35038000e+08
7090.000000 1.35581000e+08
7110.000000 1.34171000e+08
7130.000000 1.32775000e+08
7150.000000 1.31399000e+08
7170.000000 1.30008000e+08
7190.000000 1.28695000e+08
7210.000000 1.27366000e+08
7230.000000 1.25963000e+08
7250.000000 1.24761000e+08
7270.000000 1.23491000e+08
7290.000000 1.21318000e+08
7310.000000 1.20973000e+08
7330.000000 1.19766000e+08
7350.000000 1.18551000e+08
7370.000000 1.17353000e+08
7390.000000 1.16174000e+08
7410.000000 1.15006000e+08
7430.000000 1.13855000e+08
7450.000000 1.12735000e+08
7470.000000 1.11599000e+08
7490.000000 1.10500000e+08
7510.000000 1.09365000e+08
7530.000000 1.08320000e+08
7550.000000 1.07251000e+08
7570.000000 1.06198000e+08
7590.000000 1.05149000e+08
7610.000000 1.04122000e+08
7630.000000 1.03105000e+08
7650.000000 1.02103000e+08
7670.000000 1.01110000e+08
7690.000000 1.00126000e+08
7710.000000 9.91572000e+07
7730.000000 9.82034000e+07
7750.000000 9.72456000e+07
7770.000000 9.63213000e+07
7790.000000 9.53990000e+07
7810.000000 9.44231000e+07
7830.000000 9.35849000e+07
7850.000000 9.27785000e+07
7870.000000 9.18879000e+07
7890.000000 9.09748000e+07
7910.000000 9.01661000e+07
7930.000000 8.93105000e+07
7950.000000 8.83610000e+07
7970.000000 8.74140000e+07
7990.000000 8.66642000e+07
8010.000000 8.58209000e+07
8030.000000 8.50434000e+07
8050.000000 8.42958000e+07
8070.000000 8.35430000e+07
8090.000000 8.26354000e+07
8110.000000 8.19304000e+07
8130.000000 8.12828000e+07
8150.000000 8.03909000e+07
8170.000000 7.98172000e+07
8190.000000 7.90066000e+07
8210.000000 7.79961000e+07
8230.000000 7.75007000e+07
8250.000000 7.68265000e+07
8270.000000 7.57668000e+07
8290.000000 7.53469000e+07
8310.000000 7.46900000e+07
8330.000000 7.40006000e+07
8350.000000 7.30144000e+07
8370.000000 7.25260000e+07
8390.000000 7.19613000e+07
8410.000000 7.12892000e+07
8430.000000 7.05696000e+07
8450.000000 6.95870000e+07
8470.000000 6.90802000e+07
8490.000000 6.87447000e+07
8510.000000 6.75792000e+07
8530.000000 6.77390000e+07
8550.000000 6.55466000e+07
8570.000000 6.73903000e+07
8590.000000 6.44832000e+07
8610.000000 6.40722000e+07
8630.000000 6.61884000e+07
8650.000000 6.44779000e+07
8670.000000 6.00511000e+07
8690.000000 6.46240000e+07
8710.000000 6.46354000e+07
8730.000000 6.29210000e+07
8750.000000 5.72112000e+07
8770.000000 6.13344000e+07
8790.000000 6.25817000e+07
8810.000000 6.20698000e+07
8830.000000 6.14700000e+07
8850.000000 5.84749000e+07
8870.000000 5.43042000e+07
8890.000000 5.95706000e+07
8910.000000 5.95027000e+07
8930.000000 5.90428000e+07
8950.000000 5.86899000e+07
8970.000000 5.81241000e+07
8990.000000 5.68543000e+07
9010.000000 5.14696000e+07
9030.000000 5.39677000e+07
9050.000000 5.59879000e+07
9070.000000 5.53245000e+07
9090.000000 5.51725000e+07
9110.000000 5.48716000e+07
9130.000000 5.44416000e+07
9150.000000 5.39924000e+07
9170.000000 5.34166000e+07
9190.000000 5.29524000e+07
9210.000000 5.11904000e+07
9230.000000 4.60426000e+07
9250.000000 5.06210000e+07
9270.000000 5.11919000e+07
9290.000000 5.09586000e+07
9310.000000 5.03488000e+07
9330.000000 5.01245000e+07
9350.000000 4.96819000e+07
9370.000000 4.93198000e+07
9390.000000 4.89220000e+07
9410.000000 4.85270000e+07
9430.000000 4.81350000e+07
9450.000000 4.77458000e+07
9470.000000 4.71201000e+07
9490.000000 4.69845000e+07
9510.000000 4.60831000e+07
9530.000000 4.46745000e+07
9550.000000 4.04490000e+07
9570.000000 4.47748000e+07
9590.000000 4.50143000e+07
9610.000000 4.46599000e+07
9630.000000 4.42390000e+07
9650.000000 4.40800000e+07
9670.000000 4.37367000e+07
9690.000000 4.33558000e+07
9710.000000 4.29376000e+07
9730.000000 4.27135000e+07
9750.000000 4.23800000e+07
9770.000000 4.20488000e+07
9790.000000 4.17238000e+07
9810.000000 4.13973000e+07
9830.000000 4.10770000e+07
9850.000000 4.07628000e+07
9870.000000 4.04469000e+07
9890.000000 4.01333000e+07
9910.000000 3.98142000e+07
9930.000000 3.95202000e+07
9950.000000 3.92169000e+07
9970.000000 3.89195000e+07
9990.000000 3.86204000e+07
10025.000000 3.70118000e+07
10075.000000 3.58571000e+07
10125.000000 3.66037000e+07
10175.000000 3.60043000e+07
10225.000000 3.53212000e+07
10275.000000 3.46817000e+07
10325.000000 3.39293000e+07
10375.000000 3.34193000e+07
10425.000000 3.28097000e+07
10475.000000 3.22140000e+07
10525.000000 3.16318000e+07
10575.000000 3.10626000e+07
10625.000000 3.05059000e+07
10675.000000 2.99134000e+07
10725.000000 2.94301000e+07
10775.000000 2.89097000e+07
10825.000000 2.81134000e+07
10875.000000 2.78768000e+07
10925.000000 2.57442000e+07
10975.000000 2.66196000e+07
11025.000000 2.63443000e+07
11075.000000 2.60105000e+07
11125.000000 2.55721000e+07
11175.000000 2.51356000e+07
11225.000000 2.46954000e+07
11275.000000 2.42896000e+07
11325.000000 2.38799000e+07
11375.000000 2.34792000e+07
11425.000000 2.30865000e+07
11475.000000 2.27021000e+07
11525.000000 2.23257000e+07
11575.000000 2.19567000e+07
11625.000000 2.15954000e+07
11675.000000 2.12419000e+07
11725.000000 2.08956000e+07
11775.000000 2.05560000e+07
11825.000000 2.02234000e+07
11875.000000 1.98974000e+07
11925.000000 1.95780000e+07
11975.000000 1.91248000e+07
12025.000000 1.89583000e+07
12075.000000 1.86575000e+07
12125.000000 1.83627000e+07
12175.000000 1.80737000e+07
12225.000000 1.77905000e+07
12275.000000 1.75126000e+07
12325.000000 1.72404000e+07
12375.000000 1.69732000e+07
12425.000000 1.67112000e+07
12475.000000 1.64543000e+07
12525.000000 1.61723000e+07
12575.000000 1.59549000e+07
12625.000000 1.57125000e+07
12675.000000 1.54746000e+07
12725.000000 1.52408000e+07
12775.000000 1.48226000e+07
12825.000000 1.39090000e+07
12875.000000 1.45271000e+07
12925.000000 1.43502000e+07
12975.000000 1.40597000e+07
13025.000000 1.39291000e+07
13075.000000 1.37244000e+07
