# Kurucz ODFNEW /NOVER, alpha: 0.0 (2003)
# teff = 20000 K (value for the effective temperature for the model. Temperatures are given in K)
# logg = 4 log(cm/s2) (value for Log(G) for the model.)
# lh = 1.25  (l/Hp where l is the  mixing length of the convective element and Hp is the pressure scale height)
# meta = -0.5  (value for the Metallicity for the model.)
# vtur = 2 km/s (Microturbulence velocity)
# alpha = 0  (Alpha)
#
# column 1: WAVELENGTH (ANGSTROM), Wavelength in Angstrom
# column 2: FLUX (ERG/CM2/S/A), Flux in erg/cm2/s/A
147.200000 8.29565000e-20
151.000000 5.02168000e-19
155.200000 3.32686000e-18
158.800000 1.55592000e-17
162.000000 5.80439000e-17
166.000000 2.81084000e-16
170.300000 1.41497000e-15
173.400000 4.32779000e-15
176.800000 1.41239000e-14
180.200000 4.41687000e-14
181.700000 7.20883000e-14
186.100000 2.90750000e-13
191.000000 1.27793000e-12
193.900000 2.96486000e-12
198.400000 1.04446000e-11
201.800000 2.61062000e-11
205.000000 6.02113000e-11
210.500000 2.38900000e-10
216.200000 9.27348000e-10
219.800000 2.10791000e-09
223.000000 4.27797000e-09
226.800000 9.66537000e-09
230.000000 6.37599000e-08
234.000000 1.62255000e-07
240.000000 4.99801000e-07
246.500000 1.57767000e-06
252.400000 4.27694000e-06
256.800000 8.55302000e-06
260.000000 1.43670000e-05
264.000000 2.64093000e-05
268.500000 5.11550000e-05
273.500000 1.03844000e-04
278.500000 2.05981000e-04
284.000000 4.25423000e-04
290.000000 9.06659000e-04
296.000000 1.86954000e-03
301.000000 3.34562000e-03
308.000000 7.21697000e-03
318.000000 2.10337000e-02
328.000000 5.62587000e-02
338.000000 1.42769000e-01
348.000000 3.41347000e-01
357.000000 7.19915000e-01
366.000000 1.46017000e+00
375.000000 2.83327000e+00
385.000000 5.71937000e+00
395.000000 1.10936000e+01
405.000000 2.08063000e+01
414.000000 3.56846000e+01
422.000000 5.62649000e+01
430.000000 8.70206000e+01
441.000000 1.55303000e+02
451.000000 2.55597000e+02
460.000000 3.91418000e+02
470.000000 6.16769000e+02
480.000000 9.50555000e+02
490.000000 1.43921000e+03
500.000000 2.13801000e+03
506.000000 1.75302000e+04
512.000000 6.70296000e+04
520.000000 8.65126000e+04
530.000000 1.24382000e+05
540.000000 1.44271000e+05
550.000000 2.15738000e+05
560.000000 2.68348000e+05
570.000000 3.47556000e+05
580.000000 3.61678000e+05
590.000000 5.00170000e+05
600.000000 6.39906000e+05
610.000000 7.98431000e+05
620.000000 9.46743000e+05
630.000000 1.13892000e+06
640.000000 1.29289000e+06
650.000000 1.43728000e+06
658.000000 1.79818000e+06
665.000000 1.98866000e+06
675.000000 2.25405000e+06
685.000000 2.58703000e+06
695.000000 3.10244000e+06
705.000000 3.51114000e+06
716.000000 4.07075000e+06
726.000000 4.56220000e+06
735.000000 5.08143000e+06
745.000000 5.84020000e+06
755.000000 6.57939000e+06
765.000000 7.36754000e+06
775.000000 8.26249000e+06
785.000000 9.21855000e+06
795.000000 1.00986000e+07
805.000000 1.11166000e+07
815.000000 1.21153000e+07
825.000000 1.34612000e+07
835.000000 1.43068000e+07
845.000000 1.57493000e+07
855.000000 1.71022000e+07
865.000000 1.87160000e+07
875.000000 2.04887000e+07
885.000000 2.23996000e+07
895.000000 2.41490000e+07
905.000000 2.52603000e+07
915.000000 4.11272000e+07
925.000000 2.01581000e+08
935.000000 7.07328000e+08
945.000000 2.77827000e+09
955.000000 5.25383000e+09
965.000000 7.05580000e+09
975.000000 1.32478000e+09
985.000000 8.76411000e+09
995.000000 8.53937000e+09
1005.000000 9.69476000e+09
1015.000000 8.45006000e+09
1025.000000 1.75552000e+09
1035.000000 5.80309000e+09
1045.000000 1.09246000e+10
1055.000000 1.04365000e+10
1065.000000 8.82315000e+09
1075.000000 1.01893000e+10
1085.000000 9.08202000e+09
1095.000000 1.01495000e+10
1105.000000 9.12987000e+09
1115.000000 8.89805000e+09
1125.000000 8.10804000e+09
1135.000000 9.51485000e+09
1145.000000 8.55341000e+09
1155.000000 8.93685000e+09
1165.000000 9.15714000e+09
1175.000000 7.01300000e+09
1185.000000 9.02477000e+09
1195.000000 7.21419000e+09
1205.000000 4.48072000e+09
1215.000000 1.44371000e+09
1225.000000 5.50298000e+09
1235.000000 7.98005000e+09
1245.000000 8.30833000e+09
1255.000000 8.08245000e+09
1265.000000 7.66584000e+09
1275.000000 8.04663000e+09
1285.000000 8.01245000e+09
1295.000000 6.04443000e+09
1305.000000 5.92118000e+09
1315.000000 7.62489000e+09
1325.000000 7.21153000e+09
1335.000000 6.59933000e+09
1345.000000 7.13485000e+09
1355.000000 7.00038000e+09
1365.000000 6.49926000e+09
1375.000000 6.45031000e+09
1385.000000 6.48928000e+09
1395.000000 5.77012000e+09
1405.000000 6.00278000e+09
1415.000000 5.96565000e+09
1425.000000 5.96645000e+09
1435.000000 5.98329000e+09
1442.000000 6.09836000e+09
1447.000000 5.98594000e+09
1455.000000 5.85908000e+09
1465.000000 5.56030000e+09
1475.000000 5.51495000e+09
1485.000000 5.37874000e+09
1495.000000 5.32843000e+09
1505.000000 5.02018000e+09
1512.000000 4.60566000e+09
1517.000000 4.75739000e+09
1525.000000 4.82392000e+09
1535.000000 4.39657000e+09
1545.000000 4.49103000e+09
1555.000000 4.26099000e+09
1565.000000 4.35714000e+09
1575.000000 4.51810000e+09
1585.000000 4.47791000e+09
1595.000000 4.50383000e+09
1605.000000 4.40108000e+09
1615.000000 4.35209000e+09
1625.000000 4.23549000e+09
1635.000000 4.34703000e+09
1645.000000 4.29337000e+09
1655.000000 4.10974000e+09
1665.000000 4.29874000e+09
1672.000000 4.12820000e+09
1677.000000 4.22619000e+09
1685.000000 4.21482000e+09
1695.000000 4.03974000e+09
1705.000000 3.86899000e+09
1715.000000 3.70373000e+09
1725.000000 3.65306000e+09
1735.000000 3.75738000e+09
1745.000000 3.64119000e+09
1755.000000 3.71234000e+09
1765.000000 3.48368000e+09
1775.000000 3.48746000e+09
1785.000000 3.48551000e+09
1795.000000 3.55856000e+09
1805.000000 3.53970000e+09
1815.000000 3.29084000e+09
1825.000000 3.37127000e+09
1835.000000 3.25944000e+09
1845.000000 3.03429000e+09
1855.000000 2.96181000e+09
1865.000000 3.00053000e+09
1875.000000 3.14414000e+09
1885.000000 2.87221000e+09
1895.000000 2.70895000e+09
1905.000000 2.88519000e+09
1915.000000 2.74162000e+09
1925.000000 2.66106000e+09
1935.000000 2.74420000e+09
1945.000000 2.78487000e+09
1955.000000 2.58268000e+09
1967.000000 2.73471000e+09
1976.000000 2.81743000e+09
1984.000000 2.64076000e+09
1995.000000 2.57301000e+09
2005.000000 2.62500000e+09
2015.000000 2.58658000e+09
2025.000000 2.66298000e+09
2035.000000 2.49150000e+09
2045.000000 2.50061000e+09
2055.000000 2.42183000e+09
2065.000000 2.45082000e+09
2074.000000 2.52383000e+09
2078.000000 2.37401000e+09
2085.000000 2.42899000e+09
2095.000000 2.31736000e+09
2105.000000 2.35873000e+09
2115.000000 2.34372000e+09
2125.000000 2.37561000e+09
2135.000000 2.31655000e+09
2145.000000 2.23449000e+09
2155.000000 2.28778000e+09
2165.000000 2.25151000e+09
2175.000000 2.22209000e+09
2185.000000 2.17899000e+09
2195.000000 2.19351000e+09
2205.000000 2.15042000e+09
2215.000000 2.11223000e+09
2225.000000 2.05684000e+09
2235.000000 2.07007000e+09
2245.000000 2.05481000e+09
2255.000000 1.99617000e+09
2265.000000 2.01281000e+09
2275.000000 1.99049000e+09
2285.000000 1.98898000e+09
2295.000000 1.91854000e+09
2305.000000 1.91945000e+09
2315.000000 1.87520000e+09
2325.000000 1.85709000e+09
2335.000000 1.79803000e+09
2345.000000 1.76628000e+09
2355.000000 1.78358000e+09
2365.000000 1.73822000e+09
2375.000000 1.73377000e+09
2385.000000 1.69475000e+09
2395.000000 1.70946000e+09
2405.000000 1.66818000e+09
2415.000000 1.65575000e+09
2425.000000 1.66313000e+09
2435.000000 1.61392000e+09
2445.000000 1.61757000e+09
2455.000000 1.61424000e+09
2465.000000 1.57729000e+09
2475.000000 1.55984000e+09
2485.000000 1.56012000e+09
2495.000000 1.51048000e+09
2505.000000 1.53129000e+09
2513.000000 1.47460000e+09
2518.000000 1.50583000e+09
2525.000000 1.47049000e+09
2535.000000 1.44713000e+09
2545.000000 1.42508000e+09
2555.000000 1.44655000e+09
2565.000000 1.42224000e+09
2575.000000 1.42826000e+09
2585.000000 1.41914000e+09
2595.000000 1.40459000e+09
2605.000000 1.39138000e+09
2615.000000 1.37845000e+09
2625.000000 1.36354000e+09
2635.000000 1.35006000e+09
2645.000000 1.36066000e+09
2655.000000 1.34701000e+09
2665.000000 1.31628000e+09
2675.000000 1.31583000e+09
2685.000000 1.30788000e+09
2695.000000 1.27895000e+09
2705.000000 1.27589000e+09
2715.000000 1.25752000e+09
2725.000000 1.23623000e+09
2735.000000 1.24070000e+09
2745.000000 1.19718000e+09
2755.000000 1.19253000e+09
2765.000000 1.18717000e+09
2775.000000 1.19506000e+09
2785.000000 1.17873000e+09
2795.000000 1.13872000e+09
2805.000000 1.15173000e+09
2815.000000 1.15131000e+09
2825.000000 1.12967000e+09
2835.000000 1.10020000e+09
2845.000000 1.10505000e+09
2855.000000 1.09959000e+09
2865.000000 1.09716000e+09
2875.000000 1.08261000e+09
2885.000000 1.07435000e+09
2895.000000 1.06451000e+09
2910.000000 1.05019000e+09
2930.000000 1.02572000e+09
2950.000000 1.00147000e+09
2970.000000 9.91184000e+08
2990.000000 9.69372000e+08
3010.000000 9.53705000e+08
3030.000000 9.39803000e+08
3050.000000 9.21929000e+08
3070.000000 9.04960000e+08
3090.000000 8.86852000e+08
3110.000000 8.71704000e+08
3130.000000 8.57292000e+08
3150.000000 8.41771000e+08
3170.000000 8.25671000e+08
3190.000000 8.04281000e+08
3210.000000 7.96813000e+08
3230.000000 7.83040000e+08
3250.000000 7.69545000e+08
3270.000000 7.56919000e+08
3290.000000 7.43010000e+08
3310.000000 7.31514000e+08
3330.000000 7.18779000e+08
3350.000000 7.05220000e+08
3370.000000 6.94320000e+08
3390.000000 6.82775000e+08
3410.000000 6.71420000e+08
3430.000000 6.57753000e+08
3450.000000 6.44863000e+08
3470.000000 6.35699000e+08
3490.000000 6.25186000e+08
3510.000000 6.16798000e+08
3530.000000 6.07772000e+08
3550.000000 5.97984000e+08
3570.000000 5.90741000e+08
3590.000000 5.77805000e+08
3610.000000 5.69281000e+08
3630.000000 5.59852000e+08
3640.000000 5.58515000e+08
3650.000000 5.50821000e+08
3670.000000 5.44386000e+08
3690.000000 5.31556000e+08
3710.000000 5.15823000e+08
3730.000000 4.99800000e+08
3750.000000 5.44366000e+08
3770.000000 5.52441000e+08
3790.000000 5.91816000e+08
3810.000000 6.23561000e+08
3830.000000 5.36578000e+08
3850.000000 6.46635000e+08
3870.000000 6.56042000e+08
3890.000000 5.06709000e+08
3910.000000 6.49736000e+08
3930.000000 6.36383000e+08
3950.000000 6.29472000e+08
3970.000000 4.72510000e+08
3990.000000 6.03095000e+08
4010.000000 6.03654000e+08
4030.000000 5.66756000e+08
4050.000000 5.90778000e+08
4070.000000 5.75366000e+08
4090.000000 5.24103000e+08
4110.000000 4.50815000e+08
4130.000000 5.38980000e+08
4150.000000 5.37341000e+08
4170.000000 5.33846000e+08
4190.000000 5.28139000e+08
4210.000000 5.20583000e+08
4230.000000 5.11608000e+08
4250.000000 5.02800000e+08
4270.000000 4.90146000e+08
4290.000000 4.85996000e+08
4310.000000 4.74904000e+08
4330.000000 4.22906000e+08
4350.000000 3.82692000e+08
4370.000000 4.51123000e+08
4390.000000 4.36368000e+08
4410.000000 4.42550000e+08
4430.000000 4.34225000e+08
4450.000000 4.30330000e+08
4470.000000 4.04108000e+08
4490.000000 4.14550000e+08
4510.000000 4.11492000e+08
4530.000000 4.04507000e+08
4550.000000 3.98557000e+08
4570.000000 3.92731000e+08
4590.000000 3.87099000e+08
4610.000000 3.80947000e+08
4630.000000 3.74903000e+08
4650.000000 3.68828000e+08
4670.000000 3.64553000e+08
4690.000000 3.59789000e+08
4710.000000 3.48470000e+08
4730.000000 3.47263000e+08
4750.000000 3.41991000e+08
4770.000000 3.39593000e+08
4790.000000 3.34382000e+08
4810.000000 3.28090000e+08
4830.000000 3.21616000e+08
4850.000000 2.92767000e+08
4870.000000 2.58853000e+08
4890.000000 3.07186000e+08
4910.000000 3.05564000e+08
4930.000000 2.94441000e+08
4950.000000 2.98401000e+08
4970.000000 2.94570000e+08
4990.000000 2.90292000e+08
5010.000000 2.81075000e+08
5030.000000 2.81971000e+08
5050.000000 2.74986000e+08
5070.000000 2.74711000e+08
5090.000000 2.70928000e+08
5110.000000 2.67022000e+08
5130.000000 2.62997000e+08
5150.000000 2.59424000e+08
5170.000000 2.56646000e+08
5190.000000 2.53231000e+08
5210.000000 2.48737000e+08
5230.000000 2.46535000e+08
5250.000000 2.43294000e+08
5270.000000 2.40013000e+08
5290.000000 2.37057000e+08
5310.000000 2.33872000e+08
5330.000000 2.30714000e+08
5350.000000 2.27374000e+08
5370.000000 2.24978000e+08
5390.000000 2.22053000e+08
5410.000000 2.19140000e+08
5430.000000 2.15919000e+08
5450.000000 2.13373000e+08
5470.000000 2.10645000e+08
5490.000000 2.08175000e+08
5510.000000 2.05488000e+08
5530.000000 2.02908000e+08
5550.000000 2.00433000e+08
5570.000000 1.97867000e+08
5590.000000 1.95453000e+08
5610.000000 1.92865000e+08
5630.000000 1.90689000e+08
5650.000000 1.87571000e+08
5670.000000 1.85371000e+08
5690.000000 1.83279000e+08
5710.000000 1.81385000e+08
5730.000000 1.79180000e+08
5750.000000 1.76967000e+08
5770.000000 1.74917000e+08
5790.000000 1.72778000e+08
5810.000000 1.70686000e+08
5830.000000 1.68608000e+08
5850.000000 1.66610000e+08
5870.000000 1.59703000e+08
5890.000000 1.61987000e+08
5910.000000 1.60677000e+08
5930.000000 1.58781000e+08
5950.000000 1.56715000e+08
5970.000000 1.55117000e+08
5990.000000 1.53169000e+08
6010.000000 1.51526000e+08
6030.000000 1.49724000e+08
6050.000000 1.48016000e+08
6070.000000 1.46296000e+08
6090.000000 1.44574000e+08
6110.000000 1.42953000e+08
6130.000000 1.41310000e+08
6150.000000 1.39466000e+08
6170.000000 1.38059000e+08
6190.000000 1.36519000e+08
6210.000000 1.34967000e+08
6230.000000 1.33423000e+08
6250.000000 1.31808000e+08
6270.000000 1.30423000e+08
6290.000000 1.28956000e+08
6310.000000 1.27459000e+08
6330.000000 1.26110000e+08
6350.000000 1.24279000e+08
6370.000000 1.23064000e+08
6390.000000 1.21926000e+08
6410.000000 1.20570000e+08
6430.000000 1.19311000e+08
6450.000000 1.17965000e+08
6470.000000 1.16607000e+08
6490.000000 1.15380000e+08
6510.000000 1.13943000e+08
6530.000000 1.12195000e+08
6550.000000 1.06356000e+08
6570.000000 9.35695000e+07
6590.000000 1.07394000e+08
6610.000000 1.07780000e+08
6630.000000 1.06950000e+08
6650.000000 1.05908000e+08
6670.000000 1.03783000e+08
6690.000000 1.02709000e+08
6710.000000 1.02575000e+08
6730.000000 1.01483000e+08
6750.000000 1.00445000e+08
6770.000000 9.93918000e+07
6790.000000 9.81697000e+07
6810.000000 9.72934000e+07
6830.000000 9.62803000e+07
6850.000000 9.53014000e+07
6870.000000 9.43163000e+07
6890.000000 9.33410000e+07
6910.000000 9.23754000e+07
6930.000000 9.13958000e+07
6950.000000 9.04962000e+07
6970.000000 8.95743000e+07
6990.000000 8.86538000e+07
7010.000000 8.77500000e+07
7030.000000 8.68627000e+07
7050.000000 8.59461000e+07
7070.000000 8.38175000e+07
7090.000000 8.42746000e+07
7110.000000 8.34061000e+07
7130.000000 8.25832000e+07
7150.000000 8.17534000e+07
7170.000000 8.09315000e+07
7190.000000 8.01467000e+07
7210.000000 7.93548000e+07
7230.000000 7.80011000e+07
7250.000000 7.77792000e+07
7270.000000 7.70311000e+07
7290.000000 7.57158000e+07
7310.000000 7.55206000e+07
7330.000000 7.47865000e+07
7350.000000 7.40662000e+07
7370.000000 7.33457000e+07
7390.000000 7.26320000e+07
7410.000000 7.19317000e+07
7430.000000 7.12174000e+07
7450.000000 7.05572000e+07
7470.000000 6.98559000e+07
7490.000000 6.92012000e+07
7510.000000 6.85259000e+07
7530.000000 6.78966000e+07
7550.000000 6.72598000e+07
7570.000000 6.66222000e+07
7590.000000 6.59903000e+07
7610.000000 6.53707000e+07
7630.000000 6.47566000e+07
7650.000000 6.41488000e+07
7670.000000 6.35489000e+07
7690.000000 6.29550000e+07
7710.000000 6.23684000e+07
7730.000000 6.17857000e+07
7750.000000 6.12125000e+07
7770.000000 6.04123000e+07
7790.000000 6.00907000e+07
7810.000000 5.95067000e+07
7830.000000 5.89917000e+07
7850.000000 5.84433000e+07
7870.000000 5.79167000e+07
7890.000000 5.73154000e+07
7910.000000 5.69109000e+07
7930.000000 5.64014000e+07
7950.000000 5.58312000e+07
7970.000000 5.53112000e+07
7990.000000 5.47632000e+07
8010.000000 5.43063000e+07
8030.000000 5.38141000e+07
8050.000000 5.33424000e+07
8070.000000 5.28932000e+07
8090.000000 5.23424000e+07
8110.000000 5.19214000e+07
8130.000000 5.15032000e+07
8150.000000 5.09847000e+07
8170.000000 5.06067000e+07
8190.000000 5.01026000e+07
8210.000000 4.95324000e+07
8230.000000 4.91991000e+07
8250.000000 4.88363000e+07
8270.000000 4.82032000e+07
8290.000000 4.79523000e+07
8310.000000 4.75548000e+07
8330.000000 4.71373000e+07
8350.000000 4.65324000e+07
8370.000000 4.62420000e+07
8390.000000 4.59148000e+07
8410.000000 4.54921000e+07
8430.000000 4.50337000e+07
8450.000000 4.43343000e+07
8470.000000 4.41100000e+07
8490.000000 4.38261000e+07
8510.000000 4.31464000e+07
8530.000000 4.32100000e+07
8550.000000 4.17547000e+07
8570.000000 4.30743000e+07
8590.000000 4.10262000e+07
8610.000000 4.07642000e+07
8630.000000 4.25169000e+07
8650.000000 4.11081000e+07
8670.000000 3.78865000e+07
8690.000000 4.14828000e+07
8710.000000 4.18988000e+07
8730.000000 4.04584000e+07
8750.000000 3.58816000e+07
8770.000000 3.90631000e+07
8790.000000 4.07788000e+07
8810.000000 4.06565000e+07
8830.000000 4.00430000e+07
8850.000000 3.71325000e+07
8870.000000 3.40679000e+07
8890.000000 3.84928000e+07
8910.000000 3.90116000e+07
8930.000000 3.87822000e+07
8950.000000 3.85987000e+07
8970.000000 3.81632000e+07
8990.000000 3.69215000e+07
9010.000000 3.24336000e+07
9030.000000 3.41187000e+07
9050.000000 3.65614000e+07
9070.000000 3.63486000e+07
9090.000000 3.63375000e+07
9110.000000 3.62330000e+07
9130.000000 3.60062000e+07
9150.000000 3.56519000e+07
9170.000000 3.52094000e+07
9190.000000 3.47864000e+07
9210.000000 3.30535000e+07
9230.000000 2.88894000e+07
9250.000000 3.24279000e+07
9270.000000 3.34832000e+07
9290.000000 3.36199000e+07
9310.000000 3.32974000e+07
9330.000000 3.32167000e+07
9350.000000 3.29463000e+07
9370.000000 3.27153000e+07
9390.000000 3.24521000e+07
9410.000000 3.21178000e+07
9430.000000 3.19478000e+07
9450.000000 3.16942000e+07
9470.000000 3.11891000e+07
9490.000000 3.10611000e+07
9510.000000 3.03578000e+07
9530.000000 2.87933000e+07
9550.000000 2.55644000e+07
9570.000000 2.89842000e+07
9590.000000 2.97031000e+07
9610.000000 2.95764000e+07
9630.000000 2.92993000e+07
9650.000000 2.93203000e+07
9670.000000 2.90884000e+07
9690.000000 2.88441000e+07
9710.000000 2.85703000e+07
9730.000000 2.84339000e+07
9750.000000 2.82143000e+07
9770.000000 2.80026000e+07
9790.000000 2.77897000e+07
9810.000000 2.75778000e+07
9830.000000 2.73671000e+07
9850.000000 2.71633000e+07
9870.000000 2.69566000e+07
9890.000000 2.67476000e+07
9910.000000 2.64989000e+07
9930.000000 2.63541000e+07
9950.000000 2.61569000e+07
9970.000000 2.59259000e+07
9990.000000 2.56648000e+07
10025.000000 2.41836000e+07
10075.000000 2.33492000e+07
10125.000000 2.43720000e+07
10175.000000 2.40588000e+07
10225.000000 2.36162000e+07
10275.000000 2.31992000e+07
10325.000000 2.26998000e+07
10375.000000 2.23740000e+07
10425.000000 2.19755000e+07
10475.000000 2.15856000e+07
10525.000000 2.12025000e+07
10575.000000 2.08313000e+07
10625.000000 2.04669000e+07
10675.000000 2.00607000e+07
10725.000000 1.97595000e+07
10775.000000 1.94185000e+07
10825.000000 1.88775000e+07
10875.000000 1.86658000e+07
10925.000000 1.68606000e+07
10975.000000 1.76178000e+07
11025.000000 1.76778000e+07
11075.000000 1.75029000e+07
11125.000000 1.72254000e+07
11175.000000 1.69371000e+07
11225.000000 1.66481000e+07
11275.000000 1.63650000e+07
11325.000000 1.61022000e+07
11375.000000 1.58459000e+07
11425.000000 1.55854000e+07
11475.000000 1.53332000e+07
11525.000000 1.50844000e+07
11575.000000 1.48397000e+07
11625.000000 1.45991000e+07
11675.000000 1.43663000e+07
11725.000000 1.41382000e+07
11775.000000 1.39062000e+07
11825.000000 1.36940000e+07
11875.000000 1.34774000e+07
11925.000000 1.32671000e+07
11975.000000 1.29469000e+07
12025.000000 1.28562000e+07
12075.000000 1.26569000e+07
12125.000000 1.24610000e+07
12175.000000 1.22694000e+07
12225.000000 1.20813000e+07
12275.000000 1.18968000e+07
12325.000000 1.17156000e+07
12375.000000 1.15382000e+07
12425.000000 1.13641000e+07
12475.000000 1.11906000e+07
12525.000000 1.10056000e+07
12575.000000 1.08594000e+07
12625.000000 1.06987000e+07
12675.000000 1.05408000e+07
12725.000000 1.03720000e+07
12775.000000 1.00380000e+07
12825.000000 9.24390000e+06
12875.000000 9.84631000e+06
12925.000000 9.78246000e+06
12975.000000 9.59017000e+06
13025.000000 9.50980000e+06
13075.000000 9.37308000e+06
