# Kurucz ODFNEW /NOVER, alpha: 0.0 (2003)
# teff = 9500 K (value for the effective temperature for the model. Temperatures are given in K)
# logg = 3.5 log(cm/s2) (value for Log(G) for the model.)
# lh = 1.25  (l/Hp where l is the  mixing length of the convective element and Hp is the pressure scale height)
# meta = -1.5  (value for the Metallicity for the model.)
# vtur = 2 km/s (Microturbulence velocity)
# alpha = 0  (Alpha)
#
# column 1: WAVELENGTH (ANGSTROM), Wavelength in Angstrom
# column 2: FLUX (ERG/CM2/S/A), Flux in erg/cm2/s/A
264.000000 5.06776000e-23
268.500000 2.27849000e-22
273.500000 9.92562000e-22
278.500000 4.01781000e-21
284.000000 1.76211000e-20
290.000000 8.27282000e-20
296.000000 3.63938000e-19
301.000000 1.19583000e-18
308.000000 5.91559000e-18
318.000000 5.12171000e-17
328.000000 3.87571000e-16
338.000000 2.59276000e-15
348.000000 1.55098000e-14
357.000000 7.10131000e-14
366.000000 3.01145000e-13
375.000000 1.18823000e-12
385.000000 5.05297000e-12
395.000000 1.99113000e-11
405.000000 7.31525000e-11
414.000000 2.23186000e-10
422.000000 5.77034000e-10
430.000000 1.43791000e-09
441.000000 4.77050000e-09
451.000000 1.34568000e-08
460.000000 3.28695000e-08
470.000000 8.50225000e-08
480.000000 2.10946000e-07
490.000000 5.03509000e-07
500.000000 1.15829000e-06
506.000000 2.17648000e-06
512.000000 3.69624000e-06
520.000000 6.77179000e-06
530.000000 1.41103000e-05
540.000000 2.83309000e-05
550.000000 5.57908000e-05
560.000000 1.06701000e-04
570.000000 1.99206000e-04
580.000000 3.61835000e-04
590.000000 6.49087000e-04
600.000000 1.13542000e-03
610.000000 1.94763000e-03
620.000000 3.27933000e-03
630.000000 5.42485000e-03
640.000000 8.82463000e-03
650.000000 1.41267000e-02
658.000000 2.03573000e-02
665.000000 2.78093000e-02
675.000000 4.28990000e-02
685.000000 6.52802000e-02
695.000000 9.80538000e-02
705.000000 1.45454000e-01
716.000000 2.21369000e-01
726.000000 3.20417000e-01
735.000000 4.42821000e-01
745.000000 6.28098000e-01
755.000000 8.81971000e-01
765.000000 1.22651000e+00
775.000000 1.68982000e+00
785.000000 2.30742000e+00
795.000000 3.12363000e+00
805.000000 4.19415000e+00
815.000000 5.58669000e+00
825.000000 7.38487000e+00
835.000000 9.69022000e+00
845.000000 1.26279000e+01
855.000000 1.63416000e+01
865.000000 2.10089000e+01
875.000000 2.68367000e+01
885.000000 3.40720000e+01
895.000000 4.30018000e+01
905.000000 5.39548000e+01
915.000000 2.00432000e+02
925.000000 1.14182000e+03
935.000000 1.94629000e+03
945.000000 3.62169000e+03
955.000000 5.94117000e+03
965.000000 8.00933000e+03
975.000000 5.41420000e+03
985.000000 1.86046000e+04
995.000000 9.66306000e+04
1005.000000 5.93577000e+04
1015.000000 1.78615000e+04
1025.000000 9.34235000e+03
1035.000000 2.27189000e+04
1045.000000 1.04657000e+05
1055.000000 8.84939000e+05
1065.000000 1.96342000e+06
1075.000000 3.32353000e+06
1085.000000 4.27380000e+06
1095.000000 4.40786000e+06
1105.000000 1.28736000e+07
1115.000000 3.87267000e+07
1125.000000 4.18038000e+07
1135.000000 4.39275000e+07
1145.000000 3.66464000e+07
1155.000000 2.73559000e+07
1165.000000 1.83370000e+07
1175.000000 7.09923000e+06
1185.000000 5.34607000e+06
1195.000000 1.01417000e+05
1205.000000 7.06304000e+04
1215.000000 2.42142000e+04
1225.000000 7.70041000e+04
1235.000000 1.47046000e+05
1245.000000 5.30013000e+05
1255.000000 5.20979000e+06
1265.000000 1.39243000e+07
1275.000000 2.88128000e+07
1285.000000 4.70426000e+07
1295.000000 5.57223000e+07
1305.000000 5.21640000e+07
1315.000000 6.96761000e+07
1325.000000 7.83018000e+07
1335.000000 8.24198000e+07
1345.000000 9.20423000e+07
1355.000000 8.85199000e+07
1365.000000 8.58548000e+07
1375.000000 8.80080000e+07
1385.000000 8.66533000e+07
1395.000000 8.60911000e+07
1405.000000 9.53434000e+07
1415.000000 9.91165000e+07
1425.000000 1.02255000e+08
1435.000000 9.62924000e+07
1442.000000 1.04467000e+08
1447.000000 1.06415000e+08
1455.000000 1.07613000e+08
1465.000000 1.03362000e+08
1475.000000 1.02334000e+08
1485.000000 1.03060000e+08
1495.000000 1.04912000e+08
1505.000000 1.06298000e+08
1512.000000 1.04024000e+08
1517.000000 1.06669000e+08
1525.000000 1.03457000e+08
1535.000000 1.02254000e+08
1545.000000 1.04670000e+08
1555.000000 9.84332000e+07
1565.000000 9.03960000e+07
1575.000000 9.49104000e+07
1585.000000 9.88046000e+07
1595.000000 1.01803000e+08
1605.000000 9.69835000e+07
1615.000000 9.75425000e+07
1625.000000 9.18788000e+07
1635.000000 9.42900000e+07
1645.000000 9.60498000e+07
1655.000000 8.65576000e+07
1665.000000 9.55568000e+07
1672.000000 8.59437000e+07
1677.000000 9.05518000e+07
1685.000000 9.50201000e+07
1695.000000 9.04130000e+07
1705.000000 8.92000000e+07
1715.000000 9.08616000e+07
1725.000000 8.90971000e+07
1735.000000 9.15584000e+07
1745.000000 8.95062000e+07
1755.000000 9.19396000e+07
1765.000000 8.60151000e+07
1775.000000 9.06124000e+07
1785.000000 8.89071000e+07
1795.000000 9.16818000e+07
1805.000000 8.91158000e+07
1815.000000 8.81880000e+07
1825.000000 8.59189000e+07
1835.000000 8.56630000e+07
1845.000000 8.27437000e+07
1855.000000 8.39473000e+07
1865.000000 8.39355000e+07
1875.000000 8.51396000e+07
1885.000000 8.50254000e+07
1895.000000 8.38818000e+07
1905.000000 8.20878000e+07
1915.000000 8.21121000e+07
1925.000000 8.26499000e+07
1935.000000 8.10413000e+07
1945.000000 8.32484000e+07
1955.000000 8.24807000e+07
1967.000000 8.24920000e+07
1976.000000 8.09424000e+07
1984.000000 8.04231000e+07
1995.000000 7.95358000e+07
2005.000000 7.82102000e+07
2015.000000 7.58641000e+07
2025.000000 7.60556000e+07
2035.000000 7.71985000e+07
2045.000000 7.70939000e+07
2055.000000 7.47415000e+07
2065.000000 7.44796000e+07
2074.000000 7.58928000e+07
2078.000000 7.63948000e+07
2085.000000 7.62077000e+07
2095.000000 7.47223000e+07
2105.000000 7.45352000e+07
2115.000000 7.39626000e+07
2125.000000 7.36886000e+07
2135.000000 6.98956000e+07
2145.000000 7.28997000e+07
2155.000000 7.22085000e+07
2165.000000 7.00529000e+07
2175.000000 6.96698000e+07
2185.000000 6.95741000e+07
2195.000000 7.17393000e+07
2205.000000 6.95714000e+07
2215.000000 6.66495000e+07
2225.000000 6.62815000e+07
2235.000000 6.96070000e+07
2245.000000 6.67682000e+07
2255.000000 6.52417000e+07
2265.000000 6.47498000e+07
2275.000000 6.71058000e+07
2285.000000 6.75190000e+07
2295.000000 6.53612000e+07
2305.000000 6.52824000e+07
2315.000000 6.45067000e+07
2325.000000 6.47718000e+07
2335.000000 6.37249000e+07
2345.000000 6.01648000e+07
2355.000000 6.31559000e+07
2365.000000 6.02803000e+07
2375.000000 6.19778000e+07
2385.000000 5.78265000e+07
2395.000000 6.08833000e+07
2405.000000 5.95978000e+07
2415.000000 6.00477000e+07
2425.000000 6.11012000e+07
2435.000000 5.93106000e+07
2445.000000 6.07680000e+07
2455.000000 6.00146000e+07
2465.000000 5.90066000e+07
2475.000000 5.78001000e+07
2485.000000 5.95473000e+07
2495.000000 5.82558000e+07
2505.000000 6.03485000e+07
2513.000000 5.85057000e+07
2518.000000 5.85285000e+07
2525.000000 5.62232000e+07
2535.000000 5.59394000e+07
2545.000000 5.59433000e+07
2555.000000 5.78250000e+07
2565.000000 5.73693000e+07
2575.000000 5.88506000e+07
2585.000000 5.89712000e+07
2595.000000 5.86183000e+07
2605.000000 5.73475000e+07
2615.000000 5.69703000e+07
2625.000000 5.72314000e+07
2635.000000 5.75955000e+07
2645.000000 6.01440000e+07
2655.000000 5.96384000e+07
2665.000000 5.79133000e+07
2675.000000 5.86130000e+07
2685.000000 5.89088000e+07
2695.000000 5.77359000e+07
2705.000000 5.77320000e+07
2715.000000 5.65511000e+07
2725.000000 5.65072000e+07
2735.000000 5.77567000e+07
2745.000000 5.42619000e+07
2755.000000 5.43352000e+07
2765.000000 5.55148000e+07
2775.000000 5.68913000e+07
2785.000000 5.65321000e+07
2795.000000 5.20630000e+07
2805.000000 5.43450000e+07
2815.000000 5.69832000e+07
2825.000000 5.65333000e+07
2835.000000 5.55540000e+07
2845.000000 5.48150000e+07
2855.000000 5.39973000e+07
2865.000000 5.46858000e+07
2875.000000 5.43015000e+07
2885.000000 5.49033000e+07
2895.000000 5.48528000e+07
2910.000000 5.57436000e+07
2930.000000 5.45112000e+07
2950.000000 5.42205000e+07
2970.000000 5.41504000e+07
2990.000000 5.39088000e+07
3010.000000 5.41096000e+07
3030.000000 5.38900000e+07
3050.000000 5.34488000e+07
3070.000000 5.29066000e+07
3090.000000 5.29065000e+07
3110.000000 5.24697000e+07
3130.000000 5.19820000e+07
3150.000000 5.18328000e+07
3170.000000 5.15970000e+07
3190.000000 5.06966000e+07
3210.000000 5.08638000e+07
3230.000000 5.03370000e+07
3250.000000 5.03257000e+07
3270.000000 5.02863000e+07
3290.000000 5.01083000e+07
3310.000000 4.99069000e+07
3330.000000 4.93976000e+07
3350.000000 4.88364000e+07
3370.000000 4.86830000e+07
3390.000000 4.83955000e+07
3410.000000 4.84288000e+07
3430.000000 4.81219000e+07
3450.000000 4.79232000e+07
3470.000000 4.75914000e+07
3490.000000 4.73475000e+07
3510.000000 4.71703000e+07
3530.000000 4.69548000e+07
3550.000000 4.66992000e+07
3570.000000 4.63637000e+07
3590.000000 4.61116000e+07
3610.000000 4.58565000e+07
3630.000000 4.55984000e+07
3640.000000 4.54563000e+07
3650.000000 4.57787000e+07
3670.000000 4.54490000e+07
3690.000000 4.36434000e+07
3710.000000 4.70553000e+07
3730.000000 5.08519000e+07
3750.000000 6.89539000e+07
3770.000000 7.46811000e+07
3790.000000 9.28494000e+07
3810.000000 1.08762000e+08
3830.000000 8.57836000e+07
3850.000000 1.19537000e+08
3870.000000 1.33988000e+08
3890.000000 7.30176000e+07
3910.000000 1.31921000e+08
3930.000000 1.37055000e+08
3950.000000 1.29948000e+08
3970.000000 6.96575000e+07
3990.000000 1.23447000e+08
4010.000000 1.33108000e+08
4030.000000 1.32073000e+08
4050.000000 1.30427000e+08
4070.000000 1.26110000e+08
4090.000000 9.94562000e+07
4110.000000 7.51982000e+07
4130.000000 1.19184000e+08
4150.000000 1.21739000e+08
4170.000000 1.20732000e+08
4190.000000 1.19376000e+08
4210.000000 1.17928000e+08
4230.000000 1.16178000e+08
4250.000000 1.14557000e+08
4270.000000 1.12846000e+08
4290.000000 1.10865000e+08
4310.000000 1.06640000e+08
4330.000000 8.07213000e+07
4350.000000 6.81527000e+07
4370.000000 1.01824000e+08
4390.000000 1.03399000e+08
4410.000000 1.02874000e+08
4430.000000 1.01880000e+08
4450.000000 1.00772000e+08
4470.000000 9.92896000e+07
4490.000000 9.75455000e+07
4510.000000 9.68675000e+07
4530.000000 9.56395000e+07
4550.000000 9.41783000e+07
4570.000000 9.33107000e+07
4590.000000 9.20433000e+07
4610.000000 9.11046000e+07
4630.000000 8.98148000e+07
4650.000000 8.88505000e+07
4670.000000 8.77404000e+07
4690.000000 8.66100000e+07
4710.000000 8.52596000e+07
4730.000000 8.45401000e+07
4750.000000 8.34958000e+07
4770.000000 8.22954000e+07
4790.000000 8.11219000e+07
4810.000000 7.96541000e+07
4830.000000 7.67366000e+07
4850.000000 6.05522000e+07
4870.000000 4.86905000e+07
4890.000000 7.26499000e+07
4910.000000 7.47893000e+07
4930.000000 7.43511000e+07
4950.000000 7.38207000e+07
4970.000000 7.31500000e+07
4990.000000 7.22985000e+07
5010.000000 7.13111000e+07
5030.000000 7.06171000e+07
5050.000000 6.97221000e+07
5070.000000 6.90031000e+07
5090.000000 6.82089000e+07
5110.000000 6.74250000e+07
5130.000000 6.66497000e+07
5150.000000 6.58831000e+07
5170.000000 6.48782000e+07
5190.000000 6.42729000e+07
5210.000000 6.36651000e+07
5230.000000 6.28858000e+07
5250.000000 6.22463000e+07
5270.000000 6.14750000e+07
5290.000000 6.08602000e+07
5310.000000 6.01327000e+07
5330.000000 5.94927000e+07
5350.000000 5.88657000e+07
5370.000000 5.82021000e+07
5390.000000 5.75687000e+07
5410.000000 5.69263000e+07
5430.000000 5.63096000e+07
5450.000000 5.57069000e+07
5470.000000 5.51013000e+07
5490.000000 5.45068000e+07
5510.000000 5.39170000e+07
5530.000000 5.33294000e+07
5550.000000 5.27709000e+07
5570.000000 5.22019000e+07
5590.000000 5.16458000e+07
5610.000000 5.10975000e+07
5630.000000 5.05580000e+07
5650.000000 5.00201000e+07
5670.000000 4.94933000e+07
5690.000000 4.89761000e+07
5710.000000 4.84626000e+07
5730.000000 4.79573000e+07
5750.000000 4.74568000e+07
5770.000000 4.69643000e+07
5790.000000 4.64775000e+07
5810.000000 4.59984000e+07
5830.000000 4.55238000e+07
5850.000000 4.50567000e+07
5870.000000 4.45523000e+07
5890.000000 4.41080000e+07
5910.000000 4.36903000e+07
5930.000000 4.32471000e+07
5950.000000 4.28058000e+07
5970.000000 4.23757000e+07
5990.000000 4.19452000e+07
6010.000000 4.15288000e+07
6030.000000 4.11139000e+07
6050.000000 4.07046000e+07
6070.000000 4.02998000e+07
6090.000000 3.99004000e+07
6110.000000 3.95054000e+07
6130.000000 3.91157000e+07
6150.000000 3.87083000e+07
6170.000000 3.83489000e+07
6190.000000 3.79757000e+07
6210.000000 3.76054000e+07
6230.000000 3.72392000e+07
6250.000000 3.68643000e+07
6270.000000 3.65212000e+07
6290.000000 3.61684000e+07
6310.000000 3.58174000e+07
6330.000000 3.54758000e+07
6350.000000 3.50957000e+07
6370.000000 3.47800000e+07
6390.000000 3.44676000e+07
6410.000000 3.41374000e+07
6430.000000 3.38151000e+07
6450.000000 3.34671000e+07
6470.000000 3.30968000e+07
6490.000000 3.27169000e+07
6510.000000 3.22495000e+07
6530.000000 3.13720000e+07
6550.000000 2.74189000e+07
6570.000000 2.20322000e+07
6590.000000 2.96999000e+07
6610.000000 3.06310000e+07
6630.000000 3.06033000e+07
6650.000000 3.04084000e+07
6670.000000 3.01899000e+07
6690.000000 2.99432000e+07
6710.000000 2.96737000e+07
6730.000000 2.94011000e+07
6750.000000 2.91354000e+07
6770.000000 2.88714000e+07
6790.000000 2.86101000e+07
6810.000000 2.83521000e+07
6830.000000 2.80967000e+07
6850.000000 2.78445000e+07
6870.000000 2.75948000e+07
6890.000000 2.73484000e+07
6910.000000 2.71043000e+07
6930.000000 2.68626000e+07
6950.000000 2.66247000e+07
6970.000000 2.63884000e+07
6990.000000 2.61559000e+07
7010.000000 2.59233000e+07
7030.000000 2.56967000e+07
7050.000000 2.54715000e+07
7070.000000 2.52477000e+07
7090.000000 2.50291000e+07
7110.000000 2.48020000e+07
7130.000000 2.45949000e+07
7150.000000 2.43808000e+07
7170.000000 2.41710000e+07
7190.000000 2.39624000e+07
7210.000000 2.37564000e+07
7230.000000 2.35517000e+07
7250.000000 2.33502000e+07
7270.000000 2.31514000e+07
7290.000000 2.29529000e+07
7310.000000 2.27570000e+07
7330.000000 2.25650000e+07
7350.000000 2.23740000e+07
7370.000000 2.21854000e+07
7390.000000 2.19979000e+07
7410.000000 2.18128000e+07
7430.000000 2.16279000e+07
7450.000000 2.14475000e+07
7470.000000 2.12653000e+07
7490.000000 2.10901000e+07
7510.000000 2.09158000e+07
7530.000000 2.07430000e+07
7550.000000 2.05718000e+07
7570.000000 2.04021000e+07
7590.000000 2.02339000e+07
7610.000000 2.00672000e+07
7630.000000 1.99026000e+07
7650.000000 1.97395000e+07
7670.000000 1.95784000e+07
7690.000000 1.94187000e+07
7710.000000 1.92598000e+07
7730.000000 1.91048000e+07
7750.000000 1.89498000e+07
7770.000000 1.86858000e+07
7790.000000 1.86452000e+07
7810.000000 1.84955000e+07
7830.000000 1.83465000e+07
7850.000000 1.81987000e+07
7870.000000 1.80473000e+07
7890.000000 1.78978000e+07
7910.000000 1.77671000e+07
7930.000000 1.76261000e+07
7950.000000 1.74832000e+07
7970.000000 1.73482000e+07
7990.000000 1.71995000e+07
8010.000000 1.70755000e+07
8030.000000 1.69415000e+07
8050.000000 1.68086000e+07
8070.000000 1.66768000e+07
8090.000000 1.65466000e+07
8110.000000 1.64176000e+07
8130.000000 1.62896000e+07
8150.000000 1.61633000e+07
8170.000000 1.60379000e+07
8190.000000 1.59092000e+07
8210.000000 1.58625000e+07
8230.000000 1.57477000e+07
8250.000000 1.56376000e+07
8270.000000 1.55367000e+07
8290.000000 1.54268000e+07
8310.000000 1.53172000e+07
8330.000000 1.51943000e+07
8350.000000 1.50794000e+07
8370.000000 1.49381000e+07
8390.000000 1.47894000e+07
8410.000000 1.46216000e+07
8430.000000 1.45211000e+07
8450.000000 1.44097000e+07
8470.000000 1.39431000e+07
8490.000000 1.44022000e+07
8510.000000 1.34919000e+07
8530.000000 1.44358000e+07
8550.000000 1.27553000e+07
8570.000000 1.46075000e+07
8590.000000 1.33618000e+07
8610.000000 1.29643000e+07
8630.000000 1.48108000e+07
8650.000000 1.41100000e+07
8670.000000 1.14850000e+07
8690.000000 1.45431000e+07
8710.000000 1.50987000e+07
8730.000000 1.44161000e+07
8750.000000 1.10363000e+07
8770.000000 1.35928000e+07
8790.000000 1.49221000e+07
8810.000000 1.50277000e+07
8830.000000 1.46500000e+07
8850.000000 1.28628000e+07
8870.000000 1.06875000e+07
8890.000000 1.38127000e+07
8910.000000 1.44654000e+07
8930.000000 1.45094000e+07
8950.000000 1.44216000e+07
8970.000000 1.41822000e+07
8990.000000 1.34694000e+07
9010.000000 1.05157000e+07
9030.000000 1.15794000e+07
9050.000000 1.34381000e+07
9070.000000 1.37050000e+07
9090.000000 1.36725000e+07
9110.000000 1.36516000e+07
9130.000000 1.35666000e+07
9150.000000 1.34484000e+07
9170.000000 1.32849000e+07
9190.000000 1.29778000e+07
9210.000000 1.19875000e+07
9230.000000 9.19969000e+06
9250.000000 1.15067000e+07
9270.000000 1.24869000e+07
9290.000000 1.27008000e+07
9310.000000 1.26819000e+07
9330.000000 1.26177000e+07
9350.000000 1.25383000e+07
9370.000000 1.24600000e+07
9390.000000 1.23779000e+07
9410.000000 1.22411000e+07
9430.000000 1.21748000e+07
9450.000000 1.20744000e+07
9470.000000 1.19579000e+07
9490.000000 1.17997000e+07
9510.000000 1.14839000e+07
9530.000000 1.04245000e+07
9550.000000 8.29360000e+06
9570.000000 1.05210000e+07
9590.000000 1.12161000e+07
9610.000000 1.13171000e+07
9630.000000 1.12836000e+07
9650.000000 1.12429000e+07
9670.000000 1.11719000e+07
9690.000000 1.11158000e+07
9710.000000 1.10397000e+07
9730.000000 1.09617000e+07
9750.000000 1.08847000e+07
9770.000000 1.08082000e+07
9790.000000 1.07322000e+07
9810.000000 1.06568000e+07
9830.000000 1.05815000e+07
9850.000000 1.05071000e+07
9870.000000 1.04341000e+07
9890.000000 1.03553000e+07
9910.000000 1.02882000e+07
9930.000000 1.01995000e+07
9950.000000 1.01144000e+07
9970.000000 1.00215000e+07
9990.000000 9.89801000e+06
10025.000000 8.96461000e+06
10075.000000 8.51398000e+06
10125.000000 9.47082000e+06
10175.000000 9.37943000e+06
10225.000000 9.23531000e+06
10275.000000 9.08070000e+06
10325.000000 8.92901000e+06
10375.000000 8.78085000e+06
10425.000000 8.63582000e+06
10475.000000 8.49177000e+06
10525.000000 8.35313000e+06
10575.000000 8.21706000e+06
10625.000000 8.08350000e+06
10675.000000 7.93027000e+06
10725.000000 7.81818000e+06
10775.000000 7.69711000e+06
10825.000000 7.54902000e+06
10875.000000 7.35202000e+06
10925.000000 6.21424000e+06
10975.000000 6.76639000e+06
11025.000000 7.05570000e+06
11075.000000 6.98538000e+06
11125.000000 6.88590000e+06
11175.000000 6.77916000e+06
11225.000000 6.67436000e+06
11275.000000 6.56462000e+06
11325.000000 6.46419000e+06
11375.000000 6.37051000e+06
11425.000000 6.27331000e+06
11475.000000 6.17871000e+06
11525.000000 6.08522000e+06
11575.000000 5.99339000e+06
11625.000000 5.90181000e+06
11675.000000 5.81074000e+06
11725.000000 5.72840000e+06
11775.000000 5.63366000e+06
11825.000000 5.55702000e+06
11875.000000 5.47533000e+06
11925.000000 5.39746000e+06
11975.000000 5.31649000e+06
12025.000000 5.24058000e+06
12075.000000 5.16420000e+06
12125.000000 5.08966000e+06
12175.000000 5.01668000e+06
12225.000000 4.94447000e+06
12275.000000 4.87327000e+06
12325.000000 4.80405000e+06
12375.000000 4.73579000e+06
12425.000000 4.66896000e+06
12475.000000 4.60256000e+06
12525.000000 4.53827000e+06
12575.000000 4.47366000e+06
12625.000000 4.41135000e+06
12675.000000 4.34472000e+06
12725.000000 4.26598000e+06
12775.000000 4.09599000e+06
12825.000000 3.53068000e+06
12875.000000 4.01989000e+06
12925.000000 4.04049000e+06
12975.000000 4.00090000e+06
13025.000000 3.94982000e+06
13075.000000 3.89653000e+06
13125.000000 3.84393000e+06
13175.000000 3.79159000e+06
13225.000000 3.74143000e+06
13275.000000 3.69150000e+06
13325.000000 3.64242000e+06
13375.000000 3.59417000e+06
13425.000000 3.54655000e+06
13475.000000 3.49995000e+06
13525.000000 3.45373000e+06
13575.000000 3.40871000e+06
13625.000000 3.36425000e+06
13675.000000 3.32036000e+06
13725.000000 3.27681000e+06
13775.000000 3.23520000e+06
13825.000000 3.19351000e+06
13875.000000 3.15253000e+06
13925.000000 3.11225000e+06
13975.000000 3.07266000e+06
14025.000000 3.03355000e+06
14075.000000 2.99511000e+06
14125.000000 2.95733000e+06
14175.000000 2.92019000e+06
14225.000000 2.88350000e+06
14275.000000 2.84744000e+06
14325.000000 2.81181000e+06
14375.000000 2.77697000e+06
14425.000000 2.74055000e+06
