# Kurucz ODFNEW /NOVER, alpha: 0.0 (2003)
# teff = 28000 K (value for the effective temperature for the model. Temperatures are given in K)
# logg = 4 log(cm/s2) (value for Log(G) for the model.)
# lh = 1.25  (l/Hp where l is the  mixing length of the convective element and Hp is the pressure scale height)
# meta = -2  (value for the Metallicity for the model.)
# vtur = 2 km/s (Microturbulence velocity)
# alpha = 0  (Alpha)
#
# column 1: WAVELENGTH (ANGSTROM), Wavelength in Angstrom
# column 2: FLUX (ERG/CM2/S/A), Flux in erg/cm2/s/A
147.200000 1.12171000e-10
151.000000 4.30874000e-10
155.200000 1.76282000e-09
158.800000 5.57129000e-09
162.000000 1.48372000e-08
166.000000 4.77898000e-08
170.300000 1.58384000e-07
173.400000 3.61750000e-07
176.800000 8.64887000e-07
180.200000 2.00140000e-06
181.700000 2.87075000e-06
186.100000 7.99326000e-06
191.000000 2.36183000e-05
193.900000 4.36998000e-05
198.400000 1.09556000e-04
201.800000 2.13272000e-04
205.000000 3.91126000e-04
210.500000 1.06353000e-03
216.200000 2.83765000e-03
219.800000 5.13316000e-03
223.000000 8.55366000e-03
226.800000 1.53890000e-02
230.000000 1.14571000e+00
234.000000 2.86524000e+00
240.000000 5.85598000e+00
246.500000 1.23852000e+01
252.400000 2.37596000e+01
256.800000 3.29061000e+01
260.000000 5.11349000e+01
264.000000 7.39664000e+01
268.500000 1.13151000e+02
273.500000 1.77128000e+02
278.500000 2.71984000e+02
284.000000 4.31457000e+02
290.000000 6.91507000e+02
296.000000 1.08268000e+03
301.000000 1.51064000e+03
308.000000 2.26310000e+03
318.000000 4.89967000e+03
328.000000 8.97632000e+03
338.000000 1.60738000e+04
348.000000 2.75118000e+04
357.000000 4.36117000e+04
366.000000 6.77998000e+04
375.000000 1.00595000e+05
385.000000 1.55696000e+05
395.000000 2.32670000e+05
405.000000 3.40061000e+05
414.000000 4.72747000e+05
422.000000 6.18878000e+05
430.000000 8.02847000e+05
441.000000 1.13667000e+06
451.000000 1.53456000e+06
460.000000 1.96839000e+06
470.000000 2.59004000e+06
480.000000 3.34217000e+06
490.000000 4.26657000e+06
500.000000 5.39597000e+06
506.000000 3.62051000e+07
512.000000 1.16903000e+08
520.000000 1.24950000e+08
530.000000 1.42645000e+08
540.000000 1.40563000e+08
550.000000 1.70942000e+08
560.000000 1.85229000e+08
570.000000 2.04169000e+08
580.000000 1.98141000e+08
590.000000 2.32629000e+08
600.000000 2.51279000e+08
610.000000 2.73136000e+08
620.000000 2.91691000e+08
630.000000 3.14615000e+08
640.000000 3.27192000e+08
650.000000 3.55347000e+08
658.000000 3.74899000e+08
665.000000 3.91420000e+08
675.000000 4.06847000e+08
685.000000 4.23999000e+08
695.000000 4.69187000e+08
705.000000 4.83432000e+08
716.000000 5.22175000e+08
726.000000 5.45900000e+08
735.000000 5.75054000e+08
745.000000 6.08055000e+08
755.000000 6.36916000e+08
765.000000 6.66329000e+08
775.000000 7.00427000e+08
785.000000 7.36310000e+08
795.000000 7.63145000e+08
805.000000 7.95985000e+08
815.000000 8.23022000e+08
825.000000 8.61531000e+08
835.000000 8.61119000e+08
845.000000 9.19367000e+08
855.000000 9.49625000e+08
865.000000 9.86654000e+08
875.000000 1.02564000e+09
885.000000 1.06127000e+09
895.000000 1.09427000e+09
905.000000 1.11824000e+09
915.000000 1.57774000e+09
925.000000 1.12263000e+10
935.000000 2.32293000e+10
945.000000 4.32362000e+10
955.000000 4.91759000e+10
965.000000 5.92669000e+10
975.000000 3.13459000e+10
985.000000 5.78048000e+10
995.000000 5.42819000e+10
1005.000000 5.63141000e+10
1015.000000 5.35936000e+10
1025.000000 3.06045000e+10
1035.000000 5.02411000e+10
1045.000000 5.43278000e+10
1055.000000 5.29474000e+10
1065.000000 4.91146000e+10
1075.000000 4.97079000e+10
1085.000000 4.61301000e+10
1095.000000 4.84271000e+10
1105.000000 4.66444000e+10
1115.000000 4.56993000e+10
1125.000000 4.29140000e+10
1135.000000 4.40328000e+10
1145.000000 4.22211000e+10
1155.000000 4.21003000e+10
1165.000000 4.13529000e+10
1175.000000 3.58113000e+10
1185.000000 3.90512000e+10
1195.000000 3.77541000e+10
1205.000000 3.50441000e+10
1215.000000 2.02790000e+10
1225.000000 3.46221000e+10
1235.000000 3.54518000e+10
1245.000000 3.44398000e+10
1255.000000 3.41850000e+10
1265.000000 3.35007000e+10
1275.000000 3.29517000e+10
1285.000000 3.22857000e+10
1295.000000 3.03491000e+10
1305.000000 3.03082000e+10
1315.000000 3.03109000e+10
1325.000000 2.93530000e+10
1335.000000 2.84245000e+10
1345.000000 2.83553000e+10
1355.000000 2.79260000e+10
1365.000000 2.72211000e+10
1375.000000 2.67011000e+10
1385.000000 2.61951000e+10
1395.000000 2.46962000e+10
1405.000000 2.44489000e+10
1415.000000 2.45185000e+10
1425.000000 2.39270000e+10
1435.000000 2.36478000e+10
1442.000000 2.34223000e+10
1447.000000 2.31564000e+10
1455.000000 2.27565000e+10
1465.000000 2.22942000e+10
1475.000000 2.18613000e+10
1485.000000 2.14757000e+10
1495.000000 2.10224000e+10
1505.000000 2.04862000e+10
1512.000000 2.02146000e+10
1517.000000 2.00488000e+10
1525.000000 1.97013000e+10
1535.000000 1.88698000e+10
1545.000000 1.84275000e+10
1555.000000 1.79996000e+10
1565.000000 1.80226000e+10
1575.000000 1.78719000e+10
1585.000000 1.76141000e+10
1595.000000 1.73081000e+10
1605.000000 1.66938000e+10
1615.000000 1.63635000e+10
1625.000000 1.61913000e+10
1635.000000 1.59276000e+10
1645.000000 1.52639000e+10
1655.000000 1.55078000e+10
1665.000000 1.52541000e+10
1672.000000 1.49946000e+10
1677.000000 1.50848000e+10
1685.000000 1.48212000e+10
1695.000000 1.45209000e+10
1705.000000 1.42111000e+10
1715.000000 1.38538000e+10
1725.000000 1.36430000e+10
1735.000000 1.35400000e+10
1745.000000 1.32838000e+10
1755.000000 1.30778000e+10
1765.000000 1.27619000e+10
1775.000000 1.25886000e+10
1785.000000 1.24409000e+10
1795.000000 1.22465000e+10
1805.000000 1.20846000e+10
1815.000000 1.18237000e+10
1825.000000 1.16425000e+10
1835.000000 1.14645000e+10
1845.000000 1.10971000e+10
1855.000000 1.08245000e+10
1865.000000 1.07431000e+10
1875.000000 1.06825000e+10
1885.000000 1.03065000e+10
1895.000000 1.00234000e+10
1905.000000 1.00870000e+10
1915.000000 9.77628000e+09
1925.000000 9.58175000e+09
1935.000000 9.56618000e+09
1945.000000 9.50939000e+09
1955.000000 9.13144000e+09
1967.000000 9.16613000e+09
1976.000000 9.13096000e+09
1984.000000 8.89918000e+09
1995.000000 8.63207000e+09
2005.000000 8.67494000e+09
2015.000000 8.59582000e+09
2025.000000 8.49671000e+09
2035.000000 8.30388000e+09
2045.000000 8.17611000e+09
2055.000000 7.65105000e+09
2065.000000 7.48728000e+09
2074.000000 7.55372000e+09
2078.000000 7.43245000e+09
2085.000000 7.50820000e+09
2095.000000 7.48236000e+09
2105.000000 7.48906000e+09
2115.000000 7.41908000e+09
2125.000000 7.33082000e+09
2135.000000 7.21668000e+09
2145.000000 7.09494000e+09
2155.000000 7.01659000e+09
2165.000000 6.90233000e+09
2175.000000 6.81870000e+09
2185.000000 6.70577000e+09
2195.000000 6.63503000e+09
2205.000000 6.53996000e+09
2215.000000 6.42791000e+09
2225.000000 6.35299000e+09
2235.000000 6.25991000e+09
2245.000000 6.17841000e+09
2255.000000 6.06935000e+09
2265.000000 6.00662000e+09
2275.000000 5.92373000e+09
2285.000000 5.84147000e+09
2295.000000 5.68217000e+09
2305.000000 5.66283000e+09
2315.000000 5.60016000e+09
2325.000000 5.52415000e+09
2335.000000 5.44598000e+09
2345.000000 5.37743000e+09
2355.000000 5.30503000e+09
2365.000000 5.23372000e+09
2375.000000 5.16209000e+09
2385.000000 5.07790000e+09
2395.000000 5.02409000e+09
2405.000000 4.95895000e+09
2415.000000 4.89226000e+09
2425.000000 4.82938000e+09
2435.000000 4.76342000e+09
2445.000000 4.70248000e+09
2455.000000 4.64218000e+09
2465.000000 4.58184000e+09
2475.000000 4.52171000e+09
2485.000000 4.46324000e+09
2495.000000 4.29573000e+09
2505.000000 4.34771000e+09
2513.000000 4.26280000e+09
2518.000000 4.27269000e+09
2525.000000 4.23881000e+09
2535.000000 4.18527000e+09
2545.000000 4.12272000e+09
2555.000000 4.07701000e+09
2565.000000 4.02850000e+09
2575.000000 3.97841000e+09
2585.000000 3.92886000e+09
2595.000000 3.88023000e+09
2605.000000 3.85283000e+09
2615.000000 3.80480000e+09
2625.000000 3.75706000e+09
2635.000000 3.70624000e+09
2645.000000 3.65953000e+09
2655.000000 3.61090000e+09
2665.000000 3.56131000e+09
2675.000000 3.51531000e+09
2685.000000 3.49126000e+09
2695.000000 3.42536000e+09
2705.000000 3.40626000e+09
2715.000000 3.36593000e+09
2725.000000 3.30287000e+09
2735.000000 3.27856000e+09
2745.000000 3.24656000e+09
2755.000000 3.20869000e+09
2765.000000 3.14679000e+09
2775.000000 3.13404000e+09
2785.000000 3.09690000e+09
2795.000000 3.04975000e+09
2805.000000 3.02240000e+09
2815.000000 2.99012000e+09
2825.000000 2.92806000e+09
2835.000000 2.90524000e+09
2845.000000 2.88769000e+09
2855.000000 2.85414000e+09
2865.000000 2.82158000e+09
2875.000000 2.78950000e+09
2885.000000 2.75798000e+09
2895.000000 2.72650000e+09
2910.000000 2.68005000e+09
2930.000000 2.62029000e+09
2950.000000 2.54527000e+09
2970.000000 2.50542000e+09
2990.000000 2.45015000e+09
3010.000000 2.39599000e+09
3030.000000 2.34481000e+09
3050.000000 2.29427000e+09
3070.000000 2.24517000e+09
3090.000000 2.19509000e+09
3110.000000 2.15044000e+09
3130.000000 2.10658000e+09
3150.000000 2.06230000e+09
3170.000000 2.01874000e+09
3190.000000 1.96148000e+09
3210.000000 1.93390000e+09
3230.000000 1.89551000e+09
3250.000000 1.85656000e+09
3270.000000 1.82074000e+09
3290.000000 1.78151000e+09
3310.000000 1.74825000e+09
3330.000000 1.71322000e+09
3350.000000 1.67624000e+09
3370.000000 1.64599000e+09
3390.000000 1.61367000e+09
3410.000000 1.58217000e+09
3430.000000 1.54420000e+09
3450.000000 1.50898000e+09
3470.000000 1.48422000e+09
3490.000000 1.45556000e+09
3510.000000 1.43190000e+09
3530.000000 1.40734000e+09
3550.000000 1.38098000e+09
3570.000000 1.36203000e+09
3590.000000 1.32834000e+09
3610.000000 1.30666000e+09
3630.000000 1.27949000e+09
3640.000000 1.27626000e+09
3650.000000 1.25089000e+09
3670.000000 1.23293000e+09
3690.000000 1.20591000e+09
3710.000000 1.16543000e+09
3730.000000 1.12080000e+09
3750.000000 1.16184000e+09
3770.000000 1.15514000e+09
3790.000000 1.19848000e+09
3810.000000 1.23936000e+09
3830.000000 1.09686000e+09
3850.000000 1.25418000e+09
3870.000000 1.25232000e+09
3890.000000 1.03961000e+09
3910.000000 1.22454000e+09
3930.000000 1.20308000e+09
3950.000000 1.18274000e+09
3970.000000 9.63473000e+08
3990.000000 1.13633000e+09
4010.000000 1.12229000e+09
4030.000000 1.06715000e+09
4050.000000 1.09373000e+09
4070.000000 1.06981000e+09
4090.000000 1.00328000e+09
4110.000000 8.89073000e+08
4130.000000 1.00549000e+09
4150.000000 9.93201000e+08
4170.000000 9.82787000e+08
4190.000000 9.67890000e+08
4210.000000 9.51383000e+08
4230.000000 9.35670000e+08
4250.000000 9.19564000e+08
4270.000000 9.02891000e+08
4290.000000 8.88761000e+08
4310.000000 8.70513000e+08
4330.000000 8.05244000e+08
4350.000000 7.39244000e+08
4370.000000 8.26927000e+08
4390.000000 7.99549000e+08
4410.000000 8.04091000e+08
4430.000000 7.88899000e+08
4450.000000 7.78856000e+08
4470.000000 7.39359000e+08
4490.000000 7.53717000e+08
4510.000000 7.42083000e+08
4530.000000 7.30239000e+08
4550.000000 7.18065000e+08
4570.000000 7.07068000e+08
4590.000000 6.95930000e+08
4610.000000 6.85137000e+08
4630.000000 6.74450000e+08
4650.000000 6.62406000e+08
4670.000000 6.53532000e+08
4690.000000 6.41735000e+08
4710.000000 6.26515000e+08
4730.000000 6.24024000e+08
4750.000000 6.14388000e+08
4770.000000 6.05339000e+08
4790.000000 5.96174000e+08
4810.000000 5.87041000e+08
4830.000000 5.75811000e+08
4850.000000 5.40530000e+08
4870.000000 4.87573000e+08
4890.000000 5.49274000e+08
4910.000000 5.43855000e+08
4930.000000 5.25703000e+08
4950.000000 5.28659000e+08
4970.000000 5.21088000e+08
4990.000000 5.13485000e+08
5010.000000 5.00478000e+08
5030.000000 4.98695000e+08
5050.000000 4.88976000e+08
5070.000000 4.84452000e+08
5090.000000 4.77512000e+08
5110.000000 4.70708000e+08
5130.000000 4.63981000e+08
5150.000000 4.57402000e+08
5170.000000 4.50966000e+08
5190.000000 4.44644000e+08
5210.000000 4.38406000e+08
5230.000000 4.32291000e+08
5250.000000 4.26270000e+08
5270.000000 4.20355000e+08
5290.000000 4.14544000e+08
5310.000000 4.08835000e+08
5330.000000 4.03239000e+08
5350.000000 3.97716000e+08
5370.000000 3.92303000e+08
5390.000000 3.86972000e+08
5410.000000 3.81568000e+08
5430.000000 3.76590000e+08
5450.000000 3.71523000e+08
5470.000000 3.66545000e+08
5490.000000 3.61654000e+08
5510.000000 3.56849000e+08
5530.000000 3.52105000e+08
5550.000000 3.47456000e+08
5570.000000 3.42876000e+08
5590.000000 3.38378000e+08
5610.000000 3.33946000e+08
5630.000000 3.29593000e+08
5650.000000 3.25305000e+08
5670.000000 3.21057000e+08
5690.000000 3.16838000e+08
5710.000000 3.12866000e+08
5730.000000 3.08850000e+08
5750.000000 3.04859000e+08
5770.000000 3.01018000e+08
5790.000000 2.97189000e+08
5810.000000 2.93428000e+08
5830.000000 2.89711000e+08
5850.000000 2.86082000e+08
5870.000000 2.74941000e+08
5890.000000 2.78680000e+08
5910.000000 2.75471000e+08
5930.000000 2.72041000e+08
5950.000000 2.68661000e+08
5970.000000 2.65363000e+08
5990.000000 2.62093000e+08
6010.000000 2.58881000e+08
6030.000000 2.55705000e+08
6050.000000 2.52587000e+08
6070.000000 2.49524000e+08
6090.000000 2.46497000e+08
6110.000000 2.43513000e+08
6130.000000 2.40583000e+08
6150.000000 2.37686000e+08
6170.000000 2.34842000e+08
6190.000000 2.32039000e+08
6210.000000 2.29276000e+08
6230.000000 2.26555000e+08
6250.000000 2.23873000e+08
6270.000000 2.21230000e+08
6290.000000 2.18625000e+08
6310.000000 2.16059000e+08
6330.000000 2.13539000e+08
6350.000000 2.11047000e+08
6370.000000 2.08591000e+08
6390.000000 2.06171000e+08
6410.000000 2.03786000e+08
6430.000000 2.01436000e+08
6450.000000 1.99120000e+08
6470.000000 1.96829000e+08
6490.000000 1.94580000e+08
6510.000000 1.92373000e+08
6530.000000 1.89642000e+08
6550.000000 1.82883000e+08
6570.000000 1.64159000e+08
6590.000000 1.82543000e+08
6610.000000 1.81630000e+08
6630.000000 1.79713000e+08
6650.000000 1.77799000e+08
6670.000000 1.74253000e+08
6690.000000 1.72346000e+08
6710.000000 1.71948000e+08
6730.000000 1.70037000e+08
6750.000000 1.68171000e+08
6770.000000 1.66324000e+08
6790.000000 1.64488000e+08
6810.000000 1.62711000e+08
6830.000000 1.60935000e+08
6850.000000 1.59186000e+08
6870.000000 1.57462000e+08
6890.000000 1.55756000e+08
6910.000000 1.54083000e+08
6930.000000 1.52426000e+08
6950.000000 1.50793000e+08
6970.000000 1.49185000e+08
6990.000000 1.47584000e+08
7010.000000 1.46023000e+08
7030.000000 1.44476000e+08
7050.000000 1.42945000e+08
7070.000000 1.39274000e+08
7090.000000 1.39950000e+08
7110.000000 1.38479000e+08
7130.000000 1.37036000e+08
7150.000000 1.35600000e+08
7170.000000 1.34163000e+08
7190.000000 1.32798000e+08
7210.000000 1.31425000e+08
7230.000000 1.29971000e+08
7250.000000 1.28724000e+08
7270.000000 1.27404000e+08
7290.000000 1.25097000e+08
7310.000000 1.24787000e+08
7330.000000 1.23532000e+08
7350.000000 1.22281000e+08
7370.000000 1.21036000e+08
7390.000000 1.19809000e+08
7410.000000 1.18601000e+08
7430.000000 1.17410000e+08
7450.000000 1.16245000e+08
7470.000000 1.15076000e+08
7490.000000 1.13932000e+08
7510.000000 1.12751000e+08
7530.000000 1.11675000e+08
7550.000000 1.10562000e+08
7570.000000 1.09472000e+08
7590.000000 1.08393000e+08
7610.000000 1.07323000e+08
7630.000000 1.06269000e+08
7650.000000 1.05225000e+08
7670.000000 1.04196000e+08
7690.000000 1.03184000e+08
7710.000000 1.02180000e+08
7730.000000 1.01192000e+08
7750.000000 1.00206000e+08
7770.000000 9.92416000e+07
7790.000000 9.82857000e+07
7810.000000 9.72889000e+07
7830.000000 9.64115000e+07
7850.000000 9.55785000e+07
7870.000000 9.46615000e+07
7890.000000 9.37162000e+07
7910.000000 9.28756000e+07
7930.000000 9.19944000e+07
7950.000000 9.11089000e+07
7970.000000 9.00769000e+07
7990.000000 8.92193000e+07
8010.000000 8.83575000e+07
8030.000000 8.75440000e+07
8050.000000 8.67723000e+07
8070.000000 8.60072000e+07
8090.000000 8.50472000e+07
8110.000000 8.43590000e+07
8130.000000 8.36766000e+07
8150.000000 8.27787000e+07
8170.000000 8.21538000e+07
8190.000000 8.12869000e+07
8210.000000 8.02988000e+07
8230.000000 7.97811000e+07
8250.000000 7.90848000e+07
8270.000000 7.79867000e+07
8290.000000 7.75834000e+07
8310.000000 7.69049000e+07
8330.000000 7.61778000e+07
8350.000000 7.51379000e+07
8370.000000 7.46932000e+07
8390.000000 7.41181000e+07
8410.000000 7.34410000e+07
8430.000000 7.27113000e+07
8450.000000 7.16077000e+07
8470.000000 7.13120000e+07
8490.000000 7.06419000e+07
8510.000000 6.98421000e+07
8530.000000 6.94683000e+07
8550.000000 6.79224000e+07
8570.000000 6.89958000e+07
8590.000000 6.62804000e+07
8610.000000 6.60643000e+07
8630.000000 6.77261000e+07
8650.000000 6.58373000e+07
8670.000000 6.19806000e+07
8690.000000 6.60209000e+07
8710.000000 6.61947000e+07
8730.000000 6.42358000e+07
8750.000000 5.85250000e+07
8770.000000 6.24022000e+07
8790.000000 6.41810000e+07
8810.000000 6.37832000e+07
8830.000000 6.30210000e+07
8850.000000 5.93503000e+07
8870.000000 5.51709000e+07
8890.000000 6.08385000e+07
8910.000000 6.11304000e+07
8930.000000 6.06821000e+07
8950.000000 6.03266000e+07
8970.000000 5.97114000e+07
8990.000000 5.81175000e+07
9010.000000 5.20961000e+07
9030.000000 5.45961000e+07
9050.000000 5.73724000e+07
9070.000000 5.67808000e+07
9090.000000 5.67455000e+07
9110.000000 5.65012000e+07
9130.000000 5.60686000e+07
9150.000000 5.56033000e+07
9170.000000 5.49040000e+07
9190.000000 5.43531000e+07
9210.000000 5.21009000e+07
9230.000000 4.63699000e+07
9250.000000 5.13915000e+07
9270.000000 5.25246000e+07
9290.000000 5.23555000e+07
9310.000000 5.17831000e+07
9330.000000 5.16046000e+07
9350.000000 5.11427000e+07
9370.000000 5.07702000e+07
9390.000000 5.03576000e+07
9410.000000 4.99480000e+07
9430.000000 4.95457000e+07
9450.000000 4.91464000e+07
9470.000000 4.84476000e+07
9490.000000 4.82394000e+07
9510.000000 4.72369000e+07
9530.000000 4.53257000e+07
9550.000000 4.06584000e+07
9570.000000 4.55523000e+07
9590.000000 4.61736000e+07
9610.000000 4.58796000e+07
9630.000000 4.54780000e+07
9650.000000 4.53544000e+07
9670.000000 4.49978000e+07
9690.000000 4.45996000e+07
9710.000000 4.41643000e+07
9730.000000 4.39431000e+07
9750.000000 4.35966000e+07
9770.000000 4.32565000e+07
9790.000000 4.29187000e+07
9810.000000 4.25834000e+07
9830.000000 4.22544000e+07
9850.000000 4.19238000e+07
9870.000000 4.15993000e+07
9890.000000 4.12772000e+07
9910.000000 4.09458000e+07
9930.000000 4.06435000e+07
9950.000000 4.03319000e+07
9970.000000 4.00224000e+07
9990.000000 3.96434000e+07
10025.000000 3.76727000e+07
10075.000000 3.64598000e+07
10125.000000 3.75937000e+07
10175.000000 3.70141000e+07
10225.000000 3.63071000e+07
10275.000000 3.56488000e+07
10325.000000 3.48566000e+07
10375.000000 3.43464000e+07
10425.000000 3.37176000e+07
10475.000000 3.31029000e+07
10525.000000 3.25021000e+07
10575.000000 3.19152000e+07
10625.000000 3.13412000e+07
10675.000000 3.07217000e+07
10725.000000 3.02315000e+07
10775.000000 2.96949000e+07
10825.000000 2.88651000e+07
10875.000000 2.85859000e+07
10925.000000 2.60671000e+07
10975.000000 2.71388000e+07
11025.000000 2.70069000e+07
11075.000000 2.66963000e+07
11125.000000 2.62542000e+07
11175.000000 2.58044000e+07
11225.000000 2.53505000e+07
11275.000000 2.49329000e+07
11325.000000 2.45112000e+07
11375.000000 2.40982000e+07
11425.000000 2.36938000e+07
11475.000000 2.32980000e+07
11525.000000 2.29105000e+07
11575.000000 2.25308000e+07
11625.000000 2.21587000e+07
11675.000000 2.17947000e+07
11725.000000 2.14382000e+07
11775.000000 2.10889000e+07
11825.000000 2.07466000e+07
11875.000000 2.04111000e+07
11925.000000 2.00824000e+07
11975.000000 1.95764000e+07
12025.000000 1.94447000e+07
12075.000000 1.91352000e+07
12125.000000 1.88322000e+07
12175.000000 1.85347000e+07
12225.000000 1.82435000e+07
12275.000000 1.79577000e+07
12325.000000 1.76776000e+07
12375.000000 1.74029000e+07
12425.000000 1.71336000e+07
12475.000000 1.68692000e+07
12525.000000 1.65763000e+07
12575.000000 1.63558000e+07
12625.000000 1.61065000e+07
12675.000000 1.58619000e+07
12725.000000 1.56189000e+07
12775.000000 1.51328000e+07
12825.000000 1.40423000e+07
12875.000000 1.48432000e+07
12925.000000 1.47060000e+07
12975.000000 1.43906000e+07
13025.000000 1.42735000e+07
13075.000000 1.40631000e+07
