# Kurucz ODFNEW /NOVER, alpha: 0.0 (2003)
# teff = 18000 K (value for the effective temperature for the model. Temperatures are given in K)
# logg = 5 log(cm/s2) (value for Log(G) for the model.)
# lh = 1.25  (l/Hp where l is the  mixing length of the convective element and Hp is the pressure scale height)
# meta = -1  (value for the Metallicity for the model.)
# vtur = 2 km/s (Microturbulence velocity)
# alpha = 0  (Alpha)
#
# column 1: WAVELENGTH (ANGSTROM), Wavelength in Angstrom
# column 2: FLUX (ERG/CM2/S/A), Flux in erg/cm2/s/A
147.200000 1.27781000e-22
151.000000 1.04178000e-21
155.200000 8.35569000e-21
158.800000 4.51539000e-20
162.000000 1.90518000e-19
166.000000 1.06947000e-18
170.300000 6.26404000e-18
173.400000 2.12437000e-17
176.800000 7.73086000e-17
180.200000 2.68381000e-16
181.700000 4.57988000e-16
186.100000 2.09439000e-15
191.000000 1.04930000e-14
193.900000 2.61265000e-14
198.400000 1.02311000e-13
201.800000 2.76743000e-13
205.000000 6.86979000e-13
210.500000 3.05480000e-12
216.200000 1.32630000e-11
219.800000 3.22573000e-11
223.000000 6.92051000e-11
226.800000 1.66941000e-10
230.000000 3.61147000e-10
234.000000 9.18225000e-10
240.000000 3.22588000e-09
246.500000 1.16896000e-08
252.400000 3.55418000e-08
256.800000 7.83950000e-08
260.000000 1.38136000e-07
264.000000 2.73450000e-07
268.500000 5.74248000e-07
273.500000 1.27173000e-06
278.500000 2.74136000e-06
284.000000 6.17622000e-06
290.000000 1.44465000e-05
296.000000 3.25708000e-05
301.000000 6.26212000e-05
308.000000 1.50324000e-04
318.000000 4.92650000e-04
328.000000 1.49478000e-03
338.000000 4.23608000e-03
348.000000 1.12828000e-02
357.000000 2.59299000e-02
366.000000 5.71411000e-02
375.000000 1.20872000e-01
385.000000 2.66208000e-01
395.000000 5.61696000e-01
405.000000 1.13994000e+00
414.000000 2.08960000e+00
422.000000 3.49770000e+00
430.000000 5.73407000e+00
441.000000 1.09762000e+01
451.000000 1.92198000e+01
460.000000 3.11104000e+01
470.000000 5.18996000e+01
480.000000 8.45826000e+01
490.000000 1.34924000e+02
500.000000 2.10803000e+02
506.000000 1.72903000e+03
512.000000 4.12321000e+03
520.000000 5.41883000e+03
530.000000 7.88047000e+03
540.000000 1.00526000e+04
550.000000 1.46208000e+04
560.000000 1.93783000e+04
570.000000 2.57554000e+04
580.000000 3.02705000e+04
590.000000 4.20712000e+04
600.000000 5.46331000e+04
610.000000 6.95304000e+04
620.000000 8.65782000e+04
630.000000 1.08055000e+05
640.000000 1.31506000e+05
650.000000 1.62426000e+05
658.000000 1.90695000e+05
665.000000 2.16910000e+05
675.000000 2.59223000e+05
685.000000 3.09685000e+05
695.000000 3.72350000e+05
705.000000 4.39652000e+05
716.000000 5.23513000e+05
726.000000 6.12208000e+05
735.000000 7.01331000e+05
745.000000 8.14989000e+05
755.000000 9.41716000e+05
765.000000 1.07858000e+06
775.000000 1.23740000e+06
785.000000 1.41002000e+06
795.000000 1.59686000e+06
805.000000 1.80591000e+06
815.000000 2.02962000e+06
825.000000 2.28288000e+06
835.000000 2.52538000e+06
845.000000 2.83909000e+06
855.000000 3.14535000e+06
865.000000 3.50313000e+06
875.000000 3.86986000e+06
885.000000 4.28276000e+06
895.000000 4.70827000e+06
905.000000 5.09420000e+06
915.000000 7.95509000e+06
925.000000 2.22033000e+07
935.000000 4.11969000e+07
945.000000 1.76505000e+08
955.000000 8.71204000e+08
965.000000 1.34012000e+09
975.000000 2.99798000e+08
985.000000 3.87433000e+09
995.000000 5.28968000e+09
1005.000000 5.52548000e+09
1015.000000 2.72327000e+09
1025.000000 1.37991000e+08
1035.000000 1.87428000e+09
1045.000000 5.81640000e+09
1055.000000 6.65913000e+09
1065.000000 6.07397000e+09
1075.000000 6.84364000e+09
1085.000000 6.40286000e+09
1095.000000 6.74988000e+09
1105.000000 6.25370000e+09
1115.000000 6.18355000e+09
1125.000000 5.88182000e+09
1135.000000 6.17986000e+09
1145.000000 5.69365000e+09
1155.000000 5.84710000e+09
1165.000000 5.95089000e+09
1175.000000 5.21425000e+09
1185.000000 5.44453000e+09
1195.000000 3.68756000e+09
1205.000000 1.75879000e+09
1215.000000 1.75898000e+08
1225.000000 1.27354000e+09
1235.000000 3.87418000e+09
1245.000000 4.79727000e+09
1255.000000 4.90434000e+09
1265.000000 4.64348000e+09
1275.000000 4.96489000e+09
1285.000000 5.03028000e+09
1295.000000 4.43645000e+09
1305.000000 4.08556000e+09
1315.000000 4.78399000e+09
1325.000000 4.61206000e+09
1335.000000 4.35383000e+09
1345.000000 4.56151000e+09
1355.000000 4.43287000e+09
1365.000000 4.28122000e+09
1375.000000 4.24527000e+09
1385.000000 4.24802000e+09
1395.000000 4.09151000e+09
1405.000000 4.12660000e+09
1415.000000 4.02540000e+09
1425.000000 4.00769000e+09
1435.000000 3.94617000e+09
1442.000000 3.97173000e+09
1447.000000 3.93587000e+09
1455.000000 3.85356000e+09
1465.000000 3.75479000e+09
1475.000000 3.69764000e+09
1485.000000 3.59727000e+09
1495.000000 3.57156000e+09
1505.000000 3.47968000e+09
1512.000000 3.37684000e+09
1517.000000 3.42959000e+09
1525.000000 3.35677000e+09
1535.000000 3.22812000e+09
1545.000000 3.28889000e+09
1555.000000 3.14499000e+09
1565.000000 3.05724000e+09
1575.000000 3.10799000e+09
1585.000000 3.09019000e+09
1595.000000 3.09984000e+09
1605.000000 2.97798000e+09
1615.000000 2.94424000e+09
1625.000000 2.85961000e+09
1635.000000 2.85025000e+09
1645.000000 2.81500000e+09
1655.000000 2.67793000e+09
1665.000000 2.79235000e+09
1672.000000 2.66418000e+09
1677.000000 2.70538000e+09
1685.000000 2.71372000e+09
1695.000000 2.64548000e+09
1705.000000 2.56153000e+09
1715.000000 2.50024000e+09
1725.000000 2.45905000e+09
1735.000000 2.49186000e+09
1745.000000 2.42020000e+09
1755.000000 2.44248000e+09
1765.000000 2.27726000e+09
1775.000000 2.36336000e+09
1785.000000 2.32477000e+09
1795.000000 2.33145000e+09
1805.000000 2.29343000e+09
1815.000000 2.24170000e+09
1825.000000 2.23688000e+09
1835.000000 2.18616000e+09
1845.000000 2.11051000e+09
1855.000000 2.05574000e+09
1865.000000 2.04079000e+09
1875.000000 2.07663000e+09
1885.000000 1.99517000e+09
1895.000000 1.94427000e+09
1905.000000 1.98506000e+09
1915.000000 1.91990000e+09
1925.000000 1.89482000e+09
1935.000000 1.88615000e+09
1945.000000 1.90106000e+09
1955.000000 1.82873000e+09
1967.000000 1.85546000e+09
1976.000000 1.85664000e+09
1984.000000 1.80495000e+09
1995.000000 1.75036000e+09
2005.000000 1.76171000e+09
2015.000000 1.73379000e+09
2025.000000 1.74353000e+09
2035.000000 1.70615000e+09
2045.000000 1.68870000e+09
2055.000000 1.62939000e+09
2065.000000 1.63344000e+09
2074.000000 1.63769000e+09
2078.000000 1.61577000e+09
2085.000000 1.61837000e+09
2095.000000 1.57850000e+09
2105.000000 1.57884000e+09
2115.000000 1.56318000e+09
2125.000000 1.56002000e+09
2135.000000 1.53032000e+09
2145.000000 1.51436000e+09
2155.000000 1.50253000e+09
2165.000000 1.46690000e+09
2175.000000 1.45145000e+09
2185.000000 1.43717000e+09
2195.000000 1.43794000e+09
2205.000000 1.40440000e+09
2215.000000 1.37800000e+09
2225.000000 1.34951000e+09
2235.000000 1.36672000e+09
2245.000000 1.34172000e+09
2255.000000 1.31569000e+09
2265.000000 1.31218000e+09
2275.000000 1.29994000e+09
2285.000000 1.29501000e+09
2295.000000 1.26594000e+09
2305.000000 1.25179000e+09
2315.000000 1.23509000e+09
2325.000000 1.22679000e+09
2335.000000 1.19675000e+09
2345.000000 1.15711000e+09
2355.000000 1.17121000e+09
2365.000000 1.13755000e+09
2375.000000 1.14275000e+09
2385.000000 1.10829000e+09
2395.000000 1.12151000e+09
2405.000000 1.09983000e+09
2415.000000 1.09145000e+09
2425.000000 1.09374000e+09
2435.000000 1.06572000e+09
2445.000000 1.06445000e+09
2455.000000 1.06124000e+09
2465.000000 1.03677000e+09
2475.000000 1.02823000e+09
2485.000000 1.03089000e+09
2495.000000 1.00606000e+09
2505.000000 1.01449000e+09
2513.000000 9.94503000e+08
2518.000000 9.99649000e+08
2525.000000 9.74023000e+08
2535.000000 9.56798000e+08
2545.000000 9.52086000e+08
2555.000000 9.62018000e+08
2565.000000 9.47088000e+08
2575.000000 9.48382000e+08
2585.000000 9.42976000e+08
2595.000000 9.32533000e+08
2605.000000 9.19003000e+08
2615.000000 9.10996000e+08
2625.000000 9.01444000e+08
2635.000000 8.94344000e+08
2645.000000 9.05311000e+08
2655.000000 8.95725000e+08
2665.000000 8.78618000e+08
2675.000000 8.77011000e+08
2685.000000 8.69549000e+08
2695.000000 8.56521000e+08
2705.000000 8.51075000e+08
2715.000000 8.37764000e+08
2725.000000 8.26350000e+08
2735.000000 8.26866000e+08
2745.000000 7.99804000e+08
2755.000000 7.95100000e+08
2765.000000 7.95765000e+08
2775.000000 7.98797000e+08
2785.000000 7.88991000e+08
2795.000000 7.61076000e+08
2805.000000 7.70598000e+08
2815.000000 7.72406000e+08
2825.000000 7.60717000e+08
2835.000000 7.48375000e+08
2845.000000 7.43356000e+08
2855.000000 7.40192000e+08
2865.000000 7.37696000e+08
2875.000000 7.28562000e+08
2885.000000 7.23520000e+08
2895.000000 7.18171000e+08
2910.000000 7.09941000e+08
2930.000000 6.93392000e+08
2950.000000 6.79866000e+08
2970.000000 6.72107000e+08
2990.000000 6.59438000e+08
3010.000000 6.50288000e+08
3030.000000 6.39557000e+08
3050.000000 6.28281000e+08
3070.000000 6.17443000e+08
3090.000000 6.07385000e+08
3110.000000 5.96677000e+08
3130.000000 5.87115000e+08
3150.000000 5.77215000e+08
3170.000000 5.67780000e+08
3190.000000 5.55019000e+08
3210.000000 5.48892000e+08
3230.000000 5.40130000e+08
3250.000000 5.31469000e+08
3270.000000 5.23226000e+08
3290.000000 5.14692000e+08
3310.000000 5.06771000e+08
3330.000000 4.98698000e+08
3350.000000 4.90411000e+08
3370.000000 4.82949000e+08
3390.000000 4.75399000e+08
3410.000000 4.68057000e+08
3430.000000 4.60405000e+08
3450.000000 4.52930000e+08
3470.000000 4.46785000e+08
3490.000000 4.39978000e+08
3510.000000 4.33235000e+08
3530.000000 4.26587000e+08
3550.000000 4.20030000e+08
3570.000000 4.14243000e+08
3590.000000 4.07214000e+08
3610.000000 4.01616000e+08
3630.000000 3.95202000e+08
3640.000000 3.93090000e+08
3650.000000 3.90091000e+08
3670.000000 3.85627000e+08
3690.000000 3.79687000e+08
3710.000000 3.68625000e+08
3730.000000 3.50223000e+08
3750.000000 3.60964000e+08
3770.000000 3.61067000e+08
3790.000000 3.97682000e+08
3810.000000 4.32862000e+08
3830.000000 3.66023000e+08
3850.000000 4.59522000e+08
3870.000000 4.92415000e+08
3890.000000 3.32487000e+08
3910.000000 4.87542000e+08
3930.000000 5.03569000e+08
3950.000000 4.76317000e+08
3970.000000 3.13915000e+08
3990.000000 4.51788000e+08
4010.000000 4.77024000e+08
4030.000000 4.49128000e+08
4050.000000 4.70633000e+08
4070.000000 4.54762000e+08
4090.000000 3.75714000e+08
4110.000000 3.11516000e+08
4130.000000 4.22164000e+08
4150.000000 4.30485000e+08
4170.000000 4.29464000e+08
4190.000000 4.24580000e+08
4210.000000 4.18239000e+08
4230.000000 4.11598000e+08
4250.000000 4.04876000e+08
4270.000000 3.96629000e+08
4290.000000 3.89480000e+08
4310.000000 3.74476000e+08
4330.000000 3.02888000e+08
4350.000000 2.70047000e+08
4370.000000 3.53907000e+08
4390.000000 3.49615000e+08
4410.000000 3.56717000e+08
4430.000000 3.51027000e+08
4450.000000 3.47004000e+08
4470.000000 3.24674000e+08
4490.000000 3.34813000e+08
4510.000000 3.32702000e+08
4530.000000 3.27659000e+08
4550.000000 3.22802000e+08
4570.000000 3.18179000e+08
4590.000000 3.13499000e+08
4610.000000 3.08959000e+08
4630.000000 3.04327000e+08
4650.000000 2.99972000e+08
4670.000000 2.95698000e+08
4690.000000 2.91469000e+08
4710.000000 2.83768000e+08
4730.000000 2.82839000e+08
4750.000000 2.78559000e+08
4770.000000 2.74506000e+08
4790.000000 2.69985000e+08
4810.000000 2.64406000e+08
4830.000000 2.54615000e+08
4850.000000 2.13601000e+08
4870.000000 1.85340000e+08
4890.000000 2.40323000e+08
4910.000000 2.45417000e+08
4930.000000 2.38578000e+08
4950.000000 2.41851000e+08
4970.000000 2.39176000e+08
4990.000000 2.36037000e+08
5010.000000 2.29909000e+08
5030.000000 2.29559000e+08
5050.000000 2.24656000e+08
5070.000000 2.23591000e+08
5090.000000 2.20601000e+08
5110.000000 2.17594000e+08
5130.000000 2.14784000e+08
5150.000000 2.11869000e+08
5170.000000 2.09120000e+08
5190.000000 2.06392000e+08
5210.000000 2.03450000e+08
5230.000000 2.01016000e+08
5250.000000 1.98421000e+08
5270.000000 1.95806000e+08
5290.000000 1.93359000e+08
5310.000000 1.90836000e+08
5330.000000 1.88412000e+08
5350.000000 1.85926000e+08
5370.000000 1.83656000e+08
5390.000000 1.81310000e+08
5410.000000 1.78993000e+08
5430.000000 1.76668000e+08
5450.000000 1.74499000e+08
5470.000000 1.72293000e+08
5490.000000 1.70190000e+08
5510.000000 1.68051000e+08
5530.000000 1.65988000e+08
5550.000000 1.63937000e+08
5570.000000 1.61912000e+08
5590.000000 1.59924000e+08
5610.000000 1.57948000e+08
5630.000000 1.56055000e+08
5650.000000 1.54032000e+08
5670.000000 1.52197000e+08
5690.000000 1.50419000e+08
5710.000000 1.48628000e+08
5730.000000 1.46846000e+08
5750.000000 1.45086000e+08
5770.000000 1.43357000e+08
5790.000000 1.41638000e+08
5810.000000 1.39951000e+08
5830.000000 1.38305000e+08
5850.000000 1.36667000e+08
5870.000000 1.31550000e+08
5890.000000 1.33221000e+08
5910.000000 1.31922000e+08
5930.000000 1.30401000e+08
5950.000000 1.28813000e+08
5970.000000 1.27381000e+08
5990.000000 1.25860000e+08
6010.000000 1.24471000e+08
6030.000000 1.23035000e+08
6050.000000 1.21636000e+08
6070.000000 1.20243000e+08
6090.000000 1.18865000e+08
6110.000000 1.17533000e+08
6130.000000 1.16196000e+08
6150.000000 1.14844000e+08
6170.000000 1.13596000e+08
6190.000000 1.12322000e+08
6210.000000 1.11073000e+08
6230.000000 1.09827000e+08
6250.000000 1.08566000e+08
6270.000000 1.07405000e+08
6290.000000 1.06218000e+08
6310.000000 1.05044000e+08
6330.000000 1.03893000e+08
6350.000000 1.02464000e+08
6370.000000 1.01468000e+08
6390.000000 1.00521000e+08
6410.000000 9.94175000e+07
6430.000000 9.83627000e+07
6450.000000 9.72646000e+07
6470.000000 9.60522000e+07
6490.000000 9.48351000e+07
6510.000000 9.34088000e+07
6530.000000 9.10440000e+07
6550.000000 8.24138000e+07
6570.000000 7.14631000e+07
6590.000000 8.63280000e+07
6610.000000 8.82068000e+07
6630.000000 8.79069000e+07
6650.000000 8.72000000e+07
6670.000000 8.57210000e+07
6690.000000 8.49567000e+07
6710.000000 8.47355000e+07
6730.000000 8.38583000e+07
6750.000000 8.29900000e+07
6770.000000 8.21363000e+07
6790.000000 8.12830000e+07
6810.000000 8.04504000e+07
6830.000000 7.96222000e+07
6850.000000 7.88119000e+07
6870.000000 7.80097000e+07
6890.000000 7.72170000e+07
6910.000000 7.64330000e+07
6930.000000 7.56481000e+07
6950.000000 7.48966000e+07
6970.000000 7.41464000e+07
6990.000000 7.34004000e+07
7010.000000 7.26632000e+07
7030.000000 7.19378000e+07
7050.000000 7.12036000e+07
7070.000000 6.98441000e+07
7090.000000 6.98186000e+07
7110.000000 6.91246000e+07
7130.000000 6.84461000e+07
7150.000000 6.77697000e+07
7170.000000 6.71092000e+07
7190.000000 6.64537000e+07
7210.000000 6.58050000e+07
7230.000000 6.51056000e+07
7250.000000 6.45283000e+07
7270.000000 6.39072000e+07
7290.000000 6.30544000e+07
7310.000000 6.26795000e+07
7330.000000 6.20771000e+07
7350.000000 6.14824000e+07
7370.000000 6.08940000e+07
7390.000000 6.03130000e+07
7410.000000 5.97395000e+07
7430.000000 5.91652000e+07
7450.000000 5.86117000e+07
7470.000000 5.80525000e+07
7490.000000 5.75079000e+07
7510.000000 5.69662000e+07
7530.000000 5.64368000e+07
7550.000000 5.59088000e+07
7570.000000 5.53876000e+07
7590.000000 5.48712000e+07
7610.000000 5.43626000e+07
7630.000000 5.38586000e+07
7650.000000 5.33604000e+07
7670.000000 5.28686000e+07
7690.000000 5.23818000e+07
7710.000000 5.19013000e+07
7730.000000 5.14263000e+07
7750.000000 5.09561000e+07
7770.000000 5.03621000e+07
7790.000000 5.00331000e+07
7810.000000 4.95764000e+07
7830.000000 4.91312000e+07
7850.000000 4.86757000e+07
7870.000000 4.82310000e+07
7890.000000 4.77731000e+07
7910.000000 4.73946000e+07
7930.000000 4.69713000e+07
7950.000000 4.65356000e+07
7970.000000 4.61368000e+07
7990.000000 4.56967000e+07
8010.000000 4.53225000e+07
8030.000000 4.49212000e+07
8050.000000 4.45250000e+07
8070.000000 4.41328000e+07
8090.000000 4.37445000e+07
8110.000000 4.33612000e+07
8130.000000 4.29817000e+07
8150.000000 4.26070000e+07
8170.000000 4.22367000e+07
8190.000000 4.18656000e+07
8210.000000 4.14696000e+07
8230.000000 4.11298000e+07
8250.000000 4.08105000e+07
8270.000000 4.04404000e+07
8290.000000 4.01331000e+07
8310.000000 3.98109000e+07
8330.000000 3.94766000e+07
8350.000000 3.91153000e+07
8370.000000 3.88168000e+07
8390.000000 3.85099000e+07
8410.000000 3.81789000e+07
8430.000000 3.78453000e+07
8450.000000 3.74395000e+07
8470.000000 3.71662000e+07
8490.000000 3.68340000e+07
8510.000000 3.64353000e+07
8530.000000 3.62072000e+07
8550.000000 3.55124000e+07
8570.000000 3.57638000e+07
8590.000000 3.47423000e+07
8610.000000 3.44266000e+07
8630.000000 3.51342000e+07
8650.000000 3.41240000e+07
8670.000000 3.22673000e+07
8690.000000 3.41244000e+07
8710.000000 3.45375000e+07
8730.000000 3.33606000e+07
8750.000000 3.00025000e+07
8770.000000 3.20676000e+07
8790.000000 3.37283000e+07
8810.000000 3.38797000e+07
8830.000000 3.30794000e+07
8850.000000 3.02687000e+07
8870.000000 2.78819000e+07
8890.000000 3.13869000e+07
8910.000000 3.25963000e+07
8930.000000 3.27551000e+07
8950.000000 3.25426000e+07
8970.000000 3.19046000e+07
8990.000000 3.02917000e+07
9010.000000 2.63293000e+07
9030.000000 2.74071000e+07
9050.000000 3.01232000e+07
9070.000000 3.07246000e+07
9090.000000 3.08736000e+07
9110.000000 3.07817000e+07
9130.000000 3.05548000e+07
9150.000000 3.02513000e+07
9170.000000 2.97830000e+07
9190.000000 2.89831000e+07
9210.000000 2.69627000e+07
9230.000000 2.33211000e+07
9250.000000 2.61184000e+07
9270.000000 2.78875000e+07
9290.000000 2.83891000e+07
9310.000000 2.83607000e+07
9330.000000 2.82748000e+07
9350.000000 2.80932000e+07
9370.000000 2.78983000e+07
9390.000000 2.76830000e+07
9410.000000 2.74182000e+07
9430.000000 2.72258000e+07
9450.000000 2.69694000e+07
9470.000000 2.66002000e+07
9490.000000 2.62330000e+07
9510.000000 2.53684000e+07
9530.000000 2.33958000e+07
9550.000000 2.05981000e+07
9570.000000 2.34651000e+07
9590.000000 2.47921000e+07
9610.000000 2.50839000e+07
9630.000000 2.50257000e+07
9650.000000 2.49860000e+07
9670.000000 2.48332000e+07
9690.000000 2.46662000e+07
9710.000000 2.44955000e+07
9730.000000 2.43480000e+07
9750.000000 2.41622000e+07
9770.000000 2.39817000e+07
9790.000000 2.38009000e+07
9810.000000 2.36217000e+07
9830.000000 2.34422000e+07
9850.000000 2.32683000e+07
9870.000000 2.30925000e+07
9890.000000 2.29110000e+07
9910.000000 2.26947000e+07
9930.000000 2.25083000e+07
9950.000000 2.23030000e+07
9970.000000 2.20635000e+07
9990.000000 2.17382000e+07
10025.000000 1.99223000e+07
10075.000000 1.91461000e+07
10125.000000 2.07383000e+07
10175.000000 2.05663000e+07
10225.000000 2.02550000e+07
10275.000000 1.98967000e+07
10325.000000 1.95051000e+07
10375.000000 1.91940000e+07
10425.000000 1.88547000e+07
10475.000000 1.85227000e+07
10525.000000 1.81975000e+07
10575.000000 1.78800000e+07
10625.000000 1.75696000e+07
10675.000000 1.72480000e+07
10725.000000 1.69661000e+07
10775.000000 1.66578000e+07
10825.000000 1.62017000e+07
10875.000000 1.58234000e+07
10925.000000 1.38719000e+07
10975.000000 1.46015000e+07
11025.000000 1.51348000e+07
11075.000000 1.50031000e+07
11125.000000 1.48040000e+07
11175.000000 1.45596000e+07
11225.000000 1.43174000e+07
11275.000000 1.40763000e+07
11325.000000 1.38492000e+07
11375.000000 1.36276000e+07
11425.000000 1.34061000e+07
11475.000000 1.31897000e+07
11525.000000 1.29771000e+07
11575.000000 1.27690000e+07
11625.000000 1.25641000e+07
11675.000000 1.23641000e+07
11725.000000 1.21690000e+07
11775.000000 1.19730000e+07
11825.000000 1.17889000e+07
11875.000000 1.16039000e+07
11925.000000 1.14236000e+07
11975.000000 1.12059000e+07
12025.000000 1.10720000e+07
12075.000000 1.09015000e+07
12125.000000 1.07341000e+07
12175.000000 1.05701000e+07
12225.000000 1.04092000e+07
12275.000000 1.02511000e+07
12325.000000 1.00962000e+07
12375.000000 9.94440000e+06
12425.000000 9.79522000e+06
12475.000000 9.64762000e+06
12525.000000 9.49967000e+06
12575.000000 9.36328000e+06
12625.000000 9.22498000e+06
12675.000000 9.06394000e+06
12725.000000 8.88745000e+06
12775.000000 8.50293000e+06
12825.000000 7.64290000e+06
12875.000000 8.34045000e+06
12925.000000 8.39331000e+06
12975.000000 8.29048000e+06
13025.000000 8.20630000e+06
13075.000000 8.08900000e+06
