# Kurucz ODFNEW /NOVER, alpha: 0.0 (2003)
# teff = 20000 K (value for the effective temperature for the model. Temperatures are given in K)
# logg = 4.5 log(cm/s2) (value for Log(G) for the model.)
# lh = 1.25  (l/Hp where l is the  mixing length of the convective element and Hp is the pressure scale height)
# meta = -1  (value for the Metallicity for the model.)
# vtur = 2 km/s (Microturbulence velocity)
# alpha = 0  (Alpha)
#
# column 1: WAVELENGTH (ANGSTROM), Wavelength in Angstrom
# column 2: FLUX (ERG/CM2/S/A), Flux in erg/cm2/s/A
147.200000 6.93968000e-20
151.000000 4.34046000e-19
155.200000 2.97151000e-18
158.800000 1.42623000e-17
162.000000 5.43275000e-17
166.000000 2.69381000e-16
170.300000 1.38743000e-15
173.400000 4.30486000e-15
176.800000 1.42529000e-14
180.200000 4.51560000e-14
181.700000 7.40989000e-14
186.100000 3.03085000e-13
191.000000 1.34970000e-12
193.900000 3.15093000e-12
198.400000 1.11978000e-11
201.800000 2.81627000e-11
205.000000 6.53129000e-11
210.500000 2.61065000e-10
216.200000 1.01979000e-09
219.800000 2.32602000e-09
223.000000 4.73160000e-09
226.800000 1.07186000e-08
230.000000 3.87241000e-08
234.000000 9.59368000e-08
240.000000 3.03359000e-07
246.500000 9.82337000e-07
252.400000 2.71327000e-06
256.800000 5.53752000e-06
260.000000 9.34579000e-06
264.000000 1.74046000e-05
268.500000 3.41962000e-05
273.500000 7.04936000e-05
278.500000 1.41726000e-04
284.000000 2.96569000e-04
290.000000 6.41784000e-04
296.000000 1.34286000e-03
301.000000 2.43050000e-03
308.000000 5.34492000e-03
318.000000 1.57850000e-02
328.000000 4.31272000e-02
338.000000 1.10809000e-01
348.000000 2.68832000e-01
357.000000 5.70700000e-01
366.000000 1.16622000e+00
375.000000 2.29370000e+00
385.000000 4.67808000e+00
395.000000 9.17358000e+00
405.000000 1.73669000e+01
414.000000 2.99896000e+01
422.000000 4.76824000e+01
430.000000 7.43434000e+01
441.000000 1.33476000e+02
451.000000 2.20980000e+02
460.000000 3.40659000e+02
470.000000 5.39649000e+02
480.000000 8.36702000e+02
490.000000 1.27239000e+03
500.000000 1.89872000e+03
506.000000 1.45928000e+04
512.000000 4.28876000e+04
520.000000 5.55732000e+04
530.000000 8.00587000e+04
540.000000 9.43865000e+04
550.000000 1.38188000e+05
560.000000 1.74634000e+05
570.000000 2.24229000e+05
580.000000 2.41100000e+05
590.000000 3.30745000e+05
600.000000 4.23768000e+05
610.000000 5.24141000e+05
620.000000 6.28856000e+05
630.000000 7.61166000e+05
640.000000 8.88533000e+05
650.000000 1.05538000e+06
658.000000 1.23182000e+06
665.000000 1.36831000e+06
675.000000 1.57488000e+06
685.000000 1.83232000e+06
695.000000 2.16487000e+06
705.000000 2.48060000e+06
716.000000 2.87903000e+06
726.000000 3.26850000e+06
735.000000 3.67716000e+06
745.000000 4.19345000e+06
755.000000 4.74235000e+06
765.000000 5.31448000e+06
775.000000 5.98000000e+06
785.000000 6.68206000e+06
795.000000 7.39779000e+06
805.000000 8.19936000e+06
815.000000 9.01973000e+06
825.000000 9.99077000e+06
835.000000 1.08168000e+07
845.000000 1.19341000e+07
855.000000 1.29929000e+07
865.000000 1.42485000e+07
875.000000 1.55371000e+07
885.000000 1.69508000e+07
895.000000 1.83392000e+07
905.000000 1.94477000e+07
915.000000 3.01141000e+07
925.000000 1.08423000e+08
935.000000 3.11075000e+08
945.000000 1.57070000e+09
955.000000 4.11008000e+09
965.000000 5.87572000e+09
975.000000 1.43004000e+09
985.000000 9.65834000e+09
995.000000 1.01901000e+10
1005.000000 1.08801000e+10
1015.000000 7.98419000e+09
1025.000000 9.41299000e+08
1035.000000 5.80660000e+09
1045.000000 1.14500000e+10
1055.000000 1.14624000e+10
1065.000000 1.01235000e+10
1075.000000 1.12469000e+10
1085.000000 1.03077000e+10
1095.000000 1.10641000e+10
1105.000000 1.02168000e+10
1115.000000 1.01347000e+10
1125.000000 9.42609000e+09
1135.000000 1.00930000e+10
1145.000000 9.28673000e+09
1155.000000 9.62647000e+09
1165.000000 9.71479000e+09
1175.000000 8.13667000e+09
1185.000000 9.30941000e+09
1195.000000 7.59250000e+09
1205.000000 4.80036000e+09
1215.000000 8.22043000e+08
1225.000000 4.50004000e+09
1235.000000 7.68612000e+09
1245.000000 8.23323000e+09
1255.000000 8.06403000e+09
1265.000000 7.77625000e+09
1275.000000 8.03203000e+09
1285.000000 7.96500000e+09
1295.000000 6.82079000e+09
1305.000000 6.58946000e+09
1315.000000 7.55125000e+09
1325.000000 7.22119000e+09
1335.000000 6.82044000e+09
1345.000000 7.06571000e+09
1355.000000 6.97350000e+09
1365.000000 6.67416000e+09
1375.000000 6.58501000e+09
1385.000000 6.57235000e+09
1395.000000 6.16272000e+09
1405.000000 6.25145000e+09
1415.000000 6.17375000e+09
1425.000000 6.11691000e+09
1435.000000 6.06141000e+09
1442.000000 6.08803000e+09
1447.000000 6.00573000e+09
1455.000000 5.88684000e+09
1465.000000 5.70318000e+09
1475.000000 5.62473000e+09
1485.000000 5.47253000e+09
1495.000000 5.41406000e+09
1505.000000 5.20862000e+09
1512.000000 4.98072000e+09
1517.000000 5.05959000e+09
1525.000000 5.01653000e+09
1535.000000 4.74496000e+09
1545.000000 4.81805000e+09
1555.000000 4.60422000e+09
1565.000000 4.60663000e+09
1575.000000 4.67148000e+09
1585.000000 4.60822000e+09
1595.000000 4.60497000e+09
1605.000000 4.45300000e+09
1615.000000 4.39210000e+09
1625.000000 4.31567000e+09
1635.000000 4.32054000e+09
1645.000000 4.25285000e+09
1655.000000 4.09887000e+09
1665.000000 4.21068000e+09
1672.000000 4.04398000e+09
1677.000000 4.11769000e+09
1685.000000 4.09261000e+09
1695.000000 3.97877000e+09
1705.000000 3.84929000e+09
1715.000000 3.73524000e+09
1725.000000 3.67573000e+09
1735.000000 3.70969000e+09
1745.000000 3.61496000e+09
1755.000000 3.64385000e+09
1765.000000 3.41765000e+09
1775.000000 3.47610000e+09
1785.000000 3.44105000e+09
1795.000000 3.45450000e+09
1805.000000 3.41413000e+09
1815.000000 3.29438000e+09
1825.000000 3.30170000e+09
1835.000000 3.22845000e+09
1845.000000 3.06893000e+09
1855.000000 2.99498000e+09
1865.000000 2.99837000e+09
1875.000000 3.05670000e+09
1885.000000 2.87995000e+09
1895.000000 2.77074000e+09
1905.000000 2.86817000e+09
1915.000000 2.75960000e+09
1925.000000 2.70437000e+09
1935.000000 2.73022000e+09
1945.000000 2.75390000e+09
1955.000000 2.60870000e+09
1967.000000 2.67843000e+09
1976.000000 2.71140000e+09
1984.000000 2.59903000e+09
1995.000000 2.52426000e+09
2005.000000 2.55022000e+09
2015.000000 2.53221000e+09
2025.000000 2.54943000e+09
2035.000000 2.45830000e+09
2045.000000 2.43593000e+09
2055.000000 2.35769000e+09
2065.000000 2.37025000e+09
2074.000000 2.39851000e+09
2078.000000 2.32934000e+09
2085.000000 2.33721000e+09
2095.000000 2.26577000e+09
2105.000000 2.28111000e+09
2115.000000 2.25967000e+09
2125.000000 2.26657000e+09
2135.000000 2.22266000e+09
2145.000000 2.17480000e+09
2155.000000 2.17762000e+09
2165.000000 2.13898000e+09
2175.000000 2.11251000e+09
2185.000000 2.08864000e+09
2195.000000 2.08162000e+09
2205.000000 2.04263000e+09
2215.000000 2.01064000e+09
2225.000000 1.97191000e+09
2235.000000 1.97240000e+09
2245.000000 1.94994000e+09
2255.000000 1.91261000e+09
2265.000000 1.90765000e+09
2275.000000 1.88247000e+09
2285.000000 1.87289000e+09
2295.000000 1.82677000e+09
2305.000000 1.81691000e+09
2315.000000 1.78747000e+09
2325.000000 1.77276000e+09
2335.000000 1.72983000e+09
2345.000000 1.68914000e+09
2355.000000 1.70084000e+09
2365.000000 1.65975000e+09
2375.000000 1.65596000e+09
2385.000000 1.61991000e+09
2395.000000 1.62218000e+09
2405.000000 1.59575000e+09
2415.000000 1.57701000e+09
2425.000000 1.57889000e+09
2435.000000 1.54511000e+09
2445.000000 1.53559000e+09
2455.000000 1.53016000e+09
2465.000000 1.49893000e+09
2475.000000 1.48721000e+09
2485.000000 1.47807000e+09
2495.000000 1.44131000e+09
2505.000000 1.44868000e+09
2513.000000 1.41388000e+09
2518.000000 1.42752000e+09
2525.000000 1.40206000e+09
2535.000000 1.37707000e+09
2545.000000 1.36691000e+09
2555.000000 1.37412000e+09
2565.000000 1.35158000e+09
2575.000000 1.34888000e+09
2585.000000 1.33672000e+09
2595.000000 1.32179000e+09
2605.000000 1.31078000e+09
2615.000000 1.29862000e+09
2625.000000 1.28492000e+09
2635.000000 1.27079000e+09
2645.000000 1.27579000e+09
2655.000000 1.26112000e+09
2665.000000 1.23852000e+09
2675.000000 1.23202000e+09
2685.000000 1.22542000e+09
2695.000000 1.20218000e+09
2705.000000 1.19892000e+09
2715.000000 1.18254000e+09
2725.000000 1.16165000e+09
2735.000000 1.16259000e+09
2745.000000 1.12898000e+09
2755.000000 1.12299000e+09
2765.000000 1.11542000e+09
2775.000000 1.11948000e+09
2785.000000 1.10529000e+09
2795.000000 1.06952000e+09
2805.000000 1.07780000e+09
2815.000000 1.07753000e+09
2825.000000 1.05618000e+09
2835.000000 1.03880000e+09
2845.000000 1.04049000e+09
2855.000000 1.03331000e+09
2865.000000 1.02639000e+09
2875.000000 1.01470000e+09
2885.000000 1.00609000e+09
2895.000000 9.96907000e+08
2910.000000 9.83186000e+08
2930.000000 9.61209000e+08
2950.000000 9.38566000e+08
2970.000000 9.28445000e+08
2990.000000 9.09661000e+08
3010.000000 8.94535000e+08
3030.000000 8.78990000e+08
3050.000000 8.62722000e+08
3070.000000 8.46961000e+08
3090.000000 8.31416000e+08
3110.000000 8.16511000e+08
3130.000000 8.02803000e+08
3150.000000 7.88351000e+08
3170.000000 7.74161000e+08
3190.000000 7.54414000e+08
3210.000000 7.46907000e+08
3230.000000 7.33931000e+08
3250.000000 7.21216000e+08
3270.000000 7.09497000e+08
3290.000000 6.96651000e+08
3310.000000 6.85575000e+08
3330.000000 6.73900000e+08
3350.000000 6.61580000e+08
3370.000000 6.51296000e+08
3390.000000 6.40454000e+08
3410.000000 6.29788000e+08
3430.000000 6.17822000e+08
3450.000000 6.06185000e+08
3470.000000 5.97403000e+08
3490.000000 5.87637000e+08
3510.000000 5.78789000e+08
3530.000000 5.70193000e+08
3550.000000 5.60976000e+08
3570.000000 5.54117000e+08
3590.000000 5.42582000e+08
3610.000000 5.35141000e+08
3630.000000 5.25630000e+08
3640.000000 5.24082000e+08
3650.000000 5.18075000e+08
3670.000000 5.12025000e+08
3690.000000 5.02339000e+08
3710.000000 4.85716000e+08
3730.000000 4.64572000e+08
3750.000000 4.90545000e+08
3770.000000 4.94817000e+08
3790.000000 5.37421000e+08
3810.000000 5.72279000e+08
3830.000000 4.86883000e+08
3850.000000 6.01140000e+08
3870.000000 6.22965000e+08
3890.000000 4.54452000e+08
3910.000000 6.16469000e+08
3930.000000 6.16040000e+08
3950.000000 5.99194000e+08
3970.000000 4.25613000e+08
3990.000000 5.71764000e+08
4010.000000 5.81373000e+08
4030.000000 5.42075000e+08
4050.000000 5.71301000e+08
4070.000000 5.56535000e+08
4090.000000 4.87619000e+08
4110.000000 4.12723000e+08
4130.000000 5.18992000e+08
4150.000000 5.20476000e+08
4170.000000 5.17879000e+08
4190.000000 5.12238000e+08
4210.000000 5.04322000e+08
4230.000000 4.96027000e+08
4250.000000 4.87887000e+08
4270.000000 4.77025000e+08
4290.000000 4.70541000e+08
4310.000000 4.57788000e+08
4330.000000 3.92485000e+08
4350.000000 3.53087000e+08
4370.000000 4.34098000e+08
4390.000000 4.19752000e+08
4410.000000 4.28932000e+08
4430.000000 4.21190000e+08
4450.000000 4.16785000e+08
4470.000000 3.87667000e+08
4490.000000 4.02011000e+08
4510.000000 3.98601000e+08
4530.000000 3.92354000e+08
4550.000000 3.86456000e+08
4570.000000 3.80754000e+08
4590.000000 3.75172000e+08
4610.000000 3.69531000e+08
4630.000000 3.63902000e+08
4650.000000 3.58392000e+08
4670.000000 3.53463000e+08
4690.000000 3.48434000e+08
4710.000000 3.38179000e+08
4730.000000 3.37514000e+08
4750.000000 3.32340000e+08
4770.000000 3.28731000e+08
4790.000000 3.23348000e+08
4810.000000 3.17457000e+08
4830.000000 3.09391000e+08
4850.000000 2.72523000e+08
4870.000000 2.39029000e+08
4890.000000 2.94063000e+08
4910.000000 2.94875000e+08
4930.000000 2.83916000e+08
4950.000000 2.88976000e+08
4970.000000 2.85191000e+08
4990.000000 2.81169000e+08
5010.000000 2.73075000e+08
5030.000000 2.73335000e+08
5050.000000 2.67141000e+08
5070.000000 2.66093000e+08
5090.000000 2.62465000e+08
5110.000000 2.58856000e+08
5130.000000 2.55310000e+08
5150.000000 2.51825000e+08
5170.000000 2.48612000e+08
5190.000000 2.45301000e+08
5210.000000 2.41617000e+08
5230.000000 2.38823000e+08
5250.000000 2.35667000e+08
5270.000000 2.32539000e+08
5290.000000 2.29559000e+08
5310.000000 2.26537000e+08
5330.000000 2.23567000e+08
5350.000000 2.20529000e+08
5370.000000 2.17845000e+08
5390.000000 2.15025000e+08
5410.000000 2.12254000e+08
5430.000000 2.09377000e+08
5450.000000 2.06803000e+08
5470.000000 2.04161000e+08
5490.000000 2.01638000e+08
5510.000000 1.99060000e+08
5530.000000 1.96564000e+08
5550.000000 1.94110000e+08
5570.000000 1.91674000e+08
5590.000000 1.89292000e+08
5610.000000 1.86880000e+08
5630.000000 1.84639000e+08
5650.000000 1.82095000e+08
5670.000000 1.79922000e+08
5690.000000 1.77787000e+08
5710.000000 1.75700000e+08
5730.000000 1.73558000e+08
5750.000000 1.71441000e+08
5770.000000 1.69372000e+08
5790.000000 1.67316000e+08
5810.000000 1.65296000e+08
5830.000000 1.63310000e+08
5850.000000 1.61359000e+08
5870.000000 1.54313000e+08
5890.000000 1.57068000e+08
5910.000000 1.55661000e+08
5930.000000 1.53820000e+08
5950.000000 1.51937000e+08
5970.000000 1.50223000e+08
5990.000000 1.48413000e+08
6010.000000 1.46728000e+08
6030.000000 1.45010000e+08
6050.000000 1.43333000e+08
6070.000000 1.41674000e+08
6090.000000 1.40034000e+08
6110.000000 1.38432000e+08
6130.000000 1.36839000e+08
6150.000000 1.35213000e+08
6170.000000 1.33725000e+08
6190.000000 1.32213000e+08
6210.000000 1.30708000e+08
6230.000000 1.29230000e+08
6250.000000 1.27738000e+08
6270.000000 1.26331000e+08
6290.000000 1.24919000e+08
6310.000000 1.23504000e+08
6330.000000 1.22151000e+08
6350.000000 1.20542000e+08
6370.000000 1.19322000e+08
6390.000000 1.18124000e+08
6410.000000 1.16811000e+08
6430.000000 1.15557000e+08
6450.000000 1.14280000e+08
6470.000000 1.13007000e+08
6490.000000 1.11677000e+08
6510.000000 1.10147000e+08
6530.000000 1.08148000e+08
6550.000000 1.00692000e+08
6570.000000 8.80274000e+07
6590.000000 1.03291000e+08
6610.000000 1.04141000e+08
6630.000000 1.03385000e+08
6650.000000 1.02568000e+08
6670.000000 1.00430000e+08
6690.000000 9.93925000e+07
6710.000000 9.93531000e+07
6730.000000 9.83060000e+07
6750.000000 9.72778000e+07
6770.000000 9.62601000e+07
6790.000000 9.52199000e+07
6810.000000 9.42553000e+07
6830.000000 9.32680000e+07
6850.000000 9.23066000e+07
6870.000000 9.13549000e+07
6890.000000 9.04126000e+07
6910.000000 8.94798000e+07
6930.000000 8.85483000e+07
6950.000000 8.76572000e+07
6970.000000 8.67671000e+07
6990.000000 8.58781000e+07
7010.000000 8.50054000e+07
7030.000000 8.41413000e+07
7050.000000 8.32780000e+07
7070.000000 8.12474000e+07
7090.000000 8.16290000e+07
7110.000000 8.08127000e+07
7130.000000 8.00043000e+07
7150.000000 7.92036000e+07
7170.000000 7.84106000e+07
7190.000000 7.76398000e+07
7210.000000 7.68691000e+07
7230.000000 7.59038000e+07
7250.000000 7.53566000e+07
7270.000000 7.46218000e+07
7290.000000 7.33906000e+07
7310.000000 7.31659000e+07
7330.000000 7.24586000e+07
7350.000000 7.17510000e+07
7370.000000 7.10569000e+07
7390.000000 7.03693000e+07
7410.000000 6.96950000e+07
7430.000000 6.90132000e+07
7450.000000 6.83648000e+07
7470.000000 6.77022000e+07
7490.000000 6.70584000e+07
7510.000000 6.64058000e+07
7530.000000 6.57911000e+07
7550.000000 6.51674000e+07
7570.000000 6.45513000e+07
7590.000000 6.39408000e+07
7610.000000 6.33398000e+07
7630.000000 6.27448000e+07
7650.000000 6.21564000e+07
7670.000000 6.15752000e+07
7690.000000 6.10012000e+07
7710.000000 6.04335000e+07
7730.000000 5.98722000e+07
7750.000000 5.93177000e+07
7770.000000 5.86595000e+07
7790.000000 5.82283000e+07
7810.000000 5.76729000e+07
7830.000000 5.71642000e+07
7850.000000 5.66563000e+07
7870.000000 5.61394000e+07
7890.000000 5.55931000e+07
7910.000000 5.51443000e+07
7930.000000 5.46443000e+07
7950.000000 5.41301000e+07
7970.000000 5.36381000e+07
7990.000000 5.31392000e+07
8010.000000 5.26998000e+07
8030.000000 5.22237000e+07
8050.000000 5.17506000e+07
8070.000000 5.12897000e+07
8090.000000 5.07871000e+07
8110.000000 5.03508000e+07
8130.000000 4.99233000e+07
8150.000000 4.94426000e+07
8170.000000 4.90552000e+07
8190.000000 4.85862000e+07
8210.000000 4.80636000e+07
8230.000000 4.77241000e+07
8250.000000 4.73446000e+07
8270.000000 4.67959000e+07
8290.000000 4.65188000e+07
8310.000000 4.61386000e+07
8330.000000 4.57305000e+07
8350.000000 4.51951000e+07
8370.000000 4.49046000e+07
8390.000000 4.45736000e+07
8410.000000 4.41738000e+07
8430.000000 4.37572000e+07
8450.000000 4.31620000e+07
8470.000000 4.29295000e+07
8490.000000 4.25414000e+07
8510.000000 4.20478000e+07
8530.000000 4.18431000e+07
8550.000000 4.08570000e+07
8570.000000 4.15195000e+07
8590.000000 3.99168000e+07
8610.000000 3.96736000e+07
8630.000000 4.08992000e+07
8650.000000 3.95905000e+07
8670.000000 3.70044000e+07
8690.000000 3.98091000e+07
8710.000000 4.02715000e+07
8730.000000 3.88549000e+07
8750.000000 3.46894000e+07
8770.000000 3.73923000e+07
8790.000000 3.92658000e+07
8810.000000 3.92955000e+07
8830.000000 3.85538000e+07
8850.000000 3.54673000e+07
8870.000000 3.26309000e+07
8890.000000 3.68239000e+07
8910.000000 3.77355000e+07
8930.000000 3.76635000e+07
8950.000000 3.74564000e+07
8970.000000 3.69234000e+07
8990.000000 3.54271000e+07
9010.000000 3.09523000e+07
9030.000000 3.23899000e+07
9050.000000 3.51594000e+07
9070.000000 3.52633000e+07
9090.000000 3.53545000e+07
9110.000000 3.52375000e+07
9130.000000 3.49780000e+07
9150.000000 3.46628000e+07
9170.000000 3.41973000e+07
9190.000000 3.36092000e+07
9210.000000 3.16079000e+07
9230.000000 2.75115000e+07
9250.000000 3.08459000e+07
9270.000000 3.23933000e+07
9290.000000 3.26342000e+07
9310.000000 3.23916000e+07
9330.000000 3.23057000e+07
9350.000000 3.20900000e+07
9370.000000 3.18768000e+07
9390.000000 3.16215000e+07
9410.000000 3.13303000e+07
9430.000000 3.11124000e+07
9450.000000 3.08062000e+07
9470.000000 3.03439000e+07
9490.000000 3.01429000e+07
9510.000000 2.93277000e+07
9530.000000 2.74588000e+07
9550.000000 2.43021000e+07
9570.000000 2.76230000e+07
9590.000000 2.86975000e+07
9610.000000 2.87356000e+07
9630.000000 2.85400000e+07
9650.000000 2.85250000e+07
9670.000000 2.83443000e+07
9690.000000 2.81082000e+07
9710.000000 2.78503000e+07
9730.000000 2.77049000e+07
9750.000000 2.74931000e+07
9770.000000 2.72847000e+07
9790.000000 2.70771000e+07
9810.000000 2.68720000e+07
9830.000000 2.66681000e+07
9850.000000 2.64671000e+07
9870.000000 2.62675000e+07
9890.000000 2.60670000e+07
9910.000000 2.58545000e+07
9930.000000 2.56778000e+07
9950.000000 2.54339000e+07
9970.000000 2.51978000e+07
9990.000000 2.49162000e+07
10025.000000 2.32004000e+07
10075.000000 2.23691000e+07
10125.000000 2.36947000e+07
10175.000000 2.34311000e+07
10225.000000 2.30112000e+07
10275.000000 2.26040000e+07
10325.000000 2.21209000e+07
10375.000000 2.18001000e+07
10425.000000 2.14115000e+07
10475.000000 2.10315000e+07
10525.000000 2.06597000e+07
10575.000000 2.02964000e+07
10625.000000 1.99410000e+07
10675.000000 1.95572000e+07
10725.000000 1.92522000e+07
10775.000000 1.89201000e+07
10825.000000 1.83782000e+07
10875.000000 1.81087000e+07
10925.000000 1.61445000e+07
10975.000000 1.69294000e+07
11025.000000 1.72030000e+07
11075.000000 1.70434000e+07
11125.000000 1.67825000e+07
11175.000000 1.65023000e+07
11225.000000 1.62223000e+07
11275.000000 1.59534000e+07
11325.000000 1.56939000e+07
11375.000000 1.54389000e+07
11425.000000 1.51863000e+07
11475.000000 1.49395000e+07
11525.000000 1.46973000e+07
11575.000000 1.44598000e+07
11625.000000 1.42264000e+07
11675.000000 1.39987000e+07
11725.000000 1.37757000e+07
11775.000000 1.35538000e+07
11825.000000 1.33424000e+07
11875.000000 1.31322000e+07
11925.000000 1.29262000e+07
11975.000000 1.26146000e+07
12025.000000 1.25258000e+07
12075.000000 1.23316000e+07
12125.000000 1.21409000e+07
12175.000000 1.19542000e+07
12225.000000 1.17709000e+07
12275.000000 1.15910000e+07
12325.000000 1.14148000e+07
12375.000000 1.12416000e+07
12425.000000 1.10720000e+07
12475.000000 1.09045000e+07
12525.000000 1.07246000e+07
12575.000000 1.05812000e+07
12625.000000 1.04242000e+07
12675.000000 1.02690000e+07
12725.000000 1.00805000e+07
12775.000000 9.71367000e+06
12825.000000 8.84949000e+06
12875.000000 9.53200000e+06
12925.000000 9.50959000e+06
12975.000000 9.34335000e+06
13025.000000 9.26553000e+06
13075.000000 9.13222000e+06
