# Kurucz ODFNEW /NOVER, alpha: 0.0 (2003)
# teff = 23000 K (value for the effective temperature for the model. Temperatures are given in K)
# logg = 5 log(cm/s2) (value for Log(G) for the model.)
# lh = 1.25  (l/Hp where l is the  mixing length of the convective element and Hp is the pressure scale height)
# meta = -1.5  (value for the Metallicity for the model.)
# vtur = 2 km/s (Microturbulence velocity)
# alpha = 0  (Alpha)
#
# column 1: WAVELENGTH (ANGSTROM), Wavelength in Angstrom
# column 2: FLUX (ERG/CM2/S/A), Flux in erg/cm2/s/A
147.200000 2.28633000e-16
151.000000 1.18931000e-15
155.200000 6.72566000e-15
158.800000 2.76869000e-14
162.000000 9.26292000e-14
166.000000 3.93573000e-13
170.300000 1.73257000e-12
173.400000 4.82584000e-12
176.800000 1.42661000e-11
180.200000 4.05327000e-11
181.700000 6.34788000e-11
186.100000 2.27311000e-10
191.000000 8.79331000e-10
193.900000 1.89671000e-09
198.400000 5.98632000e-09
201.800000 1.37987000e-08
205.000000 2.95368000e-08
210.500000 1.03487000e-07
216.200000 3.54739000e-07
219.800000 7.47345000e-07
223.000000 1.42021000e-06
226.800000 2.97234000e-06
230.000000 1.27319000e-05
234.000000 2.91760000e-05
240.000000 8.00354000e-05
246.500000 2.24702000e-04
252.400000 5.49928000e-04
256.800000 1.02543000e-03
260.000000 1.62713000e-03
264.000000 2.80655000e-03
268.500000 5.07228000e-03
273.500000 9.55897000e-03
278.500000 1.76221000e-02
284.000000 3.36327000e-02
290.000000 6.60867000e-02
296.000000 1.26039000e-01
301.000000 2.11727000e-01
308.000000 4.20437000e-01
318.000000 1.08548000e+00
328.000000 2.61060000e+00
338.000000 5.94588000e+00
348.000000 1.28771000e+01
357.000000 2.48073000e+01
366.000000 4.62208000e+01
375.000000 8.32729000e+01
385.000000 1.54817000e+02
395.000000 2.78035000e+02
405.000000 4.84115000e+02
414.000000 7.78028000e+02
422.000000 1.16361000e+03
430.000000 1.71093000e+03
441.000000 2.84095000e+03
451.000000 4.39664000e+03
460.000000 6.39568000e+03
470.000000 9.52227000e+03
480.000000 1.39138000e+04
490.000000 1.99897000e+04
500.000000 2.82457000e+04
506.000000 1.63383000e+05
512.000000 5.38456000e+05
520.000000 6.84689000e+05
530.000000 9.53250000e+05
540.000000 1.06179000e+06
550.000000 1.47504000e+06
560.000000 1.77385000e+06
570.000000 2.16877000e+06
580.000000 2.24660000e+06
590.000000 2.93905000e+06
600.000000 3.59934000e+06
610.000000 4.25397000e+06
620.000000 4.92296000e+06
630.000000 5.73020000e+06
640.000000 6.48028000e+06
650.000000 7.49375000e+06
658.000000 8.40507000e+06
665.000000 9.17151000e+06
675.000000 1.02388000e+07
685.000000 1.15156000e+07
695.000000 1.32137000e+07
705.000000 1.47182000e+07
716.000000 1.65652000e+07
726.000000 1.83470000e+07
735.000000 2.02129000e+07
745.000000 2.24079000e+07
755.000000 2.47018000e+07
765.000000 2.70568000e+07
775.000000 2.96999000e+07
785.000000 3.24364000e+07
795.000000 3.51954000e+07
805.000000 3.82057000e+07
815.000000 4.12855000e+07
825.000000 4.47299000e+07
835.000000 4.75931000e+07
845.000000 5.16112000e+07
855.000000 5.51367000e+07
865.000000 5.93775000e+07
875.000000 6.35784000e+07
885.000000 6.79986000e+07
895.000000 7.23853000e+07
905.000000 7.59094000e+07
915.000000 1.05271000e+08
925.000000 3.99896000e+08
935.000000 1.04518000e+09
945.000000 4.41854000e+09
955.000000 9.98636000e+09
965.000000 1.43523000e+10
975.000000 4.12386000e+09
985.000000 2.24009000e+10
995.000000 2.38768000e+10
1005.000000 2.47192000e+10
1015.000000 1.80546000e+10
1025.000000 2.61872000e+09
1035.000000 1.45082000e+10
1045.000000 2.43413000e+10
1055.000000 2.45187000e+10
1065.000000 2.22837000e+10
1075.000000 2.35500000e+10
1085.000000 2.16064000e+10
1095.000000 2.28817000e+10
1105.000000 2.15389000e+10
1115.000000 2.13139000e+10
1125.000000 1.98833000e+10
1135.000000 2.04551000e+10
1145.000000 1.90511000e+10
1155.000000 1.95368000e+10
1165.000000 1.92125000e+10
1175.000000 1.63560000e+10
1185.000000 1.80238000e+10
1195.000000 1.58345000e+10
1205.000000 1.09805000e+10
1215.000000 2.18858000e+09
1225.000000 1.00294000e+10
1235.000000 1.49731000e+10
1245.000000 1.55261000e+10
1255.000000 1.53002000e+10
1265.000000 1.50357000e+10
1275.000000 1.50970000e+10
1285.000000 1.47970000e+10
1295.000000 1.34115000e+10
1305.000000 1.32287000e+10
1315.000000 1.38566000e+10
1325.000000 1.33214000e+10
1335.000000 1.27125000e+10
1345.000000 1.28686000e+10
1355.000000 1.27571000e+10
1365.000000 1.23095000e+10
1375.000000 1.21018000e+10
1385.000000 1.19100000e+10
1395.000000 1.12470000e+10
1405.000000 1.12214000e+10
1415.000000 1.11503000e+10
1425.000000 1.09825000e+10
1435.000000 1.07994000e+10
1442.000000 1.07328000e+10
1447.000000 1.06026000e+10
1455.000000 1.04237000e+10
1465.000000 1.01548000e+10
1475.000000 9.98626000e+09
1485.000000 9.75074000e+09
1495.000000 9.58871000e+09
1505.000000 9.25730000e+09
1512.000000 9.04720000e+09
1517.000000 9.04839000e+09
1525.000000 8.90770000e+09
1535.000000 8.51829000e+09
1545.000000 8.51239000e+09
1555.000000 8.22704000e+09
1565.000000 8.25283000e+09
1575.000000 8.19955000e+09
1585.000000 8.05322000e+09
1595.000000 7.95019000e+09
1605.000000 7.70401000e+09
1615.000000 7.57178000e+09
1625.000000 7.51426000e+09
1635.000000 7.44080000e+09
1645.000000 7.25956000e+09
1655.000000 7.14927000e+09
1665.000000 7.11053000e+09
1672.000000 6.90760000e+09
1677.000000 6.98422000e+09
1685.000000 6.88475000e+09
1695.000000 6.72810000e+09
1705.000000 6.57320000e+09
1715.000000 6.41493000e+09
1725.000000 6.31101000e+09
1735.000000 6.26400000e+09
1745.000000 6.14070000e+09
1755.000000 6.09844000e+09
1765.000000 5.83435000e+09
1775.000000 5.83564000e+09
1785.000000 5.77244000e+09
1795.000000 5.72433000e+09
1805.000000 5.65171000e+09
1815.000000 5.51046000e+09
1825.000000 5.45567000e+09
1835.000000 5.35900000e+09
1845.000000 5.15254000e+09
1855.000000 5.02390000e+09
1865.000000 5.00591000e+09
1875.000000 5.02242000e+09
1885.000000 4.80345000e+09
1895.000000 4.65123000e+09
1905.000000 4.72980000e+09
1915.000000 4.57369000e+09
1925.000000 4.49010000e+09
1935.000000 4.49583000e+09
1945.000000 4.49473000e+09
1955.000000 4.30190000e+09
1967.000000 4.34577000e+09
1976.000000 4.35365000e+09
1984.000000 4.22137000e+09
1995.000000 4.10159000e+09
2005.000000 4.12619000e+09
2015.000000 4.10093000e+09
2025.000000 4.07541000e+09
2035.000000 3.96868000e+09
2045.000000 3.91519000e+09
2055.000000 3.80768000e+09
2065.000000 3.78901000e+09
2074.000000 3.81435000e+09
2078.000000 3.72273000e+09
2085.000000 3.71658000e+09
2095.000000 3.62402000e+09
2105.000000 3.62444000e+09
2115.000000 3.58957000e+09
2125.000000 3.56546000e+09
2135.000000 3.50834000e+09
2145.000000 3.44549000e+09
2155.000000 3.41788000e+09
2165.000000 3.37280000e+09
2175.000000 3.32434000e+09
2185.000000 3.28522000e+09
2195.000000 3.24918000e+09
2205.000000 3.20273000e+09
2215.000000 3.16097000e+09
2225.000000 3.11368000e+09
2235.000000 3.07720000e+09
2245.000000 3.04267000e+09
2255.000000 2.99848000e+09
2265.000000 2.96729000e+09
2275.000000 2.92845000e+09
2285.000000 2.89581000e+09
2295.000000 2.83443000e+09
2305.000000 2.82025000e+09
2315.000000 2.77991000e+09
2325.000000 2.74789000e+09
2335.000000 2.70354000e+09
2345.000000 2.66231000e+09
2355.000000 2.64565000e+09
2365.000000 2.60501000e+09
2375.000000 2.57777000e+09
2385.000000 2.53660000e+09
2395.000000 2.51112000e+09
2405.000000 2.48104000e+09
2415.000000 2.45007000e+09
2425.000000 2.43144000e+09
2435.000000 2.39677000e+09
2445.000000 2.36971000e+09
2455.000000 2.34656000e+09
2465.000000 2.31461000e+09
2475.000000 2.28936000e+09
2485.000000 2.26243000e+09
2495.000000 2.21226000e+09
2505.000000 2.20820000e+09
2513.000000 2.16887000e+09
2518.000000 2.17642000e+09
2525.000000 2.15545000e+09
2535.000000 2.12605000e+09
2545.000000 2.10042000e+09
2555.000000 2.08614000e+09
2565.000000 2.05937000e+09
2575.000000 2.04040000e+09
2585.000000 2.01709000e+09
2595.000000 1.99323000e+09
2605.000000 1.98162000e+09
2615.000000 1.96204000e+09
2625.000000 1.94203000e+09
2635.000000 1.91842000e+09
2645.000000 1.90227000e+09
2655.000000 1.87851000e+09
2665.000000 1.85054000e+09
2675.000000 1.82831000e+09
2685.000000 1.82156000e+09
2695.000000 1.78374000e+09
2705.000000 1.78123000e+09
2715.000000 1.76103000e+09
2725.000000 1.72408000e+09
2735.000000 1.72399000e+09
2745.000000 1.69400000e+09
2755.000000 1.67845000e+09
2765.000000 1.64987000e+09
2775.000000 1.65160000e+09
2785.000000 1.63296000e+09
2795.000000 1.59087000e+09
2805.000000 1.58874000e+09
2815.000000 1.58266000e+09
2825.000000 1.54499000e+09
2835.000000 1.52773000e+09
2845.000000 1.53214000e+09
2855.000000 1.51662000e+09
2865.000000 1.50164000e+09
2875.000000 1.48566000e+09
2885.000000 1.47044000e+09
2895.000000 1.45540000e+09
2910.000000 1.43283000e+09
2930.000000 1.40267000e+09
2950.000000 1.36185000e+09
2970.000000 1.34763000e+09
2990.000000 1.31993000e+09
3010.000000 1.29417000e+09
3030.000000 1.26906000e+09
3050.000000 1.24405000e+09
3070.000000 1.21970000e+09
3090.000000 1.19548000e+09
3110.000000 1.17279000e+09
3130.000000 1.15150000e+09
3150.000000 1.12952000e+09
3170.000000 1.10763000e+09
3190.000000 1.07550000e+09
3210.000000 1.06590000e+09
3230.000000 1.04567000e+09
3250.000000 1.02599000e+09
3270.000000 1.00819000e+09
3290.000000 9.88105000e+08
3310.000000 9.71558000e+08
3330.000000 9.53842000e+08
3350.000000 9.34766000e+08
3370.000000 9.19623000e+08
3390.000000 9.03133000e+08
3410.000000 8.86998000e+08
3430.000000 8.67878000e+08
3450.000000 8.49520000e+08
3470.000000 8.36971000e+08
3490.000000 8.22395000e+08
3510.000000 8.09014000e+08
3530.000000 7.95972000e+08
3550.000000 7.82724000e+08
3570.000000 7.74363000e+08
3590.000000 7.55061000e+08
3610.000000 7.45388000e+08
3630.000000 7.29935000e+08
3640.000000 7.29655000e+08
3650.000000 7.19101000e+08
3670.000000 7.10362000e+08
3690.000000 6.98781000e+08
3710.000000 6.75995000e+08
3730.000000 6.48430000e+08
3750.000000 6.49729000e+08
3770.000000 6.38401000e+08
3790.000000 6.79283000e+08
3810.000000 7.17717000e+08
3830.000000 6.14395000e+08
3850.000000 7.53662000e+08
3870.000000 7.82693000e+08
3890.000000 5.73680000e+08
3910.000000 7.75016000e+08
3930.000000 7.82490000e+08
3950.000000 7.53628000e+08
3970.000000 5.35948000e+08
3990.000000 7.17249000e+08
4010.000000 7.34149000e+08
4030.000000 6.75988000e+08
4050.000000 7.24106000e+08
4070.000000 7.03839000e+08
4090.000000 6.08353000e+08
4110.000000 5.17587000e+08
4130.000000 6.54294000e+08
4150.000000 6.57781000e+08
4170.000000 6.56014000e+08
4190.000000 6.48715000e+08
4210.000000 6.38698000e+08
4230.000000 6.28103000e+08
4250.000000 6.17158000e+08
4270.000000 6.03808000e+08
4290.000000 5.93892000e+08
4310.000000 5.75292000e+08
4330.000000 4.88190000e+08
4350.000000 4.40369000e+08
4370.000000 5.43940000e+08
4390.000000 5.23376000e+08
4410.000000 5.40180000e+08
4430.000000 5.30035000e+08
4450.000000 5.24063000e+08
4470.000000 4.79752000e+08
4490.000000 5.06564000e+08
4510.000000 5.01544000e+08
4530.000000 4.93711000e+08
4550.000000 4.86050000e+08
4570.000000 4.78594000e+08
4590.000000 4.71357000e+08
4610.000000 4.64138000e+08
4630.000000 4.57026000e+08
4650.000000 4.49863000e+08
4670.000000 4.43409000e+08
4690.000000 4.36861000e+08
4710.000000 4.22800000e+08
4730.000000 4.23458000e+08
4750.000000 4.16894000e+08
4770.000000 4.11286000e+08
4790.000000 4.04165000e+08
4810.000000 3.96593000e+08
4830.000000 3.84838000e+08
4850.000000 3.35993000e+08
4870.000000 2.95847000e+08
4890.000000 3.64439000e+08
4910.000000 3.66883000e+08
4930.000000 3.51016000e+08
4950.000000 3.60117000e+08
4970.000000 3.55729000e+08
4990.000000 3.50660000e+08
5010.000000 3.39655000e+08
5030.000000 3.40712000e+08
5050.000000 3.33085000e+08
5070.000000 3.31415000e+08
5090.000000 3.26794000e+08
5110.000000 3.22250000e+08
5130.000000 3.17753000e+08
5150.000000 3.13358000e+08
5170.000000 3.09134000e+08
5190.000000 3.04910000e+08
5210.000000 3.00630000e+08
5230.000000 2.96683000e+08
5250.000000 2.92663000e+08
5270.000000 2.88710000e+08
5290.000000 2.84848000e+08
5310.000000 2.81036000e+08
5330.000000 2.77274000e+08
5350.000000 2.73546000e+08
5370.000000 2.69984000e+08
5390.000000 2.66415000e+08
5410.000000 2.62917000e+08
5430.000000 2.59425000e+08
5450.000000 2.56053000e+08
5470.000000 2.52723000e+08
5490.000000 2.49461000e+08
5510.000000 2.46226000e+08
5530.000000 2.43056000e+08
5550.000000 2.39938000e+08
5570.000000 2.36858000e+08
5590.000000 2.33840000e+08
5610.000000 2.30847000e+08
5630.000000 2.27938000e+08
5650.000000 2.24981000e+08
5670.000000 2.22143000e+08
5690.000000 2.19363000e+08
5710.000000 2.16673000e+08
5730.000000 2.13970000e+08
5750.000000 2.11299000e+08
5770.000000 2.08694000e+08
5790.000000 2.06108000e+08
5810.000000 2.03576000e+08
5830.000000 2.01073000e+08
5850.000000 1.98611000e+08
5870.000000 1.88108000e+08
5890.000000 1.92914000e+08
5910.000000 1.91449000e+08
5930.000000 1.89131000e+08
5950.000000 1.86830000e+08
5970.000000 1.84608000e+08
5990.000000 1.82390000e+08
6010.000000 1.80218000e+08
6030.000000 1.78072000e+08
6050.000000 1.75960000e+08
6070.000000 1.73882000e+08
6090.000000 1.71827000e+08
6110.000000 1.69816000e+08
6130.000000 1.67828000e+08
6150.000000 1.65842000e+08
6170.000000 1.63927000e+08
6190.000000 1.62024000e+08
6210.000000 1.60152000e+08
6230.000000 1.58300000e+08
6250.000000 1.56469000e+08
6270.000000 1.54686000e+08
6290.000000 1.52914000e+08
6310.000000 1.51161000e+08
6330.000000 1.49445000e+08
6350.000000 1.47683000e+08
6370.000000 1.46043000e+08
6390.000000 1.44429000e+08
6410.000000 1.42795000e+08
6430.000000 1.41207000e+08
6450.000000 1.39626000e+08
6470.000000 1.38035000e+08
6490.000000 1.36220000e+08
6510.000000 1.34335000e+08
6530.000000 1.31579000e+08
6550.000000 1.21820000e+08
6570.000000 1.06652000e+08
6590.000000 1.25394000e+08
6610.000000 1.26783000e+08
6630.000000 1.25951000e+08
6650.000000 1.24862000e+08
6670.000000 1.21828000e+08
6690.000000 1.20613000e+08
6710.000000 1.21066000e+08
6730.000000 1.19757000e+08
6750.000000 1.18478000e+08
6770.000000 1.17212000e+08
6790.000000 1.15934000e+08
6810.000000 1.14726000e+08
6830.000000 1.13506000e+08
6850.000000 1.12306000e+08
6870.000000 1.11127000e+08
6890.000000 1.09959000e+08
6910.000000 1.08802000e+08
6930.000000 1.07657000e+08
6950.000000 1.06539000e+08
6970.000000 1.05433000e+08
6990.000000 1.04337000e+08
7010.000000 1.03259000e+08
7030.000000 1.02192000e+08
7050.000000 1.01136000e+08
7070.000000 9.82732000e+07
7090.000000 9.90760000e+07
7110.000000 9.80574000e+07
7130.000000 9.70634000e+07
7150.000000 9.60716000e+07
7170.000000 9.50894000e+07
7190.000000 9.41384000e+07
7210.000000 9.31893000e+07
7230.000000 9.20907000e+07
7250.000000 9.13253000e+07
7270.000000 9.04101000e+07
7290.000000 8.87096000e+07
7310.000000 8.86126000e+07
7330.000000 8.77371000e+07
7350.000000 8.68697000e+07
7370.000000 8.60105000e+07
7390.000000 8.51661000e+07
7410.000000 8.43297000e+07
7430.000000 8.35009000e+07
7450.000000 8.26935000e+07
7470.000000 8.18867000e+07
7490.000000 8.10873000e+07
7510.000000 8.02753000e+07
7530.000000 7.95239000e+07
7550.000000 7.87528000e+07
7570.000000 7.79954000e+07
7590.000000 7.72448000e+07
7610.000000 7.65076000e+07
7630.000000 7.57705000e+07
7650.000000 7.50530000e+07
7670.000000 7.43355000e+07
7690.000000 7.36308000e+07
7710.000000 7.29324000e+07
7730.000000 7.22403000e+07
7750.000000 7.15606000e+07
7770.000000 7.08557000e+07
7790.000000 7.02192000e+07
7810.000000 6.95265000e+07
7830.000000 6.89137000e+07
7850.000000 6.83306000e+07
7870.000000 6.76979000e+07
7890.000000 6.70404000e+07
7910.000000 6.64610000e+07
7930.000000 6.58446000e+07
7950.000000 6.52276000e+07
7970.000000 6.45745000e+07
7990.000000 6.40156000e+07
8010.000000 6.34086000e+07
8030.000000 6.28010000e+07
8050.000000 6.21987000e+07
8070.000000 6.16593000e+07
8090.000000 6.10037000e+07
8110.000000 6.05314000e+07
8130.000000 6.00003000e+07
8150.000000 5.94225000e+07
8170.000000 5.89401000e+07
8190.000000 5.83437000e+07
8210.000000 5.77356000e+07
8230.000000 5.73441000e+07
8250.000000 5.68560000e+07
8270.000000 5.61352000e+07
8290.000000 5.58482000e+07
8310.000000 5.53888000e+07
8330.000000 5.48680000e+07
8350.000000 5.41624000e+07
8370.000000 5.38554000e+07
8390.000000 5.34620000e+07
8410.000000 5.29939000e+07
8430.000000 5.24989000e+07
8450.000000 5.17167000e+07
8470.000000 5.15857000e+07
8490.000000 5.10288000e+07
8510.000000 5.06368000e+07
8530.000000 5.01159000e+07
8550.000000 4.95137000e+07
8570.000000 4.95204000e+07
8590.000000 4.80382000e+07
8610.000000 4.80277000e+07
8630.000000 4.85125000e+07
8650.000000 4.71984000e+07
8670.000000 4.54723000e+07
8690.000000 4.72133000e+07
8710.000000 4.74621000e+07
8730.000000 4.58618000e+07
8750.000000 4.24870000e+07
8770.000000 4.43854000e+07
8790.000000 4.61242000e+07
8810.000000 4.61548000e+07
8830.000000 4.52497000e+07
8850.000000 4.19247000e+07
8870.000000 3.93556000e+07
8890.000000 4.32581000e+07
8910.000000 4.43426000e+07
8930.000000 4.43317000e+07
8950.000000 4.40990000e+07
8970.000000 4.33875000e+07
8990.000000 4.14472000e+07
9010.000000 3.67944000e+07
9030.000000 3.82269000e+07
9050.000000 4.11851000e+07
9070.000000 4.13425000e+07
9090.000000 4.16295000e+07
9110.000000 4.15459000e+07
9130.000000 4.12465000e+07
9150.000000 4.08495000e+07
9170.000000 4.02177000e+07
9190.000000 3.94085000e+07
9210.000000 3.68832000e+07
9230.000000 3.25841000e+07
9250.000000 3.60929000e+07
9270.000000 3.80057000e+07
9290.000000 3.83726000e+07
9310.000000 3.80954000e+07
9330.000000 3.80733000e+07
9350.000000 3.77839000e+07
9370.000000 3.75275000e+07
9390.000000 3.72542000e+07
9410.000000 3.69181000e+07
9430.000000 3.66156000e+07
9450.000000 3.62781000e+07
9470.000000 3.56255000e+07
9490.000000 3.54057000e+07
9510.000000 3.42613000e+07
9530.000000 3.19790000e+07
9550.000000 2.85418000e+07
9570.000000 3.22087000e+07
9590.000000 3.35881000e+07
9610.000000 3.37299000e+07
9630.000000 3.35282000e+07
9650.000000 3.35495000e+07
9670.000000 3.33444000e+07
9690.000000 3.30886000e+07
9710.000000 3.27602000e+07
9730.000000 3.26253000e+07
9750.000000 3.23735000e+07
9770.000000 3.21242000e+07
9790.000000 3.18772000e+07
9810.000000 3.16326000e+07
9830.000000 3.13902000e+07
9850.000000 3.11502000e+07
9870.000000 3.09128000e+07
9890.000000 3.06754000e+07
9910.000000 3.04255000e+07
9930.000000 3.01583000e+07
9950.000000 2.98834000e+07
9970.000000 2.95885000e+07
9990.000000 2.92120000e+07
10025.000000 2.70430000e+07
10075.000000 2.60808000e+07
10125.000000 2.77675000e+07
10175.000000 2.75131000e+07
10225.000000 2.70346000e+07
10275.000000 2.65549000e+07
10325.000000 2.59410000e+07
10375.000000 2.55999000e+07
10425.000000 2.51386000e+07
10475.000000 2.46874000e+07
10525.000000 2.42462000e+07
10575.000000 2.38150000e+07
10625.000000 2.33935000e+07
10675.000000 2.29237000e+07
10725.000000 2.25778000e+07
10775.000000 2.21831000e+07
10825.000000 2.14800000e+07
10875.000000 2.11495000e+07
10925.000000 1.87112000e+07
10975.000000 1.96827000e+07
11025.000000 2.00767000e+07
11075.000000 1.99244000e+07
11125.000000 1.96508000e+07
11175.000000 1.93194000e+07
11225.000000 1.89838000e+07
11275.000000 1.86756000e+07
11325.000000 1.83654000e+07
11375.000000 1.80613000e+07
11425.000000 1.77627000e+07
11475.000000 1.74707000e+07
11525.000000 1.71844000e+07
11575.000000 1.69038000e+07
11625.000000 1.66291000e+07
11675.000000 1.63601000e+07
11725.000000 1.60965000e+07
11775.000000 1.58372000e+07
11825.000000 1.55848000e+07
11875.000000 1.53365000e+07
11925.000000 1.50932000e+07
11975.000000 1.46419000e+07
12025.000000 1.46210000e+07
12075.000000 1.43922000e+07
12125.000000 1.41674000e+07
12175.000000 1.39473000e+07
12225.000000 1.37311000e+07
12275.000000 1.35194000e+07
12325.000000 1.33115000e+07
12375.000000 1.31080000e+07
12425.000000 1.29080000e+07
12475.000000 1.27118000e+07
12525.000000 1.24883000e+07
12575.000000 1.23308000e+07
12625.000000 1.21454000e+07
12675.000000 1.19501000e+07
12725.000000 1.17231000e+07
12775.000000 1.12333000e+07
12825.000000 1.01848000e+07
12875.000000 1.10456000e+07
12925.000000 1.10546000e+07
12975.000000 1.08303000e+07
13025.000000 1.07824000e+07
13075.000000 1.06261000e+07
