# Kurucz ODFNEW /NOVER, alpha: 0.0 (2003)
# teff = 29000 K (value for the effective temperature for the model. Temperatures are given in K)
# logg = 4.5 log(cm/s2) (value for Log(G) for the model.)
# lh = 1.25  (l/Hp where l is the  mixing length of the convective element and Hp is the pressure scale height)
# meta = 0  (value for the Metallicity for the model.)
# vtur = 2 km/s (Microturbulence velocity)
# alpha = 0  (Alpha)
#
# column 1: WAVELENGTH (ANGSTROM), Wavelength in Angstrom
# column 2: FLUX (ERG/CM2/S/A), Flux in erg/cm2/s/A
147.200000 5.22901000e-10
151.000000 1.73932000e-09
155.200000 6.16339000e-09
158.800000 1.73639000e-08
162.000000 4.21402000e-08
166.000000 1.22138000e-07
170.300000 3.63245000e-07
173.400000 7.74344000e-07
176.800000 1.72346000e-06
180.200000 3.72947000e-06
181.700000 5.19606000e-06
186.100000 1.33763000e-05
191.000000 3.65463000e-05
193.900000 6.47462000e-05
198.400000 1.52366000e-04
201.800000 2.83921000e-04
205.000000 5.00833000e-04
210.500000 1.27897000e-03
216.200000 3.21686000e-03
219.800000 5.62419000e-03
223.000000 9.10517000e-03
226.800000 1.59888000e-02
230.000000 2.41805000e+00
234.000000 5.28306000e+00
240.000000 1.01678000e+01
246.500000 2.05005000e+01
252.400000 3.77553000e+01
256.800000 5.49714000e+01
260.000000 8.64750000e+01
264.000000 1.25944000e+02
268.500000 1.93318000e+02
273.500000 2.97164000e+02
278.500000 4.41717000e+02
284.000000 7.97028000e+02
290.000000 1.25167000e+03
296.000000 1.91461000e+03
301.000000 2.67055000e+03
308.000000 4.55384000e+03
318.000000 9.61568000e+03
328.000000 1.67151000e+04
338.000000 3.05930000e+04
348.000000 5.21027000e+04
357.000000 1.74104000e+05
366.000000 3.32193000e+05
375.000000 4.53227000e+05
385.000000 6.98408000e+05
395.000000 1.24815000e+06
405.000000 1.69424000e+06
414.000000 2.36461000e+06
422.000000 2.91933000e+06
430.000000 3.82740000e+06
441.000000 5.19899000e+06
451.000000 6.52272000e+06
460.000000 7.90598000e+06
470.000000 1.02948000e+07
480.000000 1.29573000e+07
490.000000 1.62067000e+07
500.000000 1.99365000e+07
506.000000 6.80710000e+07
512.000000 4.23013000e+08
520.000000 4.24782000e+08
530.000000 4.37417000e+08
540.000000 4.23756000e+08
550.000000 5.66327000e+08
560.000000 6.54700000e+08
570.000000 7.13258000e+08
580.000000 6.65738000e+08
590.000000 7.85212000e+08
600.000000 7.79307000e+08
610.000000 8.88346000e+08
620.000000 9.82005000e+08
630.000000 9.93601000e+08
640.000000 9.32534000e+08
650.000000 9.23500000e+08
658.000000 1.01064000e+09
665.000000 1.13234000e+09
675.000000 1.17511000e+09
685.000000 1.11319000e+09
695.000000 1.42690000e+09
705.000000 1.35267000e+09
716.000000 1.55988000e+09
726.000000 1.56081000e+09
735.000000 1.58460000e+09
745.000000 1.72439000e+09
755.000000 1.76639000e+09
765.000000 1.84546000e+09
775.000000 1.92271000e+09
785.000000 2.02210000e+09
795.000000 2.04690000e+09
805.000000 2.06025000e+09
815.000000 2.06995000e+09
825.000000 2.20782000e+09
835.000000 1.91811000e+09
845.000000 2.19355000e+09
855.000000 2.20047000e+09
865.000000 2.30088000e+09
875.000000 2.38942000e+09
885.000000 2.50985000e+09
895.000000 2.57494000e+09
905.000000 2.53809000e+09
915.000000 2.92371000e+09
925.000000 1.30302000e+10
935.000000 2.67185000e+10
945.000000 4.77796000e+10
955.000000 5.64005000e+10
965.000000 6.83411000e+10
975.000000 1.69904000e+10
985.000000 5.78592000e+10
995.000000 5.33230000e+10
1005.000000 5.88728000e+10
1015.000000 5.99271000e+10
1025.000000 3.40558000e+10
1035.000000 5.22000000e+10
1045.000000 6.86584000e+10
1055.000000 6.37819000e+10
1065.000000 5.25789000e+10
1075.000000 5.77079000e+10
1085.000000 5.20696000e+10
1095.000000 5.69607000e+10
1105.000000 5.31668000e+10
1115.000000 5.21386000e+10
1125.000000 4.16192000e+10
1135.000000 5.08788000e+10
1145.000000 4.67756000e+10
1155.000000 4.66159000e+10
1165.000000 4.54554000e+10
1175.000000 2.80564000e+10
1185.000000 4.16804000e+10
1195.000000 3.97960000e+10
1205.000000 3.35859000e+10
1215.000000 2.25738000e+10
1225.000000 3.60204000e+10
1235.000000 3.98459000e+10
1245.000000 3.83164000e+10
1255.000000 3.79378000e+10
1265.000000 3.86753000e+10
1275.000000 3.95263000e+10
1285.000000 3.91759000e+10
1295.000000 3.24921000e+10
1305.000000 3.38653000e+10
1315.000000 3.78401000e+10
1325.000000 3.55952000e+10
1335.000000 3.45038000e+10
1345.000000 3.42176000e+10
1355.000000 3.38662000e+10
1365.000000 3.17401000e+10
1375.000000 3.07322000e+10
1385.000000 2.97479000e+10
1395.000000 2.20847000e+10
1405.000000 2.34909000e+10
1415.000000 2.68385000e+10
1425.000000 2.51348000e+10
1435.000000 2.62950000e+10
1442.000000 2.66418000e+10
1447.000000 2.62241000e+10
1455.000000 2.51856000e+10
1465.000000 2.36704000e+10
1475.000000 2.39635000e+10
1485.000000 2.36743000e+10
1495.000000 2.30283000e+10
1505.000000 2.12297000e+10
1512.000000 1.95225000e+10
1517.000000 1.99522000e+10
1525.000000 2.00544000e+10
1535.000000 1.69864000e+10
1545.000000 1.59765000e+10
1555.000000 1.55293000e+10
1565.000000 1.69782000e+10
1575.000000 1.79661000e+10
1585.000000 1.79455000e+10
1595.000000 1.77716000e+10
1605.000000 1.74557000e+10
1615.000000 1.67289000e+10
1625.000000 1.68133000e+10
1635.000000 1.74045000e+10
1645.000000 1.72673000e+10
1655.000000 1.72422000e+10
1665.000000 1.71689000e+10
1672.000000 1.62128000e+10
1677.000000 1.81471000e+10
1685.000000 1.72746000e+10
1695.000000 1.64354000e+10
1705.000000 1.60228000e+10
1715.000000 1.52627000e+10
1725.000000 1.47698000e+10
1735.000000 1.52495000e+10
1745.000000 1.50072000e+10
1755.000000 1.49296000e+10
1765.000000 1.47125000e+10
1775.000000 1.39015000e+10
1785.000000 1.41151000e+10
1795.000000 1.41652000e+10
1805.000000 1.41903000e+10
1815.000000 1.30817000e+10
1825.000000 1.33041000e+10
1835.000000 1.29995000e+10
1845.000000 1.18684000e+10
1855.000000 1.21218000e+10
1865.000000 1.22597000e+10
1875.000000 1.23597000e+10
1885.000000 1.11898000e+10
1895.000000 1.04940000e+10
1905.000000 1.11606000e+10
1915.000000 1.06448000e+10
1925.000000 1.00087000e+10
1935.000000 1.06452000e+10
1945.000000 1.09144000e+10
1955.000000 9.76484000e+09
1967.000000 1.04419000e+10
1976.000000 1.09172000e+10
1984.000000 1.01163000e+10
1995.000000 9.93878000e+09
2005.000000 1.01698000e+10
2015.000000 1.01182000e+10
2025.000000 1.02749000e+10
2035.000000 9.47185000e+09
2045.000000 9.52268000e+09
2055.000000 8.76116000e+09
2065.000000 8.68075000e+09
2074.000000 9.03490000e+09
2078.000000 8.41797000e+09
2085.000000 8.72750000e+09
2095.000000 8.50001000e+09
2105.000000 8.90083000e+09
2115.000000 8.89097000e+09
2125.000000 8.91928000e+09
2135.000000 8.73840000e+09
2145.000000 8.36808000e+09
2155.000000 8.58507000e+09
2165.000000 8.44486000e+09
2175.000000 8.36022000e+09
2185.000000 8.14657000e+09
2195.000000 8.19996000e+09
2205.000000 8.11878000e+09
2215.000000 7.96501000e+09
2225.000000 7.80530000e+09
2235.000000 7.64662000e+09
2245.000000 7.64966000e+09
2255.000000 7.43676000e+09
2265.000000 7.44981000e+09
2275.000000 7.34588000e+09
2285.000000 7.25214000e+09
2295.000000 6.60443000e+09
2305.000000 6.98226000e+09
2315.000000 6.85030000e+09
2325.000000 6.77449000e+09
2335.000000 6.63485000e+09
2345.000000 6.65189000e+09
2355.000000 6.55918000e+09
2365.000000 6.48349000e+09
2375.000000 6.33249000e+09
2385.000000 6.24129000e+09
2395.000000 6.16636000e+09
2405.000000 6.09310000e+09
2415.000000 6.00858000e+09
2425.000000 5.96630000e+09
2435.000000 5.81739000e+09
2445.000000 5.78578000e+09
2455.000000 5.74437000e+09
2465.000000 5.66425000e+09
2475.000000 5.56980000e+09
2485.000000 5.45917000e+09
2495.000000 4.59433000e+09
2505.000000 5.26218000e+09
2513.000000 5.04881000e+09
2518.000000 5.18404000e+09
2525.000000 5.20409000e+09
2535.000000 5.15449000e+09
2545.000000 4.99076000e+09
2555.000000 4.98166000e+09
2565.000000 4.92440000e+09
2575.000000 4.88549000e+09
2585.000000 4.82865000e+09
2595.000000 4.77221000e+09
2605.000000 4.72731000e+09
2615.000000 4.65475000e+09
2625.000000 4.61345000e+09
2635.000000 4.56027000e+09
2645.000000 4.48471000e+09
2655.000000 4.44340000e+09
2665.000000 4.30239000e+09
2675.000000 4.27728000e+09
2685.000000 4.27265000e+09
2695.000000 4.12549000e+09
2705.000000 4.06493000e+09
2715.000000 4.04996000e+09
2725.000000 4.02237000e+09
2735.000000 3.97579000e+09
2745.000000 3.92292000e+09
2755.000000 3.89365000e+09
2765.000000 3.82444000e+09
2775.000000 3.83690000e+09
2785.000000 3.77330000e+09
2795.000000 3.64272000e+09
2805.000000 3.65845000e+09
2815.000000 3.65827000e+09
2825.000000 3.59012000e+09
2835.000000 3.48633000e+09
2845.000000 3.52334000e+09
2855.000000 3.46016000e+09
2865.000000 3.43462000e+09
2875.000000 3.39505000e+09
2885.000000 3.35521000e+09
2895.000000 3.30969000e+09
2910.000000 3.23593000e+09
2930.000000 3.18795000e+09
2950.000000 3.08609000e+09
2970.000000 3.03877000e+09
2990.000000 2.96214000e+09
3010.000000 2.86307000e+09
3030.000000 2.82958000e+09
3050.000000 2.78049000e+09
3070.000000 2.73259000e+09
3090.000000 2.62599000e+09
3110.000000 2.60946000e+09
3130.000000 2.54042000e+09
3150.000000 2.49429000e+09
3170.000000 2.43218000e+09
3190.000000 2.37616000e+09
3210.000000 2.34046000e+09
3230.000000 2.28311000e+09
3250.000000 2.24629000e+09
3270.000000 2.19303000e+09
3290.000000 2.14828000e+09
3310.000000 2.10720000e+09
3330.000000 2.05846000e+09
3350.000000 2.01885000e+09
3370.000000 1.97694000e+09
3390.000000 1.94523000e+09
3410.000000 1.90654000e+09
3430.000000 1.86435000e+09
3450.000000 1.82071000e+09
3470.000000 1.78698000e+09
3490.000000 1.75069000e+09
3510.000000 1.71998000e+09
3530.000000 1.69380000e+09
3550.000000 1.65982000e+09
3570.000000 1.63545000e+09
3590.000000 1.58726000e+09
3610.000000 1.56307000e+09
3630.000000 1.53312000e+09
3640.000000 1.53073000e+09
3650.000000 1.49547000e+09
3670.000000 1.47678000e+09
3690.000000 1.44933000e+09
3710.000000 1.39491000e+09
3730.000000 1.34568000e+09
3750.000000 1.34993000e+09
3770.000000 1.32025000e+09
3790.000000 1.36950000e+09
3810.000000 1.41252000e+09
3830.000000 1.25031000e+09
3850.000000 1.42874000e+09
3870.000000 1.41730000e+09
3890.000000 1.17676000e+09
3910.000000 1.40960000e+09
3930.000000 1.37394000e+09
3950.000000 1.34751000e+09
3970.000000 1.09047000e+09
3990.000000 1.30174000e+09
4010.000000 1.29659000e+09
4030.000000 1.22644000e+09
4050.000000 1.25687000e+09
4070.000000 1.19965000e+09
4090.000000 1.11532000e+09
4110.000000 1.00206000e+09
4130.000000 1.14358000e+09
4150.000000 1.13626000e+09
4170.000000 1.13076000e+09
4190.000000 1.11377000e+09
4210.000000 1.10176000e+09
4230.000000 1.07912000e+09
4250.000000 1.04915000e+09
4270.000000 1.02166000e+09
4290.000000 1.00749000e+09
4310.000000 9.76883000e+08
4330.000000 8.98075000e+08
4350.000000 8.27521000e+08
4370.000000 9.28897000e+08
4390.000000 9.15370000e+08
4410.000000 9.13905000e+08
4430.000000 9.06670000e+08
4450.000000 8.90187000e+08
4470.000000 8.45868000e+08
4490.000000 8.62269000e+08
4510.000000 8.53249000e+08
4530.000000 8.40352000e+08
4550.000000 8.26375000e+08
4570.000000 8.12917000e+08
4590.000000 7.98409000e+08
4610.000000 7.80967000e+08
4630.000000 7.68189000e+08
4650.000000 7.40845000e+08
4670.000000 7.45533000e+08
4690.000000 7.36996000e+08
4710.000000 7.11153000e+08
4730.000000 7.14632000e+08
4750.000000 7.02516000e+08
4770.000000 6.99286000e+08
4790.000000 6.87400000e+08
4810.000000 6.73147000e+08
4830.000000 6.58331000e+08
4850.000000 6.13626000e+08
4870.000000 5.52540000e+08
4890.000000 6.29481000e+08
4910.000000 6.23879000e+08
4930.000000 6.02072000e+08
4950.000000 6.04551000e+08
4970.000000 6.00457000e+08
4990.000000 5.90812000e+08
5010.000000 5.68229000e+08
5030.000000 5.72459000e+08
5050.000000 5.60710000e+08
5070.000000 5.57380000e+08
5090.000000 5.48268000e+08
5110.000000 5.39714000e+08
5130.000000 5.29516000e+08
5150.000000 5.22641000e+08
5170.000000 5.16971000e+08
5190.000000 5.10421000e+08
5210.000000 5.02887000e+08
5230.000000 4.95922000e+08
5250.000000 4.88925000e+08
5270.000000 4.81341000e+08
5290.000000 4.75447000e+08
5310.000000 4.68599000e+08
5330.000000 4.62370000e+08
5350.000000 4.55616000e+08
5370.000000 4.49812000e+08
5390.000000 4.43212000e+08
5410.000000 4.37276000e+08
5430.000000 4.31506000e+08
5450.000000 4.25389000e+08
5470.000000 4.19653000e+08
5490.000000 4.13989000e+08
5510.000000 4.08941000e+08
5530.000000 4.02847000e+08
5550.000000 3.98127000e+08
5570.000000 3.92650000e+08
5590.000000 3.87543000e+08
5610.000000 3.82378000e+08
5630.000000 3.77491000e+08
5650.000000 3.71732000e+08
5670.000000 3.65575000e+08
5690.000000 3.59239000e+08
5710.000000 3.56877000e+08
5730.000000 3.52738000e+08
5750.000000 3.47121000e+08
5770.000000 3.44176000e+08
5790.000000 3.39453000e+08
5810.000000 3.35234000e+08
5830.000000 3.30234000e+08
5850.000000 3.26526000e+08
5870.000000 3.13219000e+08
5890.000000 3.16025000e+08
5910.000000 3.13620000e+08
5930.000000 3.09409000e+08
5950.000000 3.05449000e+08
5970.000000 3.03078000e+08
5990.000000 2.98212000e+08
6010.000000 2.95229000e+08
6030.000000 2.91119000e+08
6050.000000 2.87828000e+08
6070.000000 2.84636000e+08
6090.000000 2.81216000e+08
6110.000000 2.77733000e+08
6130.000000 2.74500000e+08
6150.000000 2.70197000e+08
6170.000000 2.67291000e+08
6190.000000 2.64455000e+08
6210.000000 2.61475000e+08
6230.000000 2.58420000e+08
6250.000000 2.54946000e+08
6270.000000 2.52058000e+08
6290.000000 2.49229000e+08
6310.000000 2.46128000e+08
6330.000000 2.43428000e+08
6350.000000 2.40197000e+08
6370.000000 2.37735000e+08
6390.000000 2.34856000e+08
6410.000000 2.32136000e+08
6430.000000 2.29546000e+08
6450.000000 2.26821000e+08
6470.000000 2.23531000e+08
6490.000000 2.21136000e+08
6510.000000 2.18739000e+08
6530.000000 2.15263000e+08
6550.000000 2.06399000e+08
6570.000000 1.83604000e+08
6590.000000 2.06035000e+08
6610.000000 2.06152000e+08
6630.000000 2.04405000e+08
6650.000000 2.02036000e+08
6670.000000 1.97913000e+08
6690.000000 1.95788000e+08
6710.000000 1.95493000e+08
6730.000000 1.92894000e+08
6750.000000 1.91232000e+08
6770.000000 1.89150000e+08
6790.000000 1.85962000e+08
6810.000000 1.84790000e+08
6830.000000 1.82740000e+08
6850.000000 1.80904000e+08
6870.000000 1.78910000e+08
6890.000000 1.76746000e+08
6910.000000 1.74644000e+08
6930.000000 1.73166000e+08
6950.000000 1.71313000e+08
6970.000000 1.69471000e+08
6990.000000 1.67623000e+08
7010.000000 1.65825000e+08
7030.000000 1.63999000e+08
7050.000000 1.62281000e+08
7070.000000 1.58071000e+08
7090.000000 1.58874000e+08
7110.000000 1.56647000e+08
7130.000000 1.55058000e+08
7150.000000 1.53897000e+08
7170.000000 1.52271000e+08
7190.000000 1.50703000e+08
7210.000000 1.49129000e+08
7230.000000 1.45869000e+08
7250.000000 1.45782000e+08
7270.000000 1.44511000e+08
7290.000000 1.41897000e+08
7310.000000 1.41516000e+08
7330.000000 1.40037000e+08
7350.000000 1.38641000e+08
7370.000000 1.37245000e+08
7390.000000 1.35841000e+08
7410.000000 1.34457000e+08
7430.000000 1.33079000e+08
7450.000000 1.31741000e+08
7470.000000 1.29943000e+08
7490.000000 1.29021000e+08
7510.000000 1.27740000e+08
7530.000000 1.26425000e+08
7550.000000 1.25260000e+08
7570.000000 1.24014000e+08
7590.000000 1.22766000e+08
7610.000000 1.21393000e+08
7630.000000 1.20324000e+08
7650.000000 1.19142000e+08
7670.000000 1.17984000e+08
7690.000000 1.16804000e+08
7710.000000 1.15647000e+08
7730.000000 1.14482000e+08
7750.000000 1.13428000e+08
7770.000000 1.12152000e+08
7790.000000 1.11242000e+08
7810.000000 1.10111000e+08
7830.000000 1.09100000e+08
7850.000000 1.08105000e+08
7870.000000 1.06918000e+08
7890.000000 1.05759000e+08
7910.000000 1.04936000e+08
7930.000000 1.03910000e+08
7950.000000 1.02953000e+08
7970.000000 1.01921000e+08
7990.000000 1.00974000e+08
8010.000000 9.99600000e+07
8030.000000 9.89777000e+07
8050.000000 9.81028000e+07
8070.000000 9.72180000e+07
8090.000000 9.61566000e+07
8110.000000 9.49154000e+07
8130.000000 9.45231000e+07
8150.000000 9.35776000e+07
8170.000000 9.28322000e+07
8190.000000 9.15762000e+07
8210.000000 9.06443000e+07
8230.000000 8.97538000e+07
8250.000000 8.92748000e+07
8270.000000 8.77419000e+07
8290.000000 8.75657000e+07
8310.000000 8.68501000e+07
8330.000000 8.60373000e+07
8350.000000 8.48854000e+07
8370.000000 8.43189000e+07
8390.000000 8.37300000e+07
8410.000000 8.29274000e+07
8430.000000 8.21845000e+07
8450.000000 8.08726000e+07
8470.000000 8.06855000e+07
8490.000000 7.97831000e+07
8510.000000 7.90548000e+07
8530.000000 7.83532000e+07
8550.000000 7.72913000e+07
8570.000000 7.74696000e+07
8590.000000 7.51232000e+07
8610.000000 7.50236000e+07
8630.000000 7.58599000e+07
8650.000000 7.39537000e+07
8670.000000 7.10820000e+07
8690.000000 7.38232000e+07
8710.000000 7.39067000e+07
8730.000000 7.18482000e+07
8750.000000 6.68309000e+07
8770.000000 6.98082000e+07
8790.000000 7.16314000e+07
8810.000000 7.13550000e+07
8830.000000 7.02784000e+07
8850.000000 6.62863000e+07
8870.000000 6.23630000e+07
8890.000000 6.77933000e+07
8910.000000 6.83862000e+07
8930.000000 6.79668000e+07
8950.000000 6.75599000e+07
8970.000000 6.67908000e+07
8990.000000 6.47832000e+07
9010.000000 5.84259000e+07
9030.000000 6.07454000e+07
9050.000000 6.40006000e+07
9070.000000 6.35126000e+07
9090.000000 6.35298000e+07
9110.000000 6.33102000e+07
9130.000000 6.28523000e+07
9150.000000 6.22359000e+07
9170.000000 6.14585000e+07
9190.000000 6.07184000e+07
9210.000000 5.79368000e+07
9230.000000 5.17073000e+07
9250.000000 5.69216000e+07
9270.000000 5.85176000e+07
9290.000000 5.85496000e+07
9310.000000 5.79550000e+07
9330.000000 5.76505000e+07
9350.000000 5.72921000e+07
9370.000000 5.68676000e+07
9390.000000 5.64162000e+07
9410.000000 5.59214000e+07
9430.000000 5.54811000e+07
9450.000000 5.50018000e+07
9470.000000 5.41816000e+07
9490.000000 5.39075000e+07
9510.000000 5.27062000e+07
9530.000000 5.02826000e+07
9550.000000 4.51774000e+07
9570.000000 5.05090000e+07
9590.000000 5.15438000e+07
9610.000000 5.12479000e+07
9630.000000 5.07753000e+07
9650.000000 5.07956000e+07
9670.000000 5.03923000e+07
9690.000000 4.99438000e+07
9710.000000 4.93267000e+07
9730.000000 4.91878000e+07
9750.000000 4.88039000e+07
9770.000000 4.84346000e+07
9790.000000 4.80443000e+07
9810.000000 4.76255000e+07
9830.000000 4.72993000e+07
9850.000000 4.69133000e+07
9870.000000 4.65223000e+07
9890.000000 4.61109000e+07
9910.000000 4.55644000e+07
9930.000000 4.54804000e+07
9950.000000 4.51151000e+07
9970.000000 4.46955000e+07
9990.000000 4.42713000e+07
10025.000000 4.18336000e+07
10075.000000 4.04396000e+07
10125.000000 4.19300000e+07
10175.000000 4.14025000e+07
10225.000000 4.06058000e+07
10275.000000 3.98655000e+07
10325.000000 3.89679000e+07
10375.000000 3.84042000e+07
10425.000000 3.76970000e+07
10475.000000 3.70049000e+07
10525.000000 3.63209000e+07
10575.000000 3.56683000e+07
10625.000000 3.50231000e+07
10675.000000 3.43288000e+07
10725.000000 3.37769000e+07
10775.000000 3.31721000e+07
10825.000000 3.22395000e+07
10875.000000 3.18609000e+07
10925.000000 2.88479000e+07
10975.000000 3.01010000e+07
11025.000000 3.01205000e+07
11075.000000 2.97939000e+07
11125.000000 2.93054000e+07
11175.000000 2.88036000e+07
11225.000000 2.82961000e+07
11275.000000 2.78155000e+07
11325.000000 2.73184000e+07
11375.000000 2.68831000e+07
11425.000000 2.64188000e+07
11475.000000 2.59894000e+07
11525.000000 2.55574000e+07
11575.000000 2.51166000e+07
11625.000000 2.47075000e+07
11675.000000 2.42833000e+07
11725.000000 2.39067000e+07
11775.000000 2.35109000e+07
11825.000000 2.31282000e+07
11875.000000 2.27551000e+07
11925.000000 2.23867000e+07
11975.000000 2.17835000e+07
12025.000000 2.16707000e+07
12075.000000 2.13257000e+07
12125.000000 2.09844000e+07
12175.000000 2.06518000e+07
12225.000000 2.03254000e+07
12275.000000 2.00064000e+07
12325.000000 1.96909000e+07
12375.000000 1.93830000e+07
12425.000000 1.90836000e+07
12475.000000 1.87772000e+07
12525.000000 1.84492000e+07
12575.000000 1.82034000e+07
12625.000000 1.79260000e+07
12675.000000 1.76601000e+07
12725.000000 1.73708000e+07
12775.000000 1.67863000e+07
12825.000000 1.54651000e+07
12875.000000 1.64757000e+07
12925.000000 1.63530000e+07
12975.000000 1.59980000e+07
13025.000000 1.58739000e+07
13075.000000 1.56478000e+07
