# Kurucz ODFNEW /NOVER, alpha: 0.0 (2003)
# teff = 25000 K (value for the effective temperature for the model. Temperatures are given in K)
# logg = 4 log(cm/s2) (value for Log(G) for the model.)
# lh = 1.25  (l/Hp where l is the  mixing length of the convective element and Hp is the pressure scale height)
# meta = -2.5  (value for the Metallicity for the model.)
# vtur = 2 km/s (Microturbulence velocity)
# alpha = 0  (Alpha)
#
# column 1: WAVELENGTH (ANGSTROM), Wavelength in Angstrom
# column 2: FLUX (ERG/CM2/S/A), Flux in erg/cm2/s/A
147.200000 1.00018000e-13
151.000000 4.91197000e-13
155.200000 2.59802000e-12
158.800000 1.00658000e-11
162.000000 3.18449000e-11
166.000000 1.25934000e-10
170.300000 5.12367000e-10
173.400000 1.34742000e-09
176.800000 3.73738000e-09
180.200000 9.95573000e-09
181.700000 1.51491000e-08
186.100000 4.98296000e-08
191.000000 1.75389000e-07
193.900000 3.57950000e-07
198.400000 1.03690000e-06
201.800000 2.24169000e-06
205.000000 4.51932000e-06
210.500000 1.42920000e-05
216.200000 4.41526000e-05
219.800000 8.72032000e-05
223.000000 1.56596000e-04
226.800000 3.06777000e-04
230.000000 1.36477000e-03
234.000000 2.98853000e-03
240.000000 7.31091000e-03
246.500000 1.83497000e-02
252.400000 4.08463000e-02
256.800000 6.92947000e-02
260.000000 1.06850000e-01
264.000000 1.73154000e-01
268.500000 2.92501000e-01
273.500000 5.12598000e-01
278.500000 8.80888000e-01
284.000000 1.56057000e+00
290.000000 2.83577000e+00
296.000000 5.01741000e+00
301.000000 7.90582000e+00
308.000000 1.42612000e+01
318.000000 3.35880000e+01
328.000000 7.28323000e+01
338.000000 1.50449000e+02
348.000000 2.97140000e+02
357.000000 5.29081000e+02
366.000000 9.14769000e+02
375.000000 1.53430000e+03
385.000000 2.64607000e+03
395.000000 4.42393000e+03
405.000000 7.19512000e+03
414.000000 1.09063000e+04
422.000000 1.55152000e+04
430.000000 2.17419000e+04
441.000000 3.38857000e+04
451.000000 4.96395000e+04
460.000000 6.88617000e+04
470.000000 9.74824000e+04
480.000000 1.35703000e+05
490.000000 1.86105000e+05
500.000000 2.51505000e+05
506.000000 1.52186000e+06
512.000000 4.48292000e+06
520.000000 5.31085000e+06
530.000000 6.94167000e+06
540.000000 7.39493000e+06
550.000000 9.77317000e+06
560.000000 1.12726000e+07
570.000000 1.31931000e+07
580.000000 1.32919000e+07
590.000000 1.67044000e+07
600.000000 1.96778000e+07
610.000000 2.24408000e+07
620.000000 2.52195000e+07
630.000000 2.84479000e+07
640.000000 3.14288000e+07
650.000000 3.54072000e+07
658.000000 3.86619000e+07
665.000000 4.15069000e+07
675.000000 4.52332000e+07
685.000000 4.94547000e+07
695.000000 5.55401000e+07
705.000000 6.03305000e+07
716.000000 6.64833000e+07
726.000000 7.21758000e+07
735.000000 7.81876000e+07
745.000000 8.48655000e+07
755.000000 9.16998000e+07
765.000000 9.86458000e+07
775.000000 1.06278000e+08
785.000000 1.14060000e+08
795.000000 1.21830000e+08
805.000000 1.30164000e+08
815.000000 1.38481000e+08
825.000000 1.47587000e+08
835.000000 1.54566000e+08
845.000000 1.65623000e+08
855.000000 1.74717000e+08
865.000000 1.85141000e+08
875.000000 1.95641000e+08
885.000000 2.06103000e+08
895.000000 2.16596000e+08
905.000000 2.25511000e+08
915.000000 3.59979000e+08
925.000000 2.94286000e+09
935.000000 8.17043000e+09
945.000000 2.06824000e+10
955.000000 2.61431000e+10
965.000000 3.32376000e+10
975.000000 1.53502000e+10
985.000000 3.50429000e+10
995.000000 3.34177000e+10
1005.000000 3.45587000e+10
1015.000000 3.17572000e+10
1025.000000 1.30931000e+10
1035.000000 2.92511000e+10
1045.000000 3.28227000e+10
1055.000000 3.20924000e+10
1065.000000 3.00766000e+10
1075.000000 3.03581000e+10
1085.000000 2.82794000e+10
1095.000000 2.94748000e+10
1105.000000 2.83532000e+10
1115.000000 2.78075000e+10
1125.000000 2.64077000e+10
1135.000000 2.67817000e+10
1145.000000 2.58217000e+10
1155.000000 2.57549000e+10
1165.000000 2.52636000e+10
1175.000000 2.24953000e+10
1185.000000 2.40041000e+10
1195.000000 2.28696000e+10
1205.000000 2.06549000e+10
1215.000000 8.72955000e+09
1225.000000 2.00598000e+10
1235.000000 2.14667000e+10
1245.000000 2.10187000e+10
1255.000000 2.08205000e+10
1265.000000 2.03175000e+10
1275.000000 2.00600000e+10
1285.000000 1.96475000e+10
1295.000000 1.85630000e+10
1305.000000 1.84659000e+10
1315.000000 1.84661000e+10
1325.000000 1.78993000e+10
1335.000000 1.73160000e+10
1345.000000 1.73301000e+10
1355.000000 1.70544000e+10
1365.000000 1.66655000e+10
1375.000000 1.63476000e+10
1385.000000 1.60425000e+10
1395.000000 1.53855000e+10
1405.000000 1.51833000e+10
1415.000000 1.50910000e+10
1425.000000 1.48165000e+10
1435.000000 1.45655000e+10
1442.000000 1.43958000e+10
1447.000000 1.42506000e+10
1455.000000 1.40315000e+10
1465.000000 1.37546000e+10
1475.000000 1.35004000e+10
1485.000000 1.32484000e+10
1495.000000 1.30010000e+10
1505.000000 1.27052000e+10
1512.000000 1.25422000e+10
1517.000000 1.24446000e+10
1525.000000 1.22518000e+10
1535.000000 1.18901000e+10
1545.000000 1.16782000e+10
1555.000000 1.14263000e+10
1565.000000 1.13704000e+10
1575.000000 1.12059000e+10
1585.000000 1.10152000e+10
1595.000000 1.08304000e+10
1605.000000 1.05439000e+10
1615.000000 1.03576000e+10
1625.000000 1.02443000e+10
1635.000000 1.00756000e+10
1645.000000 9.73640000e+09
1655.000000 9.75471000e+09
1665.000000 9.60202000e+09
1672.000000 9.46640000e+09
1677.000000 9.43214000e+09
1685.000000 9.29608000e+09
1695.000000 9.12377000e+09
1705.000000 8.95732000e+09
1715.000000 8.77785000e+09
1725.000000 8.64840000e+09
1735.000000 8.52747000e+09
1745.000000 8.38065000e+09
1755.000000 8.26193000e+09
1765.000000 8.05768000e+09
1775.000000 7.96643000e+09
1785.000000 7.86382000e+09
1795.000000 7.74651000e+09
1805.000000 7.63525000e+09
1815.000000 7.49462000e+09
1825.000000 7.38274000e+09
1835.000000 7.26758000e+09
1845.000000 7.09107000e+09
1855.000000 6.90184000e+09
1865.000000 6.83625000e+09
1875.000000 6.80907000e+09
1885.000000 6.61912000e+09
1895.000000 6.45492000e+09
1905.000000 6.46602000e+09
1915.000000 6.28720000e+09
1925.000000 6.18881000e+09
1935.000000 6.14714000e+09
1945.000000 6.10003000e+09
1955.000000 5.91369000e+09
1967.000000 5.90095000e+09
1976.000000 5.85600000e+09
1984.000000 5.73872000e+09
1995.000000 5.58862000e+09
2005.000000 5.59318000e+09
2015.000000 5.53390000e+09
2025.000000 5.46615000e+09
2035.000000 5.36526000e+09
2045.000000 5.28733000e+09
2055.000000 5.14831000e+09
2065.000000 5.06014000e+09
2074.000000 5.06405000e+09
2078.000000 4.97355000e+09
2085.000000 4.97496000e+09
2095.000000 4.88973000e+09
2105.000000 4.86268000e+09
2115.000000 4.80847000e+09
2125.000000 4.75056000e+09
2135.000000 4.68227000e+09
2145.000000 4.61096000e+09
2155.000000 4.55480000e+09
2165.000000 4.49425000e+09
2175.000000 4.43200000e+09
2185.000000 4.37322000e+09
2195.000000 4.31704000e+09
2205.000000 4.25876000e+09
2215.000000 4.20119000e+09
2225.000000 4.14479000e+09
2235.000000 4.08893000e+09
2245.000000 4.03749000e+09
2255.000000 3.98183000e+09
2265.000000 3.93221000e+09
2275.000000 3.88090000e+09
2285.000000 3.83099000e+09
2295.000000 3.75140000e+09
2305.000000 3.73104000e+09
2315.000000 3.68285000e+09
2325.000000 3.63591000e+09
2335.000000 3.58783000e+09
2345.000000 3.54353000e+09
2355.000000 3.49944000e+09
2365.000000 3.45489000e+09
2375.000000 3.41103000e+09
2385.000000 3.36705000e+09
2395.000000 3.32566000e+09
2405.000000 3.28451000e+09
2415.000000 3.24303000e+09
2425.000000 3.20417000e+09
2435.000000 3.16386000e+09
2445.000000 3.12518000e+09
2455.000000 3.08739000e+09
2465.000000 3.04937000e+09
2475.000000 3.01236000e+09
2485.000000 2.97554000e+09
2495.000000 2.90658000e+09
2505.000000 2.90366000e+09
2513.000000 2.86850000e+09
2518.000000 2.85842000e+09
2525.000000 2.83468000e+09
2535.000000 2.80087000e+09
2545.000000 2.76447000e+09
2555.000000 2.73445000e+09
2565.000000 2.70246000e+09
2575.000000 2.67123000e+09
2585.000000 2.63989000e+09
2595.000000 2.60901000e+09
2605.000000 2.59701000e+09
2615.000000 2.56678000e+09
2625.000000 2.53610000e+09
2635.000000 2.50208000e+09
2645.000000 2.47318000e+09
2655.000000 2.44138000e+09
2665.000000 2.40973000e+09
2675.000000 2.38016000e+09
2685.000000 2.36743000e+09
2695.000000 2.32360000e+09
2705.000000 2.31381000e+09
2715.000000 2.28765000e+09
2725.000000 2.24451000e+09
2735.000000 2.23588000e+09
2745.000000 2.21062000e+09
2755.000000 2.18631000e+09
2765.000000 2.14441000e+09
2775.000000 2.13848000e+09
2785.000000 2.11469000e+09
2795.000000 2.08512000e+09
2805.000000 2.06679000e+09
2815.000000 2.04581000e+09
2825.000000 2.00269000e+09
2835.000000 1.99079000e+09
2845.000000 1.97966000e+09
2855.000000 1.95815000e+09
2865.000000 1.93706000e+09
2875.000000 1.91623000e+09
2885.000000 1.89568000e+09
2895.000000 1.87537000e+09
2910.000000 1.84537000e+09
2930.000000 1.80639000e+09
2950.000000 1.75640000e+09
2970.000000 1.73171000e+09
2990.000000 1.69564000e+09
3010.000000 1.66067000e+09
3030.000000 1.62679000e+09
3050.000000 1.59362000e+09
3070.000000 1.56130000e+09
3090.000000 1.52947000e+09
3110.000000 1.49911000e+09
3130.000000 1.47079000e+09
3150.000000 1.44158000e+09
3170.000000 1.41253000e+09
3190.000000 1.37348000e+09
3210.000000 1.35733000e+09
3230.000000 1.33079000e+09
3250.000000 1.30483000e+09
3270.000000 1.28127000e+09
3290.000000 1.25488000e+09
3310.000000 1.23289000e+09
3330.000000 1.20956000e+09
3350.000000 1.18455000e+09
3370.000000 1.16456000e+09
3390.000000 1.14286000e+09
3410.000000 1.12169000e+09
3430.000000 1.09584000e+09
3450.000000 1.07174000e+09
3470.000000 1.05545000e+09
3490.000000 1.03618000e+09
3510.000000 1.02108000e+09
3530.000000 1.00455000e+09
3550.000000 9.86865000e+08
3570.000000 9.74302000e+08
3590.000000 9.51287000e+08
3610.000000 9.36555000e+08
3630.000000 9.18115000e+08
3640.000000 9.16120000e+08
3650.000000 9.06215000e+08
3670.000000 8.94295000e+08
3690.000000 8.74086000e+08
3710.000000 8.44925000e+08
3730.000000 8.13577000e+08
3750.000000 8.58956000e+08
3770.000000 8.60417000e+08
3790.000000 9.02555000e+08
3810.000000 9.40052000e+08
3830.000000 8.21907000e+08
3850.000000 9.61362000e+08
3870.000000 9.64456000e+08
3890.000000 7.79495000e+08
3910.000000 9.46475000e+08
3930.000000 9.31988000e+08
3950.000000 9.15499000e+08
3970.000000 7.23729000e+08
3990.000000 8.79156000e+08
4010.000000 8.70713000e+08
4030.000000 8.23261000e+08
4050.000000 8.50590000e+08
4070.000000 8.32676000e+08
4090.000000 7.72800000e+08
4110.000000 6.76133000e+08
4130.000000 7.81646000e+08
4150.000000 7.73518000e+08
4170.000000 7.66202000e+08
4190.000000 7.55407000e+08
4210.000000 7.42912000e+08
4230.000000 7.30598000e+08
4250.000000 7.18482000e+08
4270.000000 7.06126000e+08
4290.000000 6.94727000e+08
4310.000000 6.80243000e+08
4330.000000 6.21288000e+08
4350.000000 5.66971000e+08
4370.000000 6.46521000e+08
4390.000000 6.23520000e+08
4410.000000 6.30333000e+08
4430.000000 6.17705000e+08
4450.000000 6.10662000e+08
4470.000000 5.76287000e+08
4490.000000 5.91272000e+08
4510.000000 5.82372000e+08
4530.000000 5.73276000e+08
4550.000000 5.64334000e+08
4570.000000 5.55600000e+08
4590.000000 5.47067000e+08
4610.000000 5.38679000e+08
4630.000000 5.30450000e+08
4650.000000 5.22133000e+08
4670.000000 5.14440000e+08
4690.000000 5.06380000e+08
4710.000000 4.92969000e+08
4730.000000 4.91537000e+08
4750.000000 4.84117000e+08
4770.000000 4.77069000e+08
4790.000000 4.69990000e+08
4810.000000 4.62736000e+08
4830.000000 4.53728000e+08
4850.000000 4.21453000e+08
4870.000000 3.76969000e+08
4890.000000 4.32831000e+08
4910.000000 4.28968000e+08
4930.000000 4.14148000e+08
4950.000000 4.17896000e+08
4970.000000 4.11932000e+08
4990.000000 4.06049000e+08
5010.000000 3.95519000e+08
5030.000000 3.94584000e+08
5050.000000 3.86723000e+08
5070.000000 3.83546000e+08
5090.000000 3.78153000e+08
5110.000000 3.72876000e+08
5130.000000 3.67669000e+08
5150.000000 3.62561000e+08
5170.000000 3.57548000e+08
5190.000000 3.52630000e+08
5210.000000 3.47777000e+08
5230.000000 3.43028000e+08
5250.000000 3.38342000e+08
5270.000000 3.33744000e+08
5290.000000 3.29220000e+08
5310.000000 3.24780000e+08
5330.000000 3.20411000e+08
5350.000000 3.16112000e+08
5370.000000 3.11893000e+08
5390.000000 3.07742000e+08
5410.000000 3.03656000e+08
5430.000000 2.99634000e+08
5450.000000 2.95689000e+08
5470.000000 2.91805000e+08
5490.000000 2.87983000e+08
5510.000000 2.84221000e+08
5530.000000 2.80531000e+08
5550.000000 2.76886000e+08
5570.000000 2.73310000e+08
5590.000000 2.69791000e+08
5610.000000 2.66326000e+08
5630.000000 2.62928000e+08
5650.000000 2.59571000e+08
5670.000000 2.56267000e+08
5690.000000 2.53002000e+08
5710.000000 2.49823000e+08
5730.000000 2.46683000e+08
5750.000000 2.43579000e+08
5770.000000 2.40547000e+08
5790.000000 2.37540000e+08
5810.000000 2.34590000e+08
5830.000000 2.31687000e+08
5850.000000 2.28828000e+08
5870.000000 2.19334000e+08
5890.000000 2.22994000e+08
5910.000000 2.20495000e+08
5930.000000 2.17811000e+08
5950.000000 2.15157000e+08
5970.000000 2.12555000e+08
5990.000000 2.09983000e+08
6010.000000 2.07451000e+08
6030.000000 2.04958000e+08
6050.000000 2.02504000e+08
6070.000000 2.00088000e+08
6090.000000 1.97709000e+08
6110.000000 1.95357000e+08
6130.000000 1.93052000e+08
6150.000000 1.90773000e+08
6170.000000 1.88528000e+08
6190.000000 1.86319000e+08
6210.000000 1.84144000e+08
6230.000000 1.81993000e+08
6250.000000 1.79885000e+08
6270.000000 1.77800000e+08
6290.000000 1.75738000e+08
6310.000000 1.73717000e+08
6330.000000 1.71719000e+08
6350.000000 1.69751000e+08
6370.000000 1.67814000e+08
6390.000000 1.65907000e+08
6410.000000 1.64021000e+08
6430.000000 1.62164000e+08
6450.000000 1.60336000e+08
6470.000000 1.58527000e+08
6490.000000 1.56747000e+08
6510.000000 1.54994000e+08
6530.000000 1.52668000e+08
6550.000000 1.46459000e+08
6570.000000 1.30488000e+08
6590.000000 1.46942000e+08
6610.000000 1.46408000e+08
6630.000000 1.44977000e+08
6650.000000 1.43485000e+08
6670.000000 1.40509000e+08
6690.000000 1.39005000e+08
6710.000000 1.38838000e+08
6730.000000 1.37332000e+08
6750.000000 1.35842000e+08
6770.000000 1.34383000e+08
6790.000000 1.32930000e+08
6810.000000 1.31509000e+08
6830.000000 1.30094000e+08
6850.000000 1.28709000e+08
6870.000000 1.27338000e+08
6890.000000 1.25981000e+08
6910.000000 1.24653000e+08
6930.000000 1.23331000e+08
6950.000000 1.22037000e+08
6970.000000 1.20756000e+08
6990.000000 1.19480000e+08
7010.000000 1.18239000e+08
7030.000000 1.17011000e+08
7050.000000 1.15795000e+08
7070.000000 1.12706000e+08
7090.000000 1.13405000e+08
7110.000000 1.12239000e+08
7130.000000 1.11084000e+08
7150.000000 1.09940000e+08
7170.000000 1.08793000e+08
7190.000000 1.07708000e+08
7210.000000 1.06611000e+08
7230.000000 1.05481000e+08
7250.000000 1.04456000e+08
7270.000000 1.03404000e+08
7290.000000 1.01505000e+08
7310.000000 1.01317000e+08
7330.000000 1.00316000e+08
7350.000000 9.93105000e+07
7370.000000 9.83214000e+07
7390.000000 9.73416000e+07
7410.000000 9.63777000e+07
7430.000000 9.54228000e+07
7450.000000 9.44971000e+07
7470.000000 9.35597000e+07
7490.000000 9.26444000e+07
7510.000000 9.16974000e+07
7530.000000 9.08389000e+07
7550.000000 8.99551000e+07
7570.000000 8.90794000e+07
7590.000000 8.82116000e+07
7610.000000 8.73582000e+07
7630.000000 8.65126000e+07
7650.000000 8.56810000e+07
7670.000000 8.48570000e+07
7690.000000 8.40403000e+07
7710.000000 8.32373000e+07
7730.000000 8.24477000e+07
7750.000000 8.16527000e+07
7770.000000 8.08834000e+07
7790.000000 8.01210000e+07
7810.000000 7.93035000e+07
7830.000000 7.86163000e+07
7850.000000 7.79594000e+07
7870.000000 7.72291000e+07
7890.000000 7.64508000e+07
7910.000000 7.57937000e+07
7930.000000 7.50824000e+07
7950.000000 7.42461000e+07
7970.000000 7.34825000e+07
7990.000000 7.28260000e+07
8010.000000 7.21339000e+07
8030.000000 7.14654000e+07
8050.000000 7.08259000e+07
8070.000000 7.02497000e+07
8090.000000 6.94538000e+07
8110.000000 6.89341000e+07
8130.000000 6.83787000e+07
8150.000000 6.76409000e+07
8170.000000 6.71634000e+07
8190.000000 6.64594000e+07
8210.000000 6.57560000e+07
8230.000000 6.53756000e+07
8250.000000 6.48044000e+07
8270.000000 6.38744000e+07
8290.000000 6.35830000e+07
8310.000000 6.30373000e+07
8330.000000 6.24526000e+07
8350.000000 6.15702000e+07
8370.000000 6.12280000e+07
8390.000000 6.07812000e+07
8410.000000 6.02315000e+07
8430.000000 5.96226000e+07
8450.000000 5.87023000e+07
8470.000000 5.84674000e+07
8490.000000 5.79519000e+07
8510.000000 5.72480000e+07
8530.000000 5.70265000e+07
8550.000000 5.55799000e+07
8570.000000 5.67621000e+07
8590.000000 5.42772000e+07
8610.000000 5.41117000e+07
8630.000000 5.58339000e+07
8650.000000 5.41209000e+07
8670.000000 5.05638000e+07
8690.000000 5.44620000e+07
8710.000000 5.47435000e+07
8730.000000 5.29457000e+07
8750.000000 4.77765000e+07
8770.000000 5.13569000e+07
8790.000000 5.31469000e+07
8810.000000 5.28574000e+07
8830.000000 5.21882000e+07
8850.000000 4.87972000e+07
8870.000000 4.51495000e+07
8890.000000 5.03087000e+07
8910.000000 5.06905000e+07
8930.000000 5.03362000e+07
8950.000000 5.00691000e+07
8970.000000 4.95511000e+07
8990.000000 4.80863000e+07
9010.000000 4.27238000e+07
9030.000000 4.49404000e+07
9050.000000 4.75658000e+07
9070.000000 4.71090000e+07
9090.000000 4.71116000e+07
9110.000000 4.69595000e+07
9130.000000 4.66139000e+07
9150.000000 4.62213000e+07
9170.000000 4.55943000e+07
9190.000000 4.51329000e+07
9210.000000 4.30660000e+07
9230.000000 3.80750000e+07
9250.000000 4.24746000e+07
9270.000000 4.36229000e+07
9290.000000 4.35143000e+07
9310.000000 4.30390000e+07
9330.000000 4.29403000e+07
9350.000000 4.25565000e+07
9370.000000 4.22531000e+07
9390.000000 4.19135000e+07
9410.000000 4.15764000e+07
9430.000000 4.12439000e+07
9450.000000 4.09139000e+07
9470.000000 4.02833000e+07
9490.000000 4.01376000e+07
9510.000000 3.92545000e+07
9530.000000 3.74880000e+07
9550.000000 3.34722000e+07
9570.000000 3.77511000e+07
9590.000000 3.84115000e+07
9610.000000 3.81685000e+07
9630.000000 3.78590000e+07
9650.000000 3.77921000e+07
9670.000000 3.74969000e+07
9690.000000 3.71634000e+07
9710.000000 3.67939000e+07
9730.000000 3.66276000e+07
9750.000000 3.63436000e+07
9770.000000 3.60623000e+07
9790.000000 3.57834000e+07
9810.000000 3.55073000e+07
9830.000000 3.52343000e+07
9850.000000 3.49636000e+07
9870.000000 3.46952000e+07
9890.000000 3.44299000e+07
9910.000000 3.41626000e+07
9930.000000 3.39063000e+07
9950.000000 3.36479000e+07
9970.000000 3.33918000e+07
9990.000000 3.30446000e+07
10025.000000 3.13051000e+07
10075.000000 3.02703000e+07
10125.000000 3.13652000e+07
10175.000000 3.09078000e+07
10225.000000 3.03223000e+07
10275.000000 2.97803000e+07
10325.000000 2.91172000e+07
10375.000000 2.87036000e+07
10425.000000 2.81835000e+07
10475.000000 2.76751000e+07
10525.000000 2.71781000e+07
10575.000000 2.66923000e+07
10625.000000 2.62171000e+07
10675.000000 2.56967000e+07
10725.000000 2.52985000e+07
10775.000000 2.48539000e+07
10825.000000 2.41397000e+07
10875.000000 2.39164000e+07
10925.000000 2.17019000e+07
10975.000000 2.26606000e+07
11025.000000 2.25971000e+07
11075.000000 2.23656000e+07
11125.000000 2.20019000e+07
11175.000000 2.16286000e+07
11225.000000 2.12501000e+07
11275.000000 2.09056000e+07
11325.000000 2.05555000e+07
11375.000000 2.02127000e+07
11425.000000 1.98768000e+07
11475.000000 1.95481000e+07
11525.000000 1.92262000e+07
11575.000000 1.89106000e+07
11625.000000 1.86017000e+07
11675.000000 1.82992000e+07
11725.000000 1.80026000e+07
11775.000000 1.77120000e+07
11825.000000 1.74273000e+07
11875.000000 1.71484000e+07
11925.000000 1.68751000e+07
11975.000000 1.64399000e+07
12025.000000 1.63444000e+07
12075.000000 1.60869000e+07
12125.000000 1.58343000e+07
12175.000000 1.55868000e+07
12225.000000 1.53441000e+07
12275.000000 1.51061000e+07
12325.000000 1.48729000e+07
12375.000000 1.46440000e+07
12425.000000 1.44195000e+07
12475.000000 1.41993000e+07
12525.000000 1.39524000e+07
12575.000000 1.37714000e+07
12625.000000 1.35635000e+07
12675.000000 1.33594000e+07
12725.000000 1.31511000e+07
12775.000000 1.27287000e+07
12825.000000 1.17705000e+07
12875.000000 1.24949000e+07
12925.000000 1.23939000e+07
12975.000000 1.21218000e+07
13025.000000 1.20338000e+07
13075.000000 1.18579000e+07
