# Kurucz ODFNEW /NOVER, alpha: 0.0 (2003)
# teff = 18000 K (value for the effective temperature for the model. Temperatures are given in K)
# logg = 2.5 log(cm/s2) (value for Log(G) for the model.)
# lh = 1.25  (l/Hp where l is the  mixing length of the convective element and Hp is the pressure scale height)
# meta = -1.5  (value for the Metallicity for the model.)
# vtur = 2 km/s (Microturbulence velocity)
# alpha = 0  (Alpha)
#
# column 1: WAVELENGTH (ANGSTROM), Wavelength in Angstrom
# column 2: FLUX (ERG/CM2/S/A), Flux in erg/cm2/s/A
147.200000 6.95289000e-23
151.000000 8.47472000e-22
155.200000 7.65813000e-21
158.800000 4.54765000e-20
162.000000 2.07170000e-19
166.000000 1.26951000e-18
170.300000 8.10196000e-18
173.400000 2.90984000e-17
176.800000 1.12254000e-16
180.200000 4.11279000e-16
181.700000 7.17985000e-16
186.100000 3.49141000e-15
191.000000 1.86150000e-14
193.900000 4.81257000e-14
198.400000 1.98593000e-13
201.800000 5.55049000e-13
205.000000 1.41432000e-12
210.500000 6.59132000e-12
216.200000 2.98233000e-11
219.800000 7.42159000e-11
223.000000 1.62664000e-10
226.800000 4.00853000e-10
230.000000 1.48940000e-09
234.000000 3.88639000e-09
240.000000 1.34151000e-08
246.500000 4.78316000e-08
252.400000 1.43807000e-07
256.800000 3.11147000e-07
260.000000 5.46977000e-07
264.000000 1.07031000e-06
268.500000 2.21996000e-06
273.500000 4.84919000e-06
278.500000 1.03010000e-05
284.000000 2.28492000e-05
290.000000 5.25450000e-05
296.000000 1.16567000e-04
301.000000 2.20954000e-04
308.000000 5.17018000e-04
318.000000 1.65967000e-03
328.000000 4.90136000e-03
338.000000 1.35432000e-02
348.000000 3.51675000e-02
357.000000 7.90946000e-02
366.000000 1.70622000e-01
375.000000 3.53355000e-01
385.000000 7.60804000e-01
395.000000 1.57054000e+00
405.000000 3.12087000e+00
414.000000 5.61656000e+00
422.000000 9.25196000e+00
430.000000 1.49282000e+01
441.000000 2.80027000e+01
451.000000 4.81559000e+01
460.000000 7.67221000e+01
470.000000 1.25842000e+02
480.000000 2.01740000e+02
490.000000 3.16745000e+02
500.000000 4.87397000e+02
506.000000 3.58828000e+03
512.000000 1.15509000e+04
520.000000 1.56153000e+04
530.000000 2.48582000e+04
540.000000 2.81501000e+04
550.000000 4.58103000e+04
560.000000 5.90213000e+04
570.000000 7.73240000e+04
580.000000 7.79552000e+04
590.000000 1.11276000e+05
600.000000 1.54742000e+05
610.000000 1.96029000e+05
620.000000 2.39396000e+05
630.000000 2.94625000e+05
640.000000 3.47573000e+05
650.000000 4.20519000e+05
658.000000 4.98029000e+05
665.000000 5.57915000e+05
675.000000 6.46242000e+05
685.000000 7.59994000e+05
695.000000 9.17519000e+05
705.000000 1.06146000e+06
716.000000 1.25198000e+06
726.000000 1.43151000e+06
735.000000 1.62540000e+06
745.000000 1.88519000e+06
755.000000 2.15354000e+06
765.000000 2.44252000e+06
775.000000 2.77762000e+06
785.000000 3.13776000e+06
795.000000 3.50404000e+06
805.000000 3.91743000e+06
815.000000 4.33126000e+06
825.000000 4.85501000e+06
835.000000 5.28407000e+06
845.000000 5.87867000e+06
855.000000 6.45572000e+06
865.000000 7.13607000e+06
875.000000 7.88075000e+06
885.000000 8.66854000e+06
895.000000 9.44475000e+06
905.000000 1.00803000e+07
915.000000 2.39089000e+07
925.000000 5.67719000e+08
935.000000 1.58836000e+09
945.000000 2.97389000e+09
955.000000 3.51006000e+09
965.000000 4.04423000e+09
975.000000 1.49083000e+09
985.000000 4.06540000e+09
995.000000 3.90038000e+09
1005.000000 4.23269000e+09
1015.000000 4.14751000e+09
1025.000000 2.27786000e+09
1035.000000 3.37589000e+09
1045.000000 4.68072000e+09
1055.000000 4.48105000e+09
1065.000000 4.05186000e+09
1075.000000 4.49223000e+09
1085.000000 4.12819000e+09
1095.000000 4.56622000e+09
1105.000000 4.27291000e+09
1115.000000 4.32266000e+09
1125.000000 3.99940000e+09
1135.000000 4.42901000e+09
1145.000000 4.21463000e+09
1155.000000 4.36083000e+09
1165.000000 4.43562000e+09
1175.000000 3.73257000e+09
1185.000000 4.41352000e+09
1195.000000 3.98039000e+09
1205.000000 2.95644000e+09
1215.000000 1.53925000e+09
1225.000000 3.67987000e+09
1235.000000 4.12513000e+09
1245.000000 4.21395000e+09
1255.000000 4.10114000e+09
1265.000000 4.01961000e+09
1275.000000 4.14405000e+09
1285.000000 4.07912000e+09
1295.000000 3.51384000e+09
1305.000000 3.61505000e+09
1315.000000 3.99381000e+09
1325.000000 3.85715000e+09
1335.000000 3.64253000e+09
1345.000000 3.81993000e+09
1355.000000 3.84111000e+09
1365.000000 3.70295000e+09
1375.000000 3.65944000e+09
1385.000000 3.67278000e+09
1395.000000 3.40523000e+09
1405.000000 3.50159000e+09
1415.000000 3.54203000e+09
1425.000000 3.50677000e+09
1435.000000 3.52777000e+09
1442.000000 3.54288000e+09
1447.000000 3.50063000e+09
1455.000000 3.45263000e+09
1465.000000 3.37845000e+09
1475.000000 3.34769000e+09
1485.000000 3.30480000e+09
1495.000000 3.26327000e+09
1505.000000 3.17248000e+09
1512.000000 3.03952000e+09
1517.000000 3.09285000e+09
1525.000000 3.08544000e+09
1535.000000 2.92081000e+09
1545.000000 2.97766000e+09
1555.000000 2.86579000e+09
1565.000000 2.92804000e+09
1575.000000 2.95871000e+09
1585.000000 2.92869000e+09
1595.000000 2.93043000e+09
1605.000000 2.84153000e+09
1615.000000 2.81252000e+09
1625.000000 2.79498000e+09
1635.000000 2.82023000e+09
1645.000000 2.78465000e+09
1655.000000 2.73790000e+09
1665.000000 2.76667000e+09
1672.000000 2.68911000e+09
1677.000000 2.74517000e+09
1685.000000 2.71823000e+09
1695.000000 2.64941000e+09
1705.000000 2.58201000e+09
1715.000000 2.50971000e+09
1725.000000 2.49653000e+09
1735.000000 2.51138000e+09
1745.000000 2.46672000e+09
1755.000000 2.48908000e+09
1765.000000 2.37836000e+09
1775.000000 2.37591000e+09
1785.000000 2.37514000e+09
1795.000000 2.38781000e+09
1805.000000 2.37738000e+09
1815.000000 2.28058000e+09
1825.000000 2.29920000e+09
1835.000000 2.26593000e+09
1845.000000 2.14759000e+09
1855.000000 2.09723000e+09
1865.000000 2.12203000e+09
1875.000000 2.17221000e+09
1885.000000 2.03133000e+09
1895.000000 1.94039000e+09
1905.000000 2.03707000e+09
1915.000000 1.96109000e+09
1925.000000 1.91688000e+09
1935.000000 1.96453000e+09
1945.000000 1.98252000e+09
1955.000000 1.86570000e+09
1967.000000 1.93871000e+09
1976.000000 1.97879000e+09
1984.000000 1.88984000e+09
1995.000000 1.84265000e+09
2005.000000 1.87023000e+09
2015.000000 1.87315000e+09
2025.000000 1.88979000e+09
2035.000000 1.80813000e+09
2045.000000 1.80121000e+09
2055.000000 1.75509000e+09
2065.000000 1.76516000e+09
2074.000000 1.81442000e+09
2078.000000 1.73093000e+09
2085.000000 1.74931000e+09
2095.000000 1.69231000e+09
2105.000000 1.71351000e+09
2115.000000 1.70231000e+09
2125.000000 1.71853000e+09
2135.000000 1.69090000e+09
2145.000000 1.63906000e+09
2155.000000 1.66226000e+09
2165.000000 1.64445000e+09
2175.000000 1.62482000e+09
2185.000000 1.60675000e+09
2195.000000 1.60363000e+09
2205.000000 1.58331000e+09
2215.000000 1.56498000e+09
2225.000000 1.53816000e+09
2235.000000 1.52932000e+09
2245.000000 1.52373000e+09
2255.000000 1.49558000e+09
2265.000000 1.49400000e+09
2275.000000 1.47726000e+09
2285.000000 1.47092000e+09
2295.000000 1.43338000e+09
2305.000000 1.43714000e+09
2315.000000 1.41294000e+09
2325.000000 1.40207000e+09
2335.000000 1.37267000e+09
2345.000000 1.35352000e+09
2355.000000 1.36148000e+09
2365.000000 1.33652000e+09
2375.000000 1.32856000e+09
2385.000000 1.30678000e+09
2395.000000 1.30193000e+09
2405.000000 1.28754000e+09
2415.000000 1.26999000e+09
2425.000000 1.27415000e+09
2435.000000 1.25277000e+09
2445.000000 1.24475000e+09
2455.000000 1.23957000e+09
2465.000000 1.22085000e+09
2475.000000 1.21113000e+09
2485.000000 1.19908000e+09
2495.000000 1.16698000e+09
2505.000000 1.17725000e+09
2513.000000 1.14937000e+09
2518.000000 1.16020000e+09
2525.000000 1.14810000e+09
2535.000000 1.13156000e+09
2545.000000 1.11791000e+09
2555.000000 1.12251000e+09
2565.000000 1.10490000e+09
2575.000000 1.10349000e+09
2585.000000 1.09187000e+09
2595.000000 1.08090000e+09
2605.000000 1.07672000e+09
2615.000000 1.06641000e+09
2625.000000 1.05600000e+09
2635.000000 1.04323000e+09
2645.000000 1.04510000e+09
2655.000000 1.03553000e+09
2665.000000 1.02157000e+09
2675.000000 1.01469000e+09
2685.000000 1.01033000e+09
2695.000000 9.92471000e+08
2705.000000 9.90398000e+08
2715.000000 9.79845000e+08
2725.000000 9.63585000e+08
2735.000000 9.63049000e+08
2745.000000 9.40446000e+08
2755.000000 9.35566000e+08
2765.000000 9.27678000e+08
2775.000000 9.29468000e+08
2785.000000 9.19356000e+08
2795.000000 8.93934000e+08
2805.000000 8.97052000e+08
2815.000000 8.96442000e+08
2825.000000 8.81657000e+08
2835.000000 8.69074000e+08
2845.000000 8.70515000e+08
2855.000000 8.63318000e+08
2865.000000 8.56981000e+08
2875.000000 8.48751000e+08
2885.000000 8.41610000e+08
2895.000000 8.34007000e+08
2910.000000 8.22851000e+08
2930.000000 8.07136000e+08
2950.000000 7.89130000e+08
2970.000000 7.80160000e+08
2990.000000 7.65587000e+08
3010.000000 7.52619000e+08
3030.000000 7.40870000e+08
3050.000000 7.28067000e+08
3070.000000 7.15614000e+08
3090.000000 7.02592000e+08
3110.000000 6.91326000e+08
3130.000000 6.80327000e+08
3150.000000 6.68716000e+08
3170.000000 6.57081000e+08
3190.000000 6.41759000e+08
3210.000000 6.35505000e+08
3230.000000 6.24879000e+08
3250.000000 6.14644000e+08
3270.000000 6.05070000e+08
3290.000000 5.94429000e+08
3310.000000 5.85617000e+08
3330.000000 5.76124000e+08
3350.000000 5.65841000e+08
3370.000000 5.57685000e+08
3390.000000 5.48764000e+08
3410.000000 5.40013000e+08
3430.000000 5.29219000e+08
3450.000000 5.19239000e+08
3470.000000 5.12614000e+08
3490.000000 5.05673000e+08
3510.000000 4.99896000e+08
3530.000000 4.92343000e+08
3550.000000 4.84749000e+08
3570.000000 4.78741000e+08
3590.000000 4.69447000e+08
3610.000000 4.62323000e+08
3630.000000 4.55155000e+08
3640.000000 4.53823000e+08
3650.000000 4.46335000e+08
3670.000000 4.39526000e+08
3690.000000 4.24122000e+08
3710.000000 4.43237000e+08
3730.000000 4.59834000e+08
3750.000000 5.09941000e+08
3770.000000 5.07938000e+08
3790.000000 5.12977000e+08
3810.000000 5.29639000e+08
3830.000000 4.80026000e+08
3850.000000 5.29696000e+08
3870.000000 5.19305000e+08
3890.000000 4.63465000e+08
3910.000000 5.10139000e+08
3930.000000 4.97471000e+08
3950.000000 4.94620000e+08
3970.000000 4.32067000e+08
3990.000000 4.79025000e+08
4010.000000 4.70206000e+08
4030.000000 4.55112000e+08
4050.000000 4.58943000e+08
4070.000000 4.51237000e+08
4090.000000 4.38096000e+08
4110.000000 3.96821000e+08
4130.000000 4.27840000e+08
4150.000000 4.22392000e+08
4170.000000 4.18112000e+08
4190.000000 4.13100000e+08
4210.000000 4.07186000e+08
4230.000000 4.01113000e+08
4250.000000 3.95115000e+08
4270.000000 3.87889000e+08
4290.000000 3.83687000e+08
4310.000000 3.77944000e+08
4330.000000 3.62967000e+08
4350.000000 3.35567000e+08
4370.000000 3.61778000e+08
4390.000000 3.52644000e+08
4410.000000 3.51661000e+08
4430.000000 3.45537000e+08
4450.000000 3.42000000e+08
4470.000000 3.30066000e+08
4490.000000 3.31954000e+08
4510.000000 3.27849000e+08
4530.000000 3.23162000e+08
4550.000000 3.18598000e+08
4570.000000 3.14120000e+08
4590.000000 3.09887000e+08
4610.000000 3.05590000e+08
4630.000000 3.01357000e+08
4650.000000 2.96819000e+08
4670.000000 2.93176000e+08
4690.000000 2.89328000e+08
4710.000000 2.82393000e+08
4730.000000 2.80936000e+08
4750.000000 2.76855000e+08
4770.000000 2.74025000e+08
4790.000000 2.70330000e+08
4810.000000 2.66605000e+08
4830.000000 2.63045000e+08
4850.000000 2.54490000e+08
4870.000000 2.32167000e+08
4890.000000 2.52612000e+08
4910.000000 2.49495000e+08
4930.000000 2.43073000e+08
4950.000000 2.42989000e+08
4970.000000 2.39878000e+08
4990.000000 2.36733000e+08
5010.000000 2.31245000e+08
5030.000000 2.30616000e+08
5050.000000 2.26222000e+08
5070.000000 2.24734000e+08
5090.000000 2.21866000e+08
5110.000000 2.19022000e+08
5130.000000 2.16144000e+08
5150.000000 2.13403000e+08
5170.000000 2.10811000e+08
5190.000000 2.08140000e+08
5210.000000 2.05393000e+08
5230.000000 2.02944000e+08
5250.000000 2.00417000e+08
5270.000000 1.97908000e+08
5290.000000 1.95459000e+08
5310.000000 1.93027000e+08
5330.000000 1.90640000e+08
5350.000000 1.88243000e+08
5370.000000 1.85994000e+08
5390.000000 1.83709000e+08
5410.000000 1.81465000e+08
5430.000000 1.79198000e+08
5450.000000 1.77061000e+08
5470.000000 1.74925000e+08
5490.000000 1.72827000e+08
5510.000000 1.70744000e+08
5530.000000 1.68686000e+08
5550.000000 1.66677000e+08
5570.000000 1.64681000e+08
5590.000000 1.62733000e+08
5610.000000 1.60773000e+08
5630.000000 1.58907000e+08
5650.000000 1.56923000e+08
5670.000000 1.55080000e+08
5690.000000 1.53247000e+08
5710.000000 1.51551000e+08
5730.000000 1.49783000e+08
5750.000000 1.48025000e+08
5770.000000 1.46333000e+08
5790.000000 1.44639000e+08
5810.000000 1.42975000e+08
5830.000000 1.41320000e+08
5850.000000 1.39706000e+08
5870.000000 1.35246000e+08
5890.000000 1.36435000e+08
5910.000000 1.34963000e+08
5930.000000 1.33433000e+08
5950.000000 1.31899000e+08
5970.000000 1.30446000e+08
5990.000000 1.28957000e+08
6010.000000 1.27527000e+08
6030.000000 1.26091000e+08
6050.000000 1.24693000e+08
6070.000000 1.23310000e+08
6090.000000 1.21933000e+08
6110.000000 1.20591000e+08
6130.000000 1.19254000e+08
6150.000000 1.17922000e+08
6170.000000 1.16644000e+08
6190.000000 1.15370000e+08
6210.000000 1.14111000e+08
6230.000000 1.12865000e+08
6250.000000 1.11632000e+08
6270.000000 1.10433000e+08
6290.000000 1.09236000e+08
6310.000000 1.08053000e+08
6330.000000 1.06901000e+08
6350.000000 1.05678000e+08
6370.000000 1.04588000e+08
6390.000000 1.03501000e+08
6410.000000 1.02407000e+08
6430.000000 1.01324000e+08
6450.000000 1.00253000e+08
6470.000000 9.91751000e+07
6490.000000 9.81355000e+07
6510.000000 9.71156000e+07
6530.000000 9.60799000e+07
6550.000000 9.38871000e+07
6570.000000 8.51918000e+07
6590.000000 9.27334000e+07
6610.000000 9.21559000e+07
6630.000000 9.12065000e+07
6650.000000 9.03265000e+07
6670.000000 8.88456000e+07
6690.000000 8.79449000e+07
6710.000000 8.75720000e+07
6730.000000 8.66780000e+07
6750.000000 8.58013000e+07
6770.000000 8.49252000e+07
6790.000000 8.40416000e+07
6810.000000 8.32156000e+07
6830.000000 8.23736000e+07
6850.000000 8.15481000e+07
6870.000000 8.07308000e+07
6890.000000 7.99136000e+07
6910.000000 7.91203000e+07
6930.000000 7.83262000e+07
6950.000000 7.75570000e+07
6970.000000 7.67884000e+07
6990.000000 7.60196000e+07
7010.000000 7.52790000e+07
7030.000000 7.45372000e+07
7050.000000 7.38027000e+07
7070.000000 7.20818000e+07
7090.000000 7.23697000e+07
7110.000000 7.16636000e+07
7130.000000 7.09671000e+07
7150.000000 7.02781000e+07
7170.000000 6.95854000e+07
7190.000000 6.89270000e+07
7210.000000 6.82632000e+07
7230.000000 6.74003000e+07
7250.000000 6.69580000e+07
7270.000000 6.63193000e+07
7290.000000 6.52364000e+07
7310.000000 6.50512000e+07
7330.000000 6.44436000e+07
7350.000000 6.38332000e+07
7370.000000 6.32299000e+07
7390.000000 6.26343000e+07
7410.000000 6.20448000e+07
7430.000000 6.14622000e+07
7450.000000 6.08957000e+07
7470.000000 6.03257000e+07
7490.000000 5.97649000e+07
7510.000000 5.91878000e+07
7530.000000 5.86599000e+07
7550.000000 5.81175000e+07
7570.000000 5.75808000e+07
7590.000000 5.70495000e+07
7610.000000 5.65256000e+07
7630.000000 5.60070000e+07
7650.000000 5.54938000e+07
7670.000000 5.49889000e+07
7690.000000 5.44835000e+07
7710.000000 5.39863000e+07
7730.000000 5.35031000e+07
7750.000000 5.30121000e+07
7770.000000 5.25087000e+07
7790.000000 5.20681000e+07
7810.000000 5.15627000e+07
7830.000000 5.11380000e+07
7850.000000 5.07268000e+07
7870.000000 5.02735000e+07
7890.000000 4.97908000e+07
7910.000000 4.93502000e+07
7930.000000 4.88386000e+07
7950.000000 4.83941000e+07
7970.000000 4.79528000e+07
7990.000000 4.75821000e+07
8010.000000 4.71316000e+07
8030.000000 4.67522000e+07
8050.000000 4.63615000e+07
8070.000000 4.59758000e+07
8090.000000 4.54932000e+07
8110.000000 4.51242000e+07
8130.000000 4.48073000e+07
8150.000000 4.43313000e+07
8170.000000 4.40422000e+07
8190.000000 4.36454000e+07
8210.000000 4.30899000e+07
8230.000000 4.28351000e+07
8250.000000 4.24666000e+07
8270.000000 4.19238000e+07
8290.000000 4.16916000e+07
8310.000000 4.13460000e+07
8330.000000 4.09707000e+07
8350.000000 4.04678000e+07
8370.000000 4.00633000e+07
8390.000000 3.97762000e+07
8410.000000 3.93843000e+07
8430.000000 3.91510000e+07
8450.000000 3.87137000e+07
8470.000000 3.79923000e+07
8490.000000 3.87255000e+07
8510.000000 3.72260000e+07
8530.000000 3.83797000e+07
8550.000000 3.61772000e+07
8570.000000 3.83526000e+07
8590.000000 3.64797000e+07
8610.000000 3.60889000e+07
8630.000000 3.78369000e+07
8650.000000 3.70373000e+07
8670.000000 3.40134000e+07
8690.000000 3.71246000e+07
8710.000000 3.69876000e+07
8730.000000 3.61213000e+07
8750.000000 3.28658000e+07
8770.000000 3.54419000e+07
8790.000000 3.58313000e+07
8810.000000 3.54936000e+07
8830.000000 3.52233000e+07
8850.000000 3.38868000e+07
8870.000000 3.14673000e+07
8890.000000 3.42775000e+07
8910.000000 3.41039000e+07
8930.000000 3.37940000e+07
8950.000000 3.35975000e+07
8970.000000 3.33429000e+07
8990.000000 3.27668000e+07
9010.000000 3.00037000e+07
9030.000000 3.14811000e+07
9050.000000 3.22363000e+07
9070.000000 3.18232000e+07
9090.000000 3.16842000e+07
9110.000000 3.15107000e+07
9130.000000 3.12793000e+07
9150.000000 3.10329000e+07
9170.000000 3.07225000e+07
9190.000000 3.05350000e+07
9210.000000 2.97470000e+07
9230.000000 2.70936000e+07
9250.000000 2.94858000e+07
9270.000000 2.95582000e+07
9290.000000 2.93717000e+07
9310.000000 2.90470000e+07
9330.000000 2.89153000e+07
9350.000000 2.86745000e+07
9370.000000 2.84733000e+07
9390.000000 2.82534000e+07
9410.000000 2.80275000e+07
9430.000000 2.78210000e+07
9450.000000 2.76081000e+07
9470.000000 2.72731000e+07
9490.000000 2.71872000e+07
9510.000000 2.67797000e+07
9530.000000 2.61837000e+07
9550.000000 2.39915000e+07
9570.000000 2.61677000e+07
9590.000000 2.61606000e+07
9610.000000 2.59107000e+07
9630.000000 2.56765000e+07
9650.000000 2.55839000e+07
9670.000000 2.53916000e+07
9690.000000 2.51797000e+07
9710.000000 2.49482000e+07
9730.000000 2.48263000e+07
9750.000000 2.46413000e+07
9770.000000 2.44581000e+07
9790.000000 2.42765000e+07
9810.000000 2.40965000e+07
9830.000000 2.39183000e+07
9850.000000 2.37417000e+07
9870.000000 2.35666000e+07
9890.000000 2.33929000e+07
9910.000000 2.32072000e+07
9930.000000 2.30512000e+07
9950.000000 2.28825000e+07
9970.000000 2.27154000e+07
9990.000000 2.25498000e+07
10025.000000 2.18198000e+07
10075.000000 2.11732000e+07
10125.000000 2.14347000e+07
10175.000000 2.10870000e+07
10225.000000 2.07032000e+07
10275.000000 2.03456000e+07
10325.000000 1.99320000e+07
10375.000000 1.96364000e+07
10425.000000 1.92936000e+07
10475.000000 1.89577000e+07
10525.000000 1.86294000e+07
10575.000000 1.83085000e+07
10625.000000 1.79941000e+07
10675.000000 1.76600000e+07
10725.000000 1.73853000e+07
10775.000000 1.70906000e+07
10825.000000 1.66373000e+07
10875.000000 1.65191000e+07
10925.000000 1.54643000e+07
10975.000000 1.58713000e+07
11025.000000 1.56462000e+07
11075.000000 1.54463000e+07
11125.000000 1.51930000e+07
11175.000000 1.49439000e+07
11225.000000 1.46921000e+07
11275.000000 1.44595000e+07
11325.000000 1.42261000e+07
11375.000000 1.39971000e+07
11425.000000 1.37718000e+07
11475.000000 1.35516000e+07
11525.000000 1.33356000e+07
11575.000000 1.31236000e+07
11625.000000 1.29159000e+07
11675.000000 1.27126000e+07
11725.000000 1.25132000e+07
11775.000000 1.23169000e+07
11825.000000 1.21257000e+07
11875.000000 1.19375000e+07
11925.000000 1.17531000e+07
11975.000000 1.15170000e+07
12025.000000 1.13948000e+07
12075.000000 1.12206000e+07
12125.000000 1.10498000e+07
12175.000000 1.08822000e+07
12225.000000 1.07180000e+07
12275.000000 1.05566000e+07
12325.000000 1.03985000e+07
12375.000000 1.02430000e+07
12425.000000 1.00907000e+07
12475.000000 9.94078000e+06
12525.000000 9.77896000e+06
12575.000000 9.65012000e+06
12625.000000 9.50860000e+06
12675.000000 9.36972000e+06
12725.000000 9.23318000e+06
12775.000000 9.02231000e+06
12825.000000 8.56364000e+06
12875.000000 8.82998000e+06
12925.000000 8.71196000e+06
12975.000000 8.55386000e+06
13025.000000 8.46522000e+06
13075.000000 8.34507000e+06
