# Kurucz ODFNEW /NOVER, alpha: 0.0 (2003)
# teff = 8000 K (value for the effective temperature for the model. Temperatures are given in K)
# logg = 3 log(cm/s2) (value for Log(G) for the model.)
# lh = 1.25  (l/Hp where l is the  mixing length of the convective element and Hp is the pressure scale height)
# meta = 0  (value for the Metallicity for the model.)
# vtur = 2 km/s (Microturbulence velocity)
# alpha = 0  (Alpha)
#
# column 1: WAVELENGTH (ANGSTROM), Wavelength in Angstrom
# column 2: FLUX (ERG/CM2/S/A), Flux in erg/cm2/s/A
348.000000 3.02269000e-23
357.000000 2.68593000e-22
366.000000 1.87788000e-21
375.000000 1.18266000e-20
385.000000 8.22794000e-20
395.000000 5.17075000e-19
405.000000 2.95825000e-18
414.000000 9.92312000e-19
422.000000 3.30752000e-18
430.000000 1.05103000e-17
441.000000 4.79084000e-17
451.000000 1.77542000e-16
460.000000 5.47913000e-16
470.000000 1.81577000e-15
480.000000 5.70179000e-15
490.000000 1.70352000e-14
500.000000 4.85017000e-14
506.000000 1.17973000e-13
512.000000 2.40198000e-13
520.000000 5.14799000e-13
530.000000 1.29806000e-12
540.000000 3.09742000e-12
550.000000 7.25201000e-12
560.000000 1.63149000e-11
570.000000 3.55638000e-11
580.000000 7.43716000e-11
590.000000 1.54815000e-10
600.000000 3.10142000e-10
610.000000 6.06574000e-10
620.000000 1.15704000e-09
630.000000 2.15787000e-09
640.000000 3.93874000e-09
650.000000 7.04818000e-09
658.000000 1.10653000e-08
665.000000 1.62380000e-08
675.000000 2.77107000e-08
685.000000 4.64672000e-08
695.000000 7.66367000e-08
705.000000 1.23898000e-07
716.000000 2.08024000e-07
726.000000 3.27128000e-07
735.000000 4.85848000e-07
745.000000 7.44194000e-07
755.000000 1.12604000e-06
765.000000 1.68311000e-06
775.000000 2.48621000e-06
785.000000 3.63381000e-06
795.000000 5.20152000e-06
805.000000 7.47442000e-06
815.000000 1.06112000e-05
825.000000 1.48766000e-05
835.000000 2.06594000e-05
845.000000 2.84415000e-05
855.000000 3.88106000e-05
865.000000 5.25198000e-05
875.000000 7.02900000e-05
885.000000 9.38908000e-05
895.000000 1.24138000e-04
905.000000 1.62127000e-04
915.000000 9.69829000e-02
925.000000 3.04928000e-01
935.000000 3.98084000e-01
945.000000 5.21796000e-01
955.000000 7.20806000e-01
965.000000 9.35487000e-01
975.000000 1.15909000e+00
985.000000 1.48207000e+00
995.000000 1.80704000e+00
1005.000000 2.40698000e+00
1015.000000 3.00773000e+00
1025.000000 3.54560000e+00
1035.000000 4.58451000e+00
1045.000000 5.70187000e+00
1055.000000 7.01012000e+00
1065.000000 8.39103000e+00
1075.000000 1.03771000e+01
1085.000000 1.26540000e+01
1095.000000 1.49856000e+01
1105.000000 4.28031000e+01
1115.000000 1.32007000e+02
1125.000000 1.89912000e+02
1135.000000 2.62214000e+02
1145.000000 3.24768000e+02
1155.000000 3.54469000e+02
1165.000000 4.71764000e+02
1175.000000 5.42054000e+02
1185.000000 5.70289000e+02
1195.000000 2.89111000e+02
1205.000000 2.60541000e+02
1215.000000 6.39168000e+01
1225.000000 2.98697000e+02
1235.000000 7.31266000e+02
1245.000000 1.66483000e+03
1255.000000 3.89233000e+03
1265.000000 3.88353000e+03
1275.000000 6.51318000e+03
1285.000000 9.48243000e+03
1295.000000 1.17611000e+04
1305.000000 9.40460000e+03
1315.000000 1.51049000e+04
1325.000000 1.82298000e+04
1335.000000 1.97206000e+04
1345.000000 2.51087000e+04
1355.000000 2.56977000e+04
1365.000000 2.79308000e+04
1375.000000 3.06365000e+04
1385.000000 3.34441000e+04
1395.000000 3.84584000e+04
1405.000000 4.29531000e+04
1415.000000 4.35918000e+04
1425.000000 4.94607000e+04
1435.000000 4.94982000e+04
1442.000000 5.73655000e+04
1447.000000 6.21624000e+04
1455.000000 7.01328000e+04
1465.000000 7.05706000e+04
1475.000000 7.71753000e+04
1485.000000 8.56549000e+04
1495.000000 9.69220000e+04
1505.000000 1.06162000e+05
1512.000000 1.06038000e+05
1517.000000 1.15797000e+05
1525.000000 1.24474000e+05
1535.000000 4.02515000e+05
1545.000000 1.49401000e+06
1555.000000 1.32192000e+06
1565.000000 1.12239000e+06
1575.000000 2.09883000e+06
1585.000000 2.71440000e+06
1595.000000 3.39009000e+06
1605.000000 3.03443000e+06
1615.000000 3.01069000e+06
1625.000000 2.65374000e+06
1635.000000 3.35618000e+06
1645.000000 5.36967000e+06
1655.000000 2.74010000e+06
1665.000000 5.17648000e+06
1672.000000 1.93716000e+06
1677.000000 6.71095000e+06
1685.000000 9.30749000e+06
1695.000000 8.37098000e+06
1705.000000 8.78846000e+06
1715.000000 1.16854000e+07
1725.000000 1.20552000e+07
1735.000000 1.47552000e+07
1745.000000 1.35659000e+07
1755.000000 1.69723000e+07
1765.000000 1.18282000e+07
1775.000000 1.58111000e+07
1785.000000 1.45254000e+07
1795.000000 1.95484000e+07
1805.000000 1.61861000e+07
1815.000000 1.79031000e+07
1825.000000 1.52383000e+07
1835.000000 1.40948000e+07
1845.000000 1.25059000e+07
1855.000000 1.44056000e+07
1865.000000 1.61296000e+07
1875.000000 1.53858000e+07
1885.000000 1.58814000e+07
1895.000000 1.73351000e+07
1905.000000 1.54895000e+07
1915.000000 1.67520000e+07
1925.000000 1.64920000e+07
1935.000000 1.19592000e+07
1945.000000 1.79092000e+07
1955.000000 1.81316000e+07
1967.000000 1.99499000e+07
1976.000000 1.94618000e+07
1984.000000 1.85223000e+07
1995.000000 1.80119000e+07
2005.000000 1.68346000e+07
2015.000000 1.58366000e+07
2025.000000 1.49033000e+07
2035.000000 1.71489000e+07
2045.000000 1.89553000e+07
2055.000000 1.73573000e+07
2065.000000 1.64916000e+07
2074.000000 2.00448000e+07
2078.000000 2.13208000e+07
2085.000000 2.02455000e+07
2095.000000 1.88758000e+07
2105.000000 1.73077000e+07
2115.000000 1.77659000e+07
2125.000000 1.84042000e+07
2135.000000 1.40362000e+07
2145.000000 1.72479000e+07
2155.000000 1.75198000e+07
2165.000000 1.58497000e+07
2175.000000 1.57815000e+07
2185.000000 1.66040000e+07
2195.000000 1.82695000e+07
2205.000000 1.73285000e+07
2215.000000 1.47736000e+07
2225.000000 1.43208000e+07
2235.000000 1.76900000e+07
2245.000000 1.56992000e+07
2255.000000 1.40467000e+07
2265.000000 1.42380000e+07
2275.000000 1.58877000e+07
2285.000000 1.67887000e+07
2295.000000 1.50662000e+07
2305.000000 1.57363000e+07
2315.000000 1.48492000e+07
2325.000000 1.42513000e+07
2335.000000 1.14051000e+07
2345.000000 9.13491000e+06
2355.000000 1.38050000e+07
2365.000000 9.36027000e+06
2375.000000 1.18657000e+07
2385.000000 7.72702000e+06
2395.000000 9.74067000e+06
2405.000000 9.32766000e+06
2415.000000 1.04268000e+07
2425.000000 1.40201000e+07
2435.000000 1.35418000e+07
2445.000000 1.47326000e+07
2455.000000 1.45497000e+07
2465.000000 1.43011000e+07
2475.000000 1.32183000e+07
2485.000000 1.36521000e+07
2495.000000 1.28959000e+07
2505.000000 1.64391000e+07
2513.000000 1.29689000e+07
2518.000000 1.36091000e+07
2525.000000 1.16695000e+07
2535.000000 1.09374000e+07
2545.000000 1.09657000e+07
2555.000000 1.29777000e+07
2565.000000 1.20831000e+07
2575.000000 1.39797000e+07
2585.000000 1.36722000e+07
2595.000000 1.28101000e+07
2605.000000 1.16771000e+07
2615.000000 1.09071000e+07
2625.000000 1.37589000e+07
2635.000000 1.49162000e+07
2645.000000 1.93146000e+07
2655.000000 1.96803000e+07
2665.000000 1.61190000e+07
2675.000000 1.77766000e+07
2685.000000 1.74171000e+07
2695.000000 1.62165000e+07
2705.000000 1.71981000e+07
2715.000000 1.53329000e+07
2725.000000 1.56559000e+07
2735.000000 1.72721000e+07
2745.000000 1.16048000e+07
2755.000000 1.30401000e+07
2765.000000 1.42507000e+07
2775.000000 1.69245000e+07
2785.000000 1.49143000e+07
2795.000000 6.57442000e+06
2805.000000 8.50655000e+06
2815.000000 1.72476000e+07
2825.000000 1.93533000e+07
2835.000000 1.82233000e+07
2845.000000 1.73065000e+07
2855.000000 1.57883000e+07
2865.000000 1.84844000e+07
2875.000000 1.78278000e+07
2885.000000 1.82358000e+07
2895.000000 1.70550000e+07
2910.000000 2.03893000e+07
2930.000000 1.92492000e+07
2950.000000 1.90735000e+07
2970.000000 2.01470000e+07
2990.000000 2.03613000e+07
3010.000000 2.09411000e+07
3030.000000 2.06680000e+07
3050.000000 2.05943000e+07
3070.000000 2.08109000e+07
3090.000000 2.13962000e+07
3110.000000 2.05945000e+07
3130.000000 2.04633000e+07
3150.000000 2.13622000e+07
3170.000000 2.12574000e+07
3190.000000 1.98273000e+07
3210.000000 2.06962000e+07
3230.000000 1.97618000e+07
3250.000000 2.06920000e+07
3270.000000 2.11313000e+07
3290.000000 2.13593000e+07
3310.000000 2.18072000e+07
3330.000000 2.12440000e+07
3350.000000 2.09820000e+07
3370.000000 2.07095000e+07
3390.000000 2.09252000e+07
3410.000000 2.12749000e+07
3430.000000 2.15232000e+07
3450.000000 2.13558000e+07
3470.000000 2.10336000e+07
3490.000000 2.09151000e+07
3510.000000 2.15248000e+07
3530.000000 2.15249000e+07
3550.000000 2.20908000e+07
3570.000000 2.10813000e+07
3590.000000 2.10035000e+07
3610.000000 2.11122000e+07
3630.000000 2.13574000e+07
3640.000000 2.10042000e+07
3650.000000 2.19424000e+07
3670.000000 2.16381000e+07
3690.000000 2.09532000e+07
3710.000000 2.39406000e+07
3730.000000 2.65990000e+07
3750.000000 3.54856000e+07
3770.000000 3.85161000e+07
3790.000000 4.84337000e+07
3810.000000 5.70462000e+07
3830.000000 4.43403000e+07
3850.000000 6.27344000e+07
3870.000000 7.07080000e+07
3890.000000 4.00403000e+07
3910.000000 6.92711000e+07
3930.000000 5.85184000e+07
3950.000000 6.83630000e+07
3970.000000 3.59833000e+07
3990.000000 6.80262000e+07
4010.000000 7.48768000e+07
4030.000000 7.40821000e+07
4050.000000 7.32949000e+07
4070.000000 7.02270000e+07
4090.000000 5.70180000e+07
4110.000000 4.31189000e+07
4130.000000 6.70373000e+07
4150.000000 7.02973000e+07
4170.000000 6.92195000e+07
4190.000000 6.85045000e+07
4210.000000 6.81740000e+07
4230.000000 6.63623000e+07
4250.000000 6.63148000e+07
4270.000000 6.37549000e+07
4290.000000 6.42529000e+07
4310.000000 5.92064000e+07
4330.000000 4.70306000e+07
4350.000000 3.99018000e+07
4370.000000 5.98939000e+07
4390.000000 6.05594000e+07
4410.000000 5.93799000e+07
4430.000000 5.89582000e+07
4450.000000 5.95690000e+07
4470.000000 5.90126000e+07
4490.000000 5.83162000e+07
4510.000000 5.93781000e+07
4530.000000 5.70375000e+07
4550.000000 5.58730000e+07
4570.000000 5.74558000e+07
4590.000000 5.52396000e+07
4610.000000 5.63815000e+07
4630.000000 5.45476000e+07
4650.000000 5.49191000e+07
4670.000000 5.44964000e+07
4690.000000 5.25802000e+07
4710.000000 5.07285000e+07
4730.000000 5.25753000e+07
4750.000000 5.23940000e+07
4770.000000 5.13793000e+07
4790.000000 5.08083000e+07
4810.000000 4.97354000e+07
4830.000000 4.77789000e+07
4850.000000 3.77891000e+07
4870.000000 3.00327000e+07
4890.000000 4.49121000e+07
4910.000000 4.67284000e+07
4930.000000 4.59424000e+07
4950.000000 4.65375000e+07
4970.000000 4.66670000e+07
4990.000000 4.50349000e+07
5010.000000 4.34693000e+07
5030.000000 4.43438000e+07
5050.000000 4.35324000e+07
5070.000000 4.39957000e+07
5090.000000 4.33641000e+07
5110.000000 4.31206000e+07
5130.000000 4.21752000e+07
5150.000000 4.12900000e+07
5170.000000 4.03891000e+07
5190.000000 3.99763000e+07
5210.000000 3.99781000e+07
5230.000000 3.94388000e+07
5250.000000 3.99835000e+07
5270.000000 3.77640000e+07
5290.000000 3.90069000e+07
5310.000000 3.82580000e+07
5330.000000 3.71811000e+07
5350.000000 3.80211000e+07
5370.000000 3.74654000e+07
5390.000000 3.70141000e+07
5410.000000 3.62595000e+07
5430.000000 3.62114000e+07
5450.000000 3.63114000e+07
5470.000000 3.58449000e+07
5490.000000 3.56492000e+07
5510.000000 3.52755000e+07
5530.000000 3.48360000e+07
5550.000000 3.47957000e+07
5570.000000 3.42415000e+07
5590.000000 3.38619000e+07
5610.000000 3.37059000e+07
5630.000000 3.35762000e+07
5650.000000 3.31088000e+07
5670.000000 3.26494000e+07
5690.000000 3.25739000e+07
5710.000000 3.22641000e+07
5730.000000 3.22458000e+07
5750.000000 3.17598000e+07
5770.000000 3.15389000e+07
5790.000000 3.11798000e+07
5810.000000 3.09443000e+07
5830.000000 3.07024000e+07
5850.000000 3.03574000e+07
5870.000000 3.01083000e+07
5890.000000 2.94252000e+07
5910.000000 2.95511000e+07
5930.000000 2.92857000e+07
5950.000000 2.89848000e+07
5970.000000 2.87751000e+07
5990.000000 2.83901000e+07
6010.000000 2.80325000e+07
6030.000000 2.79162000e+07
6050.000000 2.76826000e+07
6070.000000 2.75301000e+07
6090.000000 2.72135000e+07
6110.000000 2.68994000e+07
6130.000000 2.64705000e+07
6150.000000 2.59470000e+07
6170.000000 2.59463000e+07
6190.000000 2.60444000e+07
6210.000000 2.58349000e+07
6230.000000 2.54781000e+07
6250.000000 2.48099000e+07
6270.000000 2.51818000e+07
6290.000000 2.49619000e+07
6310.000000 2.45419000e+07
6330.000000 2.44321000e+07
6350.000000 2.40449000e+07
6370.000000 2.38858000e+07
6390.000000 2.38076000e+07
6410.000000 2.34373000e+07
6430.000000 2.33528000e+07
6450.000000 2.28786000e+07
6470.000000 2.29156000e+07
6490.000000 2.24597000e+07
6510.000000 2.23326000e+07
6530.000000 2.18126000e+07
6550.000000 1.91726000e+07
6570.000000 1.51949000e+07
6590.000000 2.06729000e+07
6610.000000 2.13792000e+07
6630.000000 2.14209000e+07
6650.000000 2.12923000e+07
6670.000000 2.11004000e+07
6690.000000 2.10106000e+07
6710.000000 2.08354000e+07
6730.000000 2.06510000e+07
6750.000000 2.04131000e+07
6770.000000 2.03666000e+07
6790.000000 2.01790000e+07
6810.000000 2.00216000e+07
6830.000000 1.98052000e+07
6850.000000 1.96592000e+07
6870.000000 1.95369000e+07
6890.000000 1.93840000e+07
6910.000000 1.92199000e+07
6930.000000 1.90503000e+07
6950.000000 1.89065000e+07
6970.000000 1.87415000e+07
6990.000000 1.86128000e+07
7010.000000 1.83350000e+07
7030.000000 1.82621000e+07
7050.000000 1.81473000e+07
7070.000000 1.80184000e+07
7090.000000 1.78794000e+07
7110.000000 1.74063000e+07
7130.000000 1.74926000e+07
7150.000000 1.73853000e+07
7170.000000 1.72562000e+07
7190.000000 1.70904000e+07
7210.000000 1.69834000e+07
7230.000000 1.68377000e+07
7250.000000 1.66897000e+07
7270.000000 1.66308000e+07
7290.000000 1.64241000e+07
7310.000000 1.63090000e+07
7330.000000 1.62005000e+07
7350.000000 1.61180000e+07
7370.000000 1.60147000e+07
7390.000000 1.58357000e+07
7410.000000 1.56474000e+07
7430.000000 1.54944000e+07
7450.000000 1.54228000e+07
7470.000000 1.52222000e+07
7490.000000 1.51692000e+07
7510.000000 1.50999000e+07
7530.000000 1.50178000e+07
7550.000000 1.49529000e+07
7570.000000 1.48115000e+07
7590.000000 1.47178000e+07
7610.000000 1.46055000e+07
7630.000000 1.44986000e+07
7650.000000 1.43579000e+07
7670.000000 1.41998000e+07
7690.000000 1.41318000e+07
7710.000000 1.40041000e+07
7730.000000 1.39582000e+07
7750.000000 1.38329000e+07
7770.000000 1.34598000e+07
7790.000000 1.36670000e+07
7810.000000 1.35539000e+07
7830.000000 1.34011000e+07
7850.000000 1.32620000e+07
7870.000000 1.31783000e+07
7890.000000 1.30565000e+07
7910.000000 1.29761000e+07
7930.000000 1.28772000e+07
7950.000000 1.27552000e+07
7970.000000 1.27862000e+07
7990.000000 1.25612000e+07
8010.000000 1.25707000e+07
8030.000000 1.24603000e+07
8050.000000 1.23938000e+07
8070.000000 1.22966000e+07
8090.000000 1.22042000e+07
8110.000000 1.21492000e+07
8130.000000 1.20724000e+07
8150.000000 1.19838000e+07
8170.000000 1.18986000e+07
8190.000000 1.16513000e+07
8210.000000 1.16153000e+07
8230.000000 1.15300000e+07
8250.000000 1.14736000e+07
8270.000000 1.15239000e+07
8290.000000 1.14322000e+07
8310.000000 1.13402000e+07
8330.000000 1.11490000e+07
8350.000000 1.11788000e+07
8370.000000 1.10771000e+07
8390.000000 1.09440000e+07
8410.000000 1.08553000e+07
8430.000000 1.08054000e+07
8450.000000 1.05934000e+07
8470.000000 1.03397000e+07
8490.000000 1.07881000e+07
8510.000000 9.84999000e+06
8530.000000 1.08321000e+07
8550.000000 9.10046000e+06
8570.000000 1.09857000e+07
8590.000000 1.01003000e+07
8610.000000 9.76430000e+06
8630.000000 1.10788000e+07
8650.000000 1.06606000e+07
8670.000000 8.46639000e+06
8690.000000 1.07018000e+07
8710.000000 1.12094000e+07
8730.000000 1.07928000e+07
8750.000000 8.44268000e+06
8770.000000 1.03248000e+07
8790.000000 1.11009000e+07
8810.000000 1.11034000e+07
8830.000000 1.07387000e+07
8850.000000 9.73155000e+06
8870.000000 8.17412000e+06
8890.000000 1.03663000e+07
8910.000000 1.07208000e+07
8930.000000 1.07229000e+07
8950.000000 1.07626000e+07
8970.000000 1.05718000e+07
8990.000000 1.01370000e+07
9010.000000 8.05944000e+06
9030.000000 8.92424000e+06
9050.000000 1.01028000e+07
9070.000000 1.00423000e+07
9090.000000 9.92613000e+06
9110.000000 1.01304000e+07
9130.000000 1.01467000e+07
9150.000000 1.01154000e+07
9170.000000 9.97367000e+06
9190.000000 9.72869000e+06
9210.000000 9.08335000e+06
9230.000000 7.07620000e+06
9250.000000 8.72273000e+06
9270.000000 9.23927000e+06
9290.000000 9.58235000e+06
9310.000000 9.58339000e+06
9330.000000 9.51984000e+06
9350.000000 9.48476000e+06
9370.000000 9.43530000e+06
9390.000000 9.30756000e+06
9410.000000 9.00681000e+06
9430.000000 9.15294000e+06
9450.000000 9.11508000e+06
9470.000000 9.06948000e+06
9490.000000 8.97147000e+06
9510.000000 8.74799000e+06
9530.000000 8.08496000e+06
9550.000000 6.47197000e+06
9570.000000 8.12446000e+06
9590.000000 8.55759000e+06
9610.000000 8.55301000e+06
9630.000000 8.44399000e+06
9650.000000 8.53120000e+06
9670.000000 8.39805000e+06
9690.000000 8.38147000e+06
9710.000000 8.43768000e+06
9730.000000 8.37199000e+06
9750.000000 8.26952000e+06
9770.000000 8.27359000e+06
9790.000000 8.21741000e+06
9810.000000 8.16124000e+06
9830.000000 8.09531000e+06
9850.000000 7.99995000e+06
9870.000000 7.95635000e+06
9890.000000 7.86643000e+06
9910.000000 7.84392000e+06
9930.000000 7.80357000e+06
9950.000000 7.75016000e+06
9970.000000 7.70962000e+06
9990.000000 7.62329000e+06
10025.000000 6.98276000e+06
10075.000000 6.61819000e+06
10125.000000 7.24423000e+06
10175.000000 7.22488000e+06
10225.000000 7.14719000e+06
10275.000000 7.04568000e+06
10325.000000 6.90764000e+06
10375.000000 6.81427000e+06
10425.000000 6.71093000e+06
10475.000000 6.53303000e+06
10525.000000 6.46668000e+06
10575.000000 6.38378000e+06
10625.000000 6.29047000e+06
10675.000000 6.08688000e+06
10725.000000 6.06465000e+06
10775.000000 5.98578000e+06
10825.000000 5.88432000e+06
10875.000000 5.75038000e+06
10925.000000 4.91919000e+06
10975.000000 5.34643000e+06
11025.000000 5.56429000e+06
11075.000000 5.51876000e+06
11125.000000 5.43092000e+06
11175.000000 5.35558000e+06
11225.000000 5.28824000e+06
11275.000000 5.11757000e+06
11325.000000 5.05280000e+06
11375.000000 5.03497000e+06
11425.000000 4.93616000e+06
11475.000000 4.91956000e+06
11525.000000 4.85456000e+06
11575.000000 4.77869000e+06
11625.000000 4.65515000e+06
11675.000000 4.56451000e+06
11725.000000 4.58540000e+06
11775.000000 4.43650000e+06
11825.000000 4.41388000e+06
11875.000000 4.32683000e+06
11925.000000 4.34255000e+06
11975.000000 4.23727000e+06
12025.000000 4.20419000e+06
12075.000000 4.13508000e+06
12125.000000 4.08362000e+06
12175.000000 4.04354000e+06
12225.000000 3.98205000e+06
12275.000000 3.92192000e+06
12325.000000 3.87305000e+06
12375.000000 3.82730000e+06
12425.000000 3.78558000e+06
12475.000000 3.72383000e+06
12525.000000 3.67326000e+06
12575.000000 3.60123000e+06
12625.000000 3.57016000e+06
12675.000000 3.53361000e+06
12725.000000 3.47844000e+06
12775.000000 3.35200000e+06
12825.000000 2.88318000e+06
12875.000000 3.28809000e+06
12925.000000 3.29855000e+06
12975.000000 3.26803000e+06
13025.000000 3.23122000e+06
13075.000000 3.19289000e+06
13125.000000 3.14696000e+06
13175.000000 3.09556000e+06
13225.000000 3.07090000e+06
13275.000000 3.03114000e+06
13325.000000 2.99486000e+06
13375.000000 2.95608000e+06
13425.000000 2.91843000e+06
13475.000000 2.88166000e+06
13525.000000 2.83753000e+06
13575.000000 2.80093000e+06
13625.000000 2.77452000e+06
13675.000000 2.73614000e+06
13725.000000 2.67924000e+06
13775.000000 2.66499000e+06
13825.000000 2.63452000e+06
13875.000000 2.61145000e+06
13925.000000 2.56806000e+06
13975.000000 2.54277000e+06
14025.000000 2.51299000e+06
14075.000000 2.48566000e+06
14125.000000 2.45129000e+06
14175.000000 2.42409000e+06
14225.000000 2.39218000e+06
14275.000000 2.36177000e+06
14325.000000 2.33742000e+06
14375.000000 2.31262000e+06
14425.000000 2.24067000e+06
14475.000000 2.25471000e+06
14525.000000 2.20618000e+06
14570.000000 2.20304000e+06
14620.000000 2.17160000e+06
14675.000000 2.15203000e+06
14725.000000 2.12250000e+06
14775.000000 2.08987000e+06
14825.000000 2.07237000e+06
14875.000000 2.04007000e+06
14925.000000 2.03657000e+06
14975.000000 2.00720000e+06
