# Kurucz ODFNEW /NOVER, alpha: 0.0 (2003)
# teff = 24000 K (value for the effective temperature for the model. Temperatures are given in K)
# logg = 3.5 log(cm/s2) (value for Log(G) for the model.)
# lh = 1.25  (l/Hp where l is the  mixing length of the convective element and Hp is the pressure scale height)
# meta = -2.5  (value for the Metallicity for the model.)
# vtur = 2 km/s (Microturbulence velocity)
# alpha = 0  (Alpha)
#
# column 1: WAVELENGTH (ANGSTROM), Wavelength in Angstrom
# column 2: FLUX (ERG/CM2/S/A), Flux in erg/cm2/s/A
147.200000 1.37594000e-14
151.000000 7.10302000e-14
155.200000 3.95263000e-13
158.800000 1.59820000e-12
162.000000 5.24240000e-12
166.000000 2.16473000e-11
170.300000 9.20076000e-11
173.400000 2.49048000e-10
176.800000 7.12006000e-10
180.200000 1.95360000e-09
181.700000 3.01202000e-09
186.100000 1.02827000e-08
191.000000 3.76492000e-08
193.900000 7.84958000e-08
198.400000 2.34751000e-07
201.800000 5.19211000e-07
205.000000 1.06874000e-06
210.500000 3.50456000e-06
216.200000 1.12167000e-05
219.800000 2.26122000e-05
223.000000 4.13320000e-05
226.800000 8.26504000e-05
230.000000 3.71531000e-04
234.000000 8.32704000e-04
240.000000 2.10772000e-03
246.500000 5.47837000e-03
252.400000 1.25587000e-02
256.800000 2.16505000e-02
260.000000 3.40411000e-02
264.000000 5.61505000e-02
268.500000 9.67165000e-02
273.500000 1.73069000e-01
278.500000 3.03410000e-01
284.000000 5.49055000e-01
290.000000 1.02017000e+00
296.000000 1.84396000e+00
301.000000 2.95218000e+00
308.000000 5.43626000e+00
318.000000 1.32547000e+01
328.000000 2.95857000e+01
338.000000 6.28190000e+01
348.000000 1.27312000e+02
357.000000 2.31750000e+02
366.000000 4.09167000e+02
375.000000 6.99906000e+02
385.000000 1.23265000e+03
395.000000 2.10205000e+03
405.000000 3.48376000e+03
414.000000 5.36687000e+03
422.000000 7.74046000e+03
430.000000 1.09904000e+04
441.000000 1.74322000e+04
451.000000 2.59246000e+04
460.000000 3.64338000e+04
470.000000 5.22970000e+04
480.000000 7.37713000e+04
490.000000 1.02465000e+05
500.000000 1.40169000e+05
506.000000 9.10380000e+05
512.000000 2.55072000e+06
520.000000 3.04811000e+06
530.000000 4.03593000e+06
540.000000 4.32761000e+06
550.000000 5.84049000e+06
560.000000 6.81008000e+06
570.000000 8.05893000e+06
580.000000 8.10864000e+06
590.000000 1.03371000e+07
600.000000 1.23651000e+07
610.000000 1.42471000e+07
620.000000 1.61325000e+07
630.000000 1.83590000e+07
640.000000 2.03982000e+07
650.000000 2.31423000e+07
658.000000 2.54762000e+07
665.000000 2.74736000e+07
675.000000 3.00689000e+07
685.000000 3.30777000e+07
695.000000 3.74893000e+07
705.000000 4.09091000e+07
716.000000 4.54120000e+07
726.000000 4.95396000e+07
735.000000 5.39391000e+07
745.000000 5.89158000e+07
755.000000 6.39936000e+07
765.000000 6.91693000e+07
775.000000 7.49288000e+07
785.000000 8.08205000e+07
795.000000 8.66861000e+07
805.000000 9.30276000e+07
815.000000 9.93174000e+07
825.000000 1.06378000e+08
835.000000 1.11723000e+08
845.000000 1.20227000e+08
855.000000 1.27295000e+08
865.000000 1.35456000e+08
875.000000 1.43803000e+08
885.000000 1.52072000e+08
895.000000 1.60380000e+08
905.000000 1.67495000e+08
915.000000 3.13632000e+08
925.000000 3.71708000e+09
935.000000 9.20983000e+09
945.000000 1.88499000e+10
955.000000 2.17882000e+10
965.000000 2.61551000e+10
975.000000 1.35335000e+10
985.000000 2.61250000e+10
995.000000 2.49484000e+10
1005.000000 2.57486000e+10
1015.000000 2.43182000e+10
1025.000000 1.27987000e+10
1035.000000 2.27703000e+10
1045.000000 2.49836000e+10
1055.000000 2.44056000e+10
1065.000000 2.28315000e+10
1075.000000 2.32266000e+10
1085.000000 2.18164000e+10
1095.000000 2.27302000e+10
1105.000000 2.19362000e+10
1115.000000 2.16015000e+10
1125.000000 2.05224000e+10
1135.000000 2.09259000e+10
1145.000000 2.02281000e+10
1155.000000 2.02910000e+10
1165.000000 1.99742000e+10
1175.000000 1.77790000e+10
1185.000000 1.91197000e+10
1195.000000 1.83014000e+10
1205.000000 1.68622000e+10
1215.000000 8.65299000e+09
1225.000000 1.68110000e+10
1235.000000 1.74159000e+10
1245.000000 1.70388000e+10
1255.000000 1.68944000e+10
1265.000000 1.65163000e+10
1275.000000 1.63605000e+10
1285.000000 1.60580000e+10
1295.000000 1.51478000e+10
1305.000000 1.51490000e+10
1315.000000 1.52016000e+10
1325.000000 1.47615000e+10
1335.000000 1.42934000e+10
1345.000000 1.43526000e+10
1355.000000 1.41649000e+10
1365.000000 1.38680000e+10
1375.000000 1.36229000e+10
1385.000000 1.34016000e+10
1395.000000 1.28446000e+10
1405.000000 1.27144000e+10
1415.000000 1.26738000e+10
1425.000000 1.24653000e+10
1435.000000 1.22833000e+10
1442.000000 1.21603000e+10
1447.000000 1.20462000e+10
1455.000000 1.18739000e+10
1465.000000 1.16588000e+10
1475.000000 1.14619000e+10
1485.000000 1.12669000e+10
1495.000000 1.10715000e+10
1505.000000 1.08314000e+10
1512.000000 1.06992000e+10
1517.000000 1.06276000e+10
1525.000000 1.04751000e+10
1535.000000 1.01560000e+10
1545.000000 9.99940000e+09
1555.000000 9.78894000e+09
1565.000000 9.76899000e+09
1575.000000 9.64974000e+09
1585.000000 9.49912000e+09
1595.000000 9.35239000e+09
1605.000000 9.10021000e+09
1615.000000 8.94973000e+09
1625.000000 8.86916000e+09
1635.000000 8.74226000e+09
1645.000000 8.46130000e+09
1655.000000 8.48356000e+09
1665.000000 8.36049000e+09
1672.000000 8.24616000e+09
1677.000000 8.23242000e+09
1685.000000 8.11768000e+09
1695.000000 7.97052000e+09
1705.000000 7.82909000e+09
1715.000000 7.67273000e+09
1725.000000 7.57289000e+09
1735.000000 7.47746000e+09
1745.000000 7.35427000e+09
1755.000000 7.26238000e+09
1765.000000 7.08043000e+09
1775.000000 7.00793000e+09
1785.000000 6.93117000e+09
1795.000000 6.83428000e+09
1805.000000 6.74546000e+09
1815.000000 6.62125000e+09
1825.000000 6.52943000e+09
1835.000000 6.43396000e+09
1845.000000 6.26712000e+09
1855.000000 6.10415000e+09
1865.000000 6.05869000e+09
1875.000000 6.04278000e+09
1885.000000 5.85892000e+09
1895.000000 5.71164000e+09
1905.000000 5.74267000e+09
1915.000000 5.57981000e+09
1925.000000 5.49322000e+09
1935.000000 5.47090000e+09
1945.000000 5.43660000e+09
1955.000000 5.25653000e+09
1967.000000 5.26533000e+09
1976.000000 5.23523000e+09
1984.000000 5.12313000e+09
1995.000000 4.98510000e+09
2005.000000 5.00354000e+09
2015.000000 4.95993000e+09
2025.000000 4.90546000e+09
2035.000000 4.81098000e+09
2045.000000 4.74359000e+09
2055.000000 4.61109000e+09
2065.000000 4.53695000e+09
2074.000000 4.55765000e+09
2078.000000 4.47216000e+09
2085.000000 4.47866000e+09
2095.000000 4.39644000e+09
2105.000000 4.37883000e+09
2115.000000 4.33465000e+09
2125.000000 4.28786000e+09
2135.000000 4.22746000e+09
2145.000000 4.16234000e+09
2155.000000 4.11650000e+09
2165.000000 4.06401000e+09
2175.000000 4.00881000e+09
2185.000000 3.95808000e+09
2195.000000 3.90990000e+09
2205.000000 3.85871000e+09
2215.000000 3.80813000e+09
2225.000000 3.75822000e+09
2235.000000 3.70875000e+09
2245.000000 3.66450000e+09
2255.000000 3.61481000e+09
2265.000000 3.57187000e+09
2275.000000 3.52664000e+09
2285.000000 3.48292000e+09
2295.000000 3.40900000e+09
2305.000000 3.39438000e+09
2315.000000 3.35155000e+09
2325.000000 3.31024000e+09
2335.000000 3.26723000e+09
2345.000000 3.22860000e+09
2355.000000 3.18975000e+09
2365.000000 3.15031000e+09
2375.000000 3.11128000e+09
2385.000000 3.07187000e+09
2395.000000 3.03543000e+09
2405.000000 2.99904000e+09
2415.000000 2.96179000e+09
2425.000000 2.92761000e+09
2435.000000 2.89167000e+09
2445.000000 2.85735000e+09
2455.000000 2.82380000e+09
2465.000000 2.78990000e+09
2475.000000 2.75670000e+09
2485.000000 2.72388000e+09
2495.000000 2.65713000e+09
2505.000000 2.65973000e+09
2513.000000 2.62713000e+09
2518.000000 2.61909000e+09
2525.000000 2.59803000e+09
2535.000000 2.56772000e+09
2545.000000 2.53409000e+09
2555.000000 2.50811000e+09
2565.000000 2.47949000e+09
2575.000000 2.45152000e+09
2585.000000 2.42340000e+09
2595.000000 2.39575000e+09
2605.000000 2.38522000e+09
2615.000000 2.35803000e+09
2625.000000 2.32950000e+09
2635.000000 2.29785000e+09
2645.000000 2.27318000e+09
2655.000000 2.24508000e+09
2665.000000 2.21734000e+09
2675.000000 2.19132000e+09
2685.000000 2.17879000e+09
2695.000000 2.14029000e+09
2705.000000 2.13047000e+09
2715.000000 2.10688000e+09
2725.000000 2.06897000e+09
2735.000000 2.06006000e+09
2745.000000 2.03728000e+09
2755.000000 2.01537000e+09
2765.000000 1.97835000e+09
2775.000000 1.97224000e+09
2785.000000 1.95067000e+09
2795.000000 1.92328000e+09
2805.000000 1.90715000e+09
2815.000000 1.88840000e+09
2825.000000 1.85135000e+09
2835.000000 1.84019000e+09
2845.000000 1.82853000e+09
2855.000000 1.80900000e+09
2865.000000 1.78992000e+09
2875.000000 1.77102000e+09
2885.000000 1.75238000e+09
2895.000000 1.73396000e+09
2910.000000 1.70670000e+09
2930.000000 1.67132000e+09
2950.000000 1.62679000e+09
2970.000000 1.60337000e+09
2990.000000 1.57057000e+09
3010.000000 1.53863000e+09
3030.000000 1.50784000e+09
3050.000000 1.47760000e+09
3070.000000 1.44814000e+09
3090.000000 1.41895000e+09
3110.000000 1.39134000e+09
3130.000000 1.36550000e+09
3150.000000 1.33865000e+09
3170.000000 1.31210000e+09
3190.000000 1.27697000e+09
3210.000000 1.26172000e+09
3230.000000 1.23748000e+09
3250.000000 1.21370000e+09
3270.000000 1.19207000e+09
3290.000000 1.16794000e+09
3310.000000 1.14771000e+09
3330.000000 1.12633000e+09
3350.000000 1.10338000e+09
3370.000000 1.08502000e+09
3390.000000 1.06511000e+09
3410.000000 1.04565000e+09
3430.000000 1.02177000e+09
3450.000000 9.99706000e+08
3470.000000 9.84711000e+08
3490.000000 9.67302000e+08
3510.000000 9.54720000e+08
3530.000000 9.38581000e+08
3550.000000 9.22356000e+08
3570.000000 9.10070000e+08
3590.000000 8.89581000e+08
3610.000000 8.75213000e+08
3630.000000 8.58762000e+08
3640.000000 8.56382000e+08
3650.000000 8.47171000e+08
3670.000000 8.35809000e+08
3690.000000 8.12303000e+08
3710.000000 7.92484000e+08
3730.000000 7.75343000e+08
3750.000000 8.39534000e+08
3770.000000 8.42392000e+08
3790.000000 8.71292000e+08
3810.000000 9.03018000e+08
3830.000000 7.99923000e+08
3850.000000 9.14139000e+08
3870.000000 9.06652000e+08
3890.000000 7.63188000e+08
3910.000000 8.88320000e+08
3930.000000 8.70740000e+08
3950.000000 8.58854000e+08
3970.000000 7.08048000e+08
3990.000000 8.27143000e+08
4010.000000 8.14953000e+08
4030.000000 7.77704000e+08
4050.000000 7.93997000e+08
4070.000000 7.79026000e+08
4090.000000 7.37825000e+08
4110.000000 6.53809000e+08
4130.000000 7.33475000e+08
4150.000000 7.23797000e+08
4170.000000 7.15983000e+08
4190.000000 7.05988000e+08
4210.000000 6.94493000e+08
4230.000000 6.83183000e+08
4250.000000 6.72033000e+08
4270.000000 6.60670000e+08
4290.000000 6.50491000e+08
4310.000000 6.38628000e+08
4330.000000 5.96453000e+08
4350.000000 5.47141000e+08
4370.000000 6.07895000e+08
4390.000000 5.88471000e+08
4410.000000 5.90835000e+08
4430.000000 5.79389000e+08
4450.000000 5.72633000e+08
4470.000000 5.45837000e+08
4490.000000 5.54907000e+08
4510.000000 5.46477000e+08
4530.000000 5.38083000e+08
4550.000000 5.29778000e+08
4570.000000 5.21688000e+08
4590.000000 5.13807000e+08
4610.000000 5.06062000e+08
4630.000000 4.98430000e+08
4650.000000 4.90667000e+08
4670.000000 4.83572000e+08
4690.000000 4.76082000e+08
4710.000000 4.64134000e+08
4730.000000 4.62339000e+08
4750.000000 4.55448000e+08
4770.000000 4.48905000e+08
4790.000000 4.42340000e+08
4810.000000 4.35852000e+08
4830.000000 4.28423000e+08
4850.000000 4.05406000e+08
4870.000000 3.65421000e+08
4890.000000 4.09387000e+08
4910.000000 4.05168000e+08
4930.000000 3.92231000e+08
4950.000000 3.93865000e+08
4970.000000 3.88307000e+08
4990.000000 3.82825000e+08
5010.000000 3.73456000e+08
5030.000000 3.72145000e+08
5050.000000 3.64978000e+08
5070.000000 3.61840000e+08
5090.000000 3.56821000e+08
5110.000000 3.51898000e+08
5130.000000 3.47041000e+08
5150.000000 3.42277000e+08
5170.000000 3.37605000e+08
5190.000000 3.33008000e+08
5210.000000 3.28471000e+08
5230.000000 3.24036000e+08
5250.000000 3.19658000e+08
5270.000000 3.15364000e+08
5290.000000 3.11126000e+08
5310.000000 3.06983000e+08
5330.000000 3.02894000e+08
5350.000000 2.98870000e+08
5370.000000 2.94923000e+08
5390.000000 2.91040000e+08
5410.000000 2.87206000e+08
5430.000000 2.83458000e+08
5450.000000 2.79758000e+08
5470.000000 2.76117000e+08
5490.000000 2.72547000e+08
5510.000000 2.69021000e+08
5530.000000 2.65563000e+08
5550.000000 2.62148000e+08
5570.000000 2.58800000e+08
5590.000000 2.55492000e+08
5610.000000 2.52249000e+08
5630.000000 2.49058000e+08
5650.000000 2.45905000e+08
5670.000000 2.42803000e+08
5690.000000 2.39737000e+08
5710.000000 2.36755000e+08
5730.000000 2.33809000e+08
5750.000000 2.30886000e+08
5770.000000 2.28043000e+08
5790.000000 2.25223000e+08
5810.000000 2.22448000e+08
5830.000000 2.19716000e+08
5850.000000 2.17027000e+08
5870.000000 2.08838000e+08
5890.000000 2.11657000e+08
5910.000000 2.09192000e+08
5930.000000 2.06669000e+08
5950.000000 2.04175000e+08
5970.000000 2.01721000e+08
5990.000000 1.99305000e+08
6010.000000 1.96917000e+08
6030.000000 1.94577000e+08
6050.000000 1.92263000e+08
6070.000000 1.89986000e+08
6090.000000 1.87745000e+08
6110.000000 1.85539000e+08
6130.000000 1.83357000e+08
6150.000000 1.81211000e+08
6170.000000 1.79098000e+08
6190.000000 1.77018000e+08
6210.000000 1.74971000e+08
6230.000000 1.72947000e+08
6250.000000 1.70954000e+08
6270.000000 1.68984000e+08
6290.000000 1.67054000e+08
6310.000000 1.65136000e+08
6330.000000 1.63257000e+08
6350.000000 1.61399000e+08
6370.000000 1.59570000e+08
6390.000000 1.57770000e+08
6410.000000 1.55998000e+08
6430.000000 1.54246000e+08
6450.000000 1.52521000e+08
6470.000000 1.50815000e+08
6490.000000 1.49135000e+08
6510.000000 1.47473000e+08
6530.000000 1.45600000e+08
6550.000000 1.40971000e+08
6570.000000 1.26700000e+08
6590.000000 1.40341000e+08
6610.000000 1.39519000e+08
6630.000000 1.38010000e+08
6650.000000 1.36601000e+08
6670.000000 1.33980000e+08
6690.000000 1.32549000e+08
6710.000000 1.32211000e+08
6730.000000 1.30786000e+08
6750.000000 1.29376000e+08
6770.000000 1.27988000e+08
6790.000000 1.26622000e+08
6810.000000 1.25270000e+08
6830.000000 1.23940000e+08
6850.000000 1.22623000e+08
6870.000000 1.21328000e+08
6890.000000 1.20053000e+08
6910.000000 1.18791000e+08
6930.000000 1.17541000e+08
6950.000000 1.16312000e+08
6970.000000 1.15103000e+08
6990.000000 1.13890000e+08
7010.000000 1.12720000e+08
7030.000000 1.11553000e+08
7050.000000 1.10398000e+08
7070.000000 1.07566000e+08
7090.000000 1.08144000e+08
7110.000000 1.07030000e+08
7130.000000 1.05941000e+08
7150.000000 1.04863000e+08
7170.000000 1.03773000e+08
7190.000000 1.02738000e+08
7210.000000 1.01705000e+08
7230.000000 1.00631000e+08
7250.000000 9.96608000e+07
7270.000000 9.86642000e+07
7290.000000 9.68901000e+07
7310.000000 9.66779000e+07
7330.000000 9.57374000e+07
7350.000000 9.47847000e+07
7370.000000 9.38409000e+07
7390.000000 9.29129000e+07
7410.000000 9.20004000e+07
7430.000000 9.10963000e+07
7450.000000 9.02141000e+07
7470.000000 8.93266000e+07
7490.000000 8.84540000e+07
7510.000000 8.75627000e+07
7530.000000 8.67461000e+07
7550.000000 8.59038000e+07
7570.000000 8.50691000e+07
7590.000000 8.42487000e+07
7610.000000 8.34421000e+07
7630.000000 8.26364000e+07
7650.000000 8.18444000e+07
7670.000000 8.10659000e+07
7690.000000 8.02880000e+07
7710.000000 7.95235000e+07
7730.000000 7.87720000e+07
7750.000000 7.80210000e+07
7770.000000 7.72892000e+07
7790.000000 7.65638000e+07
7810.000000 7.57830000e+07
7830.000000 7.51322000e+07
7850.000000 7.45175000e+07
7870.000000 7.38169000e+07
7890.000000 7.30861000e+07
7910.000000 7.24520000e+07
7930.000000 7.16796000e+07
7950.000000 7.09499000e+07
7970.000000 7.02443000e+07
7990.000000 6.96276000e+07
8010.000000 6.89573000e+07
8030.000000 6.83514000e+07
8050.000000 6.77796000e+07
8070.000000 6.71953000e+07
8090.000000 6.64548000e+07
8110.000000 6.59270000e+07
8130.000000 6.54206000e+07
8150.000000 6.46972000e+07
8170.000000 6.42567000e+07
8190.000000 6.35950000e+07
8210.000000 6.29055000e+07
8230.000000 6.25501000e+07
8250.000000 6.20036000e+07
8270.000000 6.11147000e+07
8290.000000 6.08202000e+07
8310.000000 6.02987000e+07
8330.000000 5.97489000e+07
8350.000000 5.89281000e+07
8370.000000 5.85554000e+07
8390.000000 5.81160000e+07
8410.000000 5.75789000e+07
8430.000000 5.69879000e+07
8450.000000 5.61750000e+07
8470.000000 5.57525000e+07
8490.000000 5.55686000e+07
8510.000000 5.45222000e+07
8530.000000 5.48104000e+07
8550.000000 5.27764000e+07
8570.000000 5.46950000e+07
8590.000000 5.20307000e+07
8610.000000 5.17131000e+07
8630.000000 5.38511000e+07
8650.000000 5.22882000e+07
8670.000000 4.82934000e+07
8690.000000 5.26411000e+07
8710.000000 5.27720000e+07
8730.000000 5.11860000e+07
8750.000000 4.60598000e+07
8770.000000 4.98287000e+07
8790.000000 5.11527000e+07
8810.000000 5.07557000e+07
8830.000000 5.02458000e+07
8850.000000 4.74293000e+07
8870.000000 4.38212000e+07
8890.000000 4.86403000e+07
8910.000000 4.86832000e+07
8930.000000 4.83142000e+07
8950.000000 4.80703000e+07
8970.000000 4.75706000e+07
8990.000000 4.64367000e+07
9010.000000 4.16175000e+07
9030.000000 4.38275000e+07
9050.000000 4.58198000e+07
9070.000000 4.52900000e+07
9090.000000 4.51963000e+07
9110.000000 4.49840000e+07
9130.000000 4.46474000e+07
9150.000000 4.42810000e+07
9170.000000 4.37754000e+07
9190.000000 4.33883000e+07
9210.000000 4.17660000e+07
9230.000000 3.72449000e+07
9250.000000 4.13039000e+07
9270.000000 4.19632000e+07
9290.000000 4.17958000e+07
9310.000000 4.12943000e+07
9330.000000 4.11486000e+07
9350.000000 4.07879000e+07
9370.000000 4.04930000e+07
9390.000000 4.01690000e+07
9410.000000 3.98478000e+07
9430.000000 3.95307000e+07
9450.000000 3.92163000e+07
9470.000000 3.86711000e+07
9490.000000 3.85647000e+07
9510.000000 3.77970000e+07
9530.000000 3.64655000e+07
9550.000000 3.28035000e+07
9570.000000 3.66376000e+07
9590.000000 3.69528000e+07
9610.000000 3.66665000e+07
9630.000000 3.63405000e+07
9650.000000 3.62386000e+07
9670.000000 3.59567000e+07
9690.000000 3.56423000e+07
9710.000000 3.52919000e+07
9730.000000 3.51274000e+07
9750.000000 3.48563000e+07
9770.000000 3.45878000e+07
9790.000000 3.43216000e+07
9810.000000 3.40581000e+07
9830.000000 3.37973000e+07
9850.000000 3.35390000e+07
9870.000000 3.32829000e+07
9890.000000 3.30295000e+07
9910.000000 3.27743000e+07
9930.000000 3.25293000e+07
9950.000000 3.22830000e+07
9970.000000 3.20388000e+07
9990.000000 3.17842000e+07
10025.000000 3.03447000e+07
10075.000000 2.93788000e+07
10125.000000 3.01474000e+07
10175.000000 2.96659000e+07
10225.000000 2.91069000e+07
10275.000000 2.85884000e+07
10325.000000 2.79677000e+07
10375.000000 2.75595000e+07
10425.000000 2.70621000e+07
10475.000000 2.65761000e+07
10525.000000 2.61011000e+07
10575.000000 2.56365000e+07
10625.000000 2.51822000e+07
10675.000000 2.46917000e+07
10725.000000 2.43035000e+07
10775.000000 2.38785000e+07
10825.000000 2.32016000e+07
10875.000000 2.30235000e+07
10925.000000 2.11445000e+07
10975.000000 2.19428000e+07
11025.000000 2.17588000e+07
11075.000000 2.15044000e+07
11125.000000 2.11496000e+07
11175.000000 2.07921000e+07
11225.000000 2.04300000e+07
11275.000000 2.00998000e+07
11325.000000 1.97644000e+07
11375.000000 1.94362000e+07
11425.000000 1.91146000e+07
11475.000000 1.87996000e+07
11525.000000 1.84914000e+07
11575.000000 1.81891000e+07
11625.000000 1.78930000e+07
11675.000000 1.76030000e+07
11725.000000 1.73189000e+07
11775.000000 1.70406000e+07
11825.000000 1.67678000e+07
11875.000000 1.65003000e+07
11925.000000 1.62382000e+07
11975.000000 1.58536000e+07
12025.000000 1.57296000e+07
12075.000000 1.54825000e+07
12125.000000 1.52405000e+07
12175.000000 1.50030000e+07
12225.000000 1.47704000e+07
12275.000000 1.45423000e+07
12325.000000 1.43184000e+07
12375.000000 1.40989000e+07
12425.000000 1.38834000e+07
12475.000000 1.36721000e+07
12525.000000 1.34378000e+07
12575.000000 1.32616000e+07
12625.000000 1.30622000e+07
12675.000000 1.28663000e+07
12725.000000 1.26739000e+07
12775.000000 1.23106000e+07
12825.000000 1.15045000e+07
12875.000000 1.20733000e+07
12925.000000 1.19406000e+07
12975.000000 1.16930000e+07
13025.000000 1.15941000e+07
13075.000000 1.14254000e+07
