# Kurucz ODFNEW /NOVER, alpha: 0.0 (2003)
# teff = 19000 K (value for the effective temperature for the model. Temperatures are given in K)
# logg = 4 log(cm/s2) (value for Log(G) for the model.)
# lh = 1.25  (l/Hp where l is the  mixing length of the convective element and Hp is the pressure scale height)
# meta = -2  (value for the Metallicity for the model.)
# vtur = 2 km/s (Microturbulence velocity)
# alpha = 0  (Alpha)
#
# column 1: WAVELENGTH (ANGSTROM), Wavelength in Angstrom
# column 2: FLUX (ERG/CM2/S/A), Flux in erg/cm2/s/A
147.200000 3.42272000e-22
151.000000 2.69829000e-21
155.200000 2.25612000e-20
158.800000 1.27284000e-19
162.000000 5.56295000e-19
166.000000 3.25188000e-18
170.300000 1.98197000e-17
173.400000 6.90459000e-17
176.800000 2.58193000e-16
180.200000 9.19048000e-16
181.700000 1.58520000e-15
186.100000 7.45514000e-15
191.000000 3.84165000e-14
193.900000 9.74459000e-14
198.400000 3.91406000e-13
201.800000 1.07376000e-12
205.000000 2.69148000e-12
210.500000 1.22124000e-11
216.200000 5.39177000e-11
219.800000 1.32236000e-10
223.000000 2.86216000e-10
226.800000 6.95736000e-10
230.000000 1.66886000e-09
234.000000 4.10587000e-09
240.000000 1.43216000e-08
246.500000 5.15330000e-08
252.400000 1.55450000e-07
256.800000 3.41081000e-07
260.000000 5.96525000e-07
264.000000 1.17231000e-06
268.500000 2.44347000e-06
273.500000 5.36521000e-06
278.500000 1.14468000e-05
284.000000 2.54994000e-05
290.000000 5.89104000e-05
296.000000 1.31281000e-04
301.000000 2.49612000e-04
308.000000 5.90407000e-04
318.000000 1.89076000e-03
328.000000 5.61116000e-03
338.000000 1.55491000e-02
348.000000 4.04870000e-02
357.000000 9.12227000e-02
366.000000 1.96968000e-01
375.000000 4.08676000e-01
385.000000 8.80971000e-01
395.000000 1.82105000e+00
405.000000 3.62110000e+00
414.000000 6.51841000e+00
422.000000 1.07425000e+01
430.000000 1.73503000e+01
441.000000 3.25201000e+01
451.000000 5.59146000e+01
460.000000 8.90709000e+01
470.000000 1.46027000e+02
480.000000 2.34017000e+02
490.000000 3.67158000e+02
500.000000 5.64612000e+02
506.000000 4.11593000e+03
512.000000 1.12120000e+04
520.000000 1.47362000e+04
530.000000 2.23704000e+04
540.000000 2.64525000e+04
550.000000 3.98499000e+04
560.000000 5.17174000e+04
570.000000 6.70182000e+04
580.000000 7.25507000e+04
590.000000 1.01447000e+05
600.000000 1.34702000e+05
610.000000 1.68086000e+05
620.000000 2.06427000e+05
630.000000 2.52738000e+05
640.000000 3.03766000e+05
650.000000 3.68660000e+05
658.000000 4.27010000e+05
665.000000 4.82019000e+05
675.000000 5.67949000e+05
685.000000 6.67808000e+05
695.000000 7.92183000e+05
705.000000 9.23282000e+05
716.000000 1.08612000e+06
726.000000 1.25282000e+06
735.000000 1.42337000e+06
745.000000 1.63296000e+06
755.000000 1.86367000e+06
765.000000 2.11441000e+06
775.000000 2.39620000e+06
785.000000 2.70174000e+06
795.000000 3.03273000e+06
805.000000 3.39508000e+06
815.000000 3.78343000e+06
825.000000 4.21278000e+06
835.000000 4.62250000e+06
845.000000 5.15579000e+06
855.000000 5.66518000e+06
865.000000 6.25193000e+06
875.000000 6.85678000e+06
885.000000 7.51222000e+06
895.000000 8.19608000e+06
905.000000 8.82550000e+06
915.000000 1.58854000e+07
925.000000 7.02979000e+07
935.000000 2.73222000e+08
945.000000 1.72122000e+09
955.000000 4.01714000e+09
965.000000 5.64513000e+09
975.000000 1.65002000e+09
985.000000 8.45697000e+09
995.000000 8.90124000e+09
1005.000000 9.15318000e+09
1015.000000 7.07987000e+09
1025.000000 9.28104000e+08
1035.000000 5.73838000e+09
1045.000000 9.14134000e+09
1055.000000 9.17771000e+09
1065.000000 8.48569000e+09
1075.000000 8.93621000e+09
1085.000000 8.36967000e+09
1095.000000 8.77331000e+09
1105.000000 8.29621000e+09
1115.000000 8.29443000e+09
1125.000000 7.86068000e+09
1135.000000 8.03481000e+09
1145.000000 7.64450000e+09
1155.000000 7.79228000e+09
1165.000000 7.72042000e+09
1175.000000 6.90604000e+09
1185.000000 7.35873000e+09
1195.000000 6.44782000e+09
1205.000000 4.52301000e+09
1215.000000 6.36361000e+08
1225.000000 4.10916000e+09
1235.000000 6.24291000e+09
1245.000000 6.53214000e+09
1255.000000 6.42296000e+09
1265.000000 6.31310000e+09
1275.000000 6.37088000e+09
1285.000000 6.27759000e+09
1295.000000 5.80092000e+09
1305.000000 5.69798000e+09
1315.000000 5.96262000e+09
1325.000000 5.77103000e+09
1335.000000 5.51621000e+09
1345.000000 5.63649000e+09
1355.000000 5.57884000e+09
1365.000000 5.43978000e+09
1375.000000 5.35118000e+09
1385.000000 5.28832000e+09
1395.000000 5.10611000e+09
1405.000000 5.07968000e+09
1415.000000 5.01773000e+09
1425.000000 4.95813000e+09
1435.000000 4.88945000e+09
1442.000000 4.85133000e+09
1447.000000 4.80671000e+09
1455.000000 4.73478000e+09
1465.000000 4.64561000e+09
1475.000000 4.57764000e+09
1485.000000 4.49227000e+09
1495.000000 4.42395000e+09
1505.000000 4.32560000e+09
1512.000000 4.25664000e+09
1517.000000 4.24942000e+09
1525.000000 4.18017000e+09
1535.000000 4.04786000e+09
1545.000000 4.05307000e+09
1555.000000 3.94300000e+09
1565.000000 3.91600000e+09
1575.000000 3.88905000e+09
1585.000000 3.83264000e+09
1595.000000 3.79258000e+09
1605.000000 3.68638000e+09
1615.000000 3.63149000e+09
1625.000000 3.59834000e+09
1635.000000 3.55855000e+09
1645.000000 3.49885000e+09
1655.000000 3.43303000e+09
1665.000000 3.42807000e+09
1672.000000 3.32382000e+09
1677.000000 3.36378000e+09
1685.000000 3.32913000e+09
1695.000000 3.26583000e+09
1705.000000 3.20003000e+09
1715.000000 3.13926000e+09
1725.000000 3.09132000e+09
1735.000000 3.07681000e+09
1745.000000 3.01987000e+09
1755.000000 3.00244000e+09
1765.000000 2.87987000e+09
1775.000000 2.89964000e+09
1785.000000 2.86346000e+09
1795.000000 2.84147000e+09
1805.000000 2.80440000e+09
1815.000000 2.75312000e+09
1825.000000 2.72597000e+09
1835.000000 2.68616000e+09
1845.000000 2.61440000e+09
1855.000000 2.54425000e+09
1865.000000 2.52689000e+09
1875.000000 2.53559000e+09
1885.000000 2.45564000e+09
1895.000000 2.39559000e+09
1905.000000 2.42147000e+09
1915.000000 2.35228000e+09
1925.000000 2.32028000e+09
1935.000000 2.31306000e+09
1945.000000 2.30727000e+09
1955.000000 2.23473000e+09
1967.000000 2.24348000e+09
1976.000000 2.23428000e+09
1984.000000 2.18644000e+09
1995.000000 2.13125000e+09
2005.000000 2.13900000e+09
2015.000000 2.12274000e+09
2025.000000 2.10550000e+09
2035.000000 2.06712000e+09
2045.000000 2.04191000e+09
2055.000000 1.98560000e+09
2065.000000 1.97728000e+09
2074.000000 1.98424000e+09
2078.000000 1.94625000e+09
2085.000000 1.94672000e+09
2095.000000 1.90827000e+09
2105.000000 1.90192000e+09
2115.000000 1.88355000e+09
2125.000000 1.86870000e+09
2135.000000 1.84364000e+09
2145.000000 1.81740000e+09
2155.000000 1.80097000e+09
2165.000000 1.77602000e+09
2175.000000 1.75502000e+09
2185.000000 1.73671000e+09
2195.000000 1.72006000e+09
2205.000000 1.69690000e+09
2215.000000 1.67493000e+09
2225.000000 1.65268000e+09
2235.000000 1.63959000e+09
2245.000000 1.62112000e+09
2255.000000 1.59974000e+09
2265.000000 1.58476000e+09
2275.000000 1.56548000e+09
2285.000000 1.55079000e+09
2295.000000 1.52486000e+09
2305.000000 1.51365000e+09
2315.000000 1.49490000e+09
2325.000000 1.48054000e+09
2335.000000 1.45593000e+09
2345.000000 1.42922000e+09
2355.000000 1.42873000e+09
2365.000000 1.40374000e+09
2375.000000 1.39488000e+09
2385.000000 1.36923000e+09
2395.000000 1.35992000e+09
2405.000000 1.34564000e+09
2415.000000 1.33039000e+09
2425.000000 1.32520000e+09
2435.000000 1.30735000e+09
2445.000000 1.29391000e+09
2455.000000 1.28389000e+09
2465.000000 1.26649000e+09
2475.000000 1.25510000e+09
2485.000000 1.24209000e+09
2495.000000 1.22017000e+09
2505.000000 1.21688000e+09
2513.000000 1.20067000e+09
2518.000000 1.20048000e+09
2525.000000 1.18810000e+09
2535.000000 1.17124000e+09
2545.000000 1.16252000e+09
2555.000000 1.15615000e+09
2565.000000 1.14063000e+09
2575.000000 1.13281000e+09
2585.000000 1.12028000e+09
2595.000000 1.10797000e+09
2605.000000 1.10048000e+09
2615.000000 1.09082000e+09
2625.000000 1.08126000e+09
2635.000000 1.06797000e+09
2645.000000 1.06379000e+09
2655.000000 1.05178000e+09
2665.000000 1.03817000e+09
2675.000000 1.02901000e+09
2685.000000 1.02412000e+09
2695.000000 1.00725000e+09
2705.000000 1.00363000e+09
2715.000000 9.92724000e+08
2725.000000 9.76066000e+08
2735.000000 9.74028000e+08
2745.000000 9.55395000e+08
2755.000000 9.47926000e+08
2765.000000 9.38125000e+08
2775.000000 9.37442000e+08
2785.000000 9.27711000e+08
2795.000000 9.04784000e+08
2805.000000 9.03851000e+08
2815.000000 9.02242000e+08
2825.000000 8.85953000e+08
2835.000000 8.79292000e+08
2845.000000 8.75914000e+08
2855.000000 8.68125000e+08
2865.000000 8.60423000e+08
2875.000000 8.52078000e+08
2885.000000 8.44280000e+08
2895.000000 8.36615000e+08
2910.000000 8.25031000e+08
2930.000000 8.09155000e+08
2950.000000 7.90342000e+08
2970.000000 7.80545000e+08
2990.000000 7.66176000e+08
3010.000000 7.52744000e+08
3030.000000 7.39392000e+08
3050.000000 7.26204000e+08
3070.000000 7.13375000e+08
3090.000000 7.00817000e+08
3110.000000 6.88560000e+08
3130.000000 6.77174000e+08
3150.000000 6.65413000e+08
3170.000000 6.53856000e+08
3190.000000 6.38575000e+08
3210.000000 6.31520000e+08
3230.000000 6.20763000e+08
3250.000000 6.10293000e+08
3270.000000 6.00525000e+08
3290.000000 5.90009000e+08
3310.000000 5.80734000e+08
3330.000000 5.71164000e+08
3350.000000 5.61141000e+08
3370.000000 5.52577000e+08
3390.000000 5.43617000e+08
3410.000000 5.34829000e+08
3430.000000 5.25088000e+08
3450.000000 5.15631000e+08
3470.000000 5.08328000e+08
3490.000000 5.00199000e+08
3510.000000 4.93353000e+08
3530.000000 4.85783000e+08
3550.000000 4.78232000e+08
3570.000000 4.72120000e+08
3590.000000 4.63162000e+08
3610.000000 4.56657000e+08
3630.000000 4.48951000e+08
3640.000000 4.47227000e+08
3650.000000 4.42263000e+08
3670.000000 4.37092000e+08
3690.000000 4.26003000e+08
3710.000000 4.14881000e+08
3730.000000 4.03539000e+08
3750.000000 4.48861000e+08
3770.000000 4.58981000e+08
3790.000000 4.98526000e+08
3810.000000 5.30703000e+08
3830.000000 4.51056000e+08
3850.000000 5.55519000e+08
3870.000000 5.69261000e+08
3890.000000 4.23009000e+08
3910.000000 5.61369000e+08
3930.000000 5.58036000e+08
3950.000000 5.44915000e+08
3970.000000 3.95448000e+08
3990.000000 5.22117000e+08
4010.000000 5.24419000e+08
4030.000000 4.93688000e+08
4050.000000 5.13675000e+08
4070.000000 5.02658000e+08
4090.000000 4.50145000e+08
4110.000000 3.80942000e+08
4130.000000 4.71284000e+08
4150.000000 4.69181000e+08
4170.000000 4.66099000e+08
4190.000000 4.60094000e+08
4210.000000 4.52842000e+08
4230.000000 4.45644000e+08
4250.000000 4.38623000e+08
4270.000000 4.31052000e+08
4290.000000 4.23910000e+08
4310.000000 4.14226000e+08
4330.000000 3.62827000e+08
4350.000000 3.25892000e+08
4370.000000 3.93914000e+08
4390.000000 3.81106000e+08
4410.000000 3.86878000e+08
4430.000000 3.79515000e+08
4450.000000 3.75540000e+08
4470.000000 3.53144000e+08
4490.000000 3.63703000e+08
4510.000000 3.58928000e+08
4530.000000 3.53563000e+08
4550.000000 3.48314000e+08
4570.000000 3.43162000e+08
4590.000000 3.38121000e+08
4610.000000 3.33173000e+08
4630.000000 3.28262000e+08
4650.000000 3.23459000e+08
4670.000000 3.18811000e+08
4690.000000 3.14214000e+08
4710.000000 3.05913000e+08
4730.000000 3.05099000e+08
4750.000000 3.00632000e+08
4770.000000 2.96593000e+08
4790.000000 2.92365000e+08
4810.000000 2.87301000e+08
4830.000000 2.81147000e+08
4850.000000 2.52071000e+08
4870.000000 2.20555000e+08
4890.000000 2.67941000e+08
4910.000000 2.67263000e+08
4930.000000 2.58403000e+08
4950.000000 2.61270000e+08
4970.000000 2.57692000e+08
4990.000000 2.54163000e+08
5010.000000 2.47725000e+08
5030.000000 2.47278000e+08
5050.000000 2.42427000e+08
5070.000000 2.40665000e+08
5090.000000 2.37425000e+08
5110.000000 2.34229000e+08
5130.000000 2.31103000e+08
5150.000000 2.28019000e+08
5170.000000 2.25004000e+08
5190.000000 2.22028000e+08
5210.000000 2.19050000e+08
5230.000000 2.16221000e+08
5250.000000 2.13401000e+08
5270.000000 2.10605000e+08
5290.000000 2.07871000e+08
5310.000000 2.05186000e+08
5330.000000 2.02535000e+08
5350.000000 1.99904000e+08
5370.000000 1.97360000e+08
5390.000000 1.94848000e+08
5410.000000 1.92354000e+08
5430.000000 1.89892000e+08
5450.000000 1.87499000e+08
5470.000000 1.85136000e+08
5490.000000 1.82814000e+08
5510.000000 1.80522000e+08
5530.000000 1.78270000e+08
5550.000000 1.76046000e+08
5570.000000 1.73861000e+08
5590.000000 1.71715000e+08
5610.000000 1.69583000e+08
5630.000000 1.67512000e+08
5650.000000 1.65432000e+08
5670.000000 1.63423000e+08
5690.000000 1.61438000e+08
5710.000000 1.59489000e+08
5730.000000 1.57563000e+08
5750.000000 1.55660000e+08
5770.000000 1.53790000e+08
5790.000000 1.51943000e+08
5810.000000 1.50129000e+08
5830.000000 1.48336000e+08
5850.000000 1.46575000e+08
5870.000000 1.40854000e+08
5890.000000 1.42973000e+08
5910.000000 1.41446000e+08
5930.000000 1.39786000e+08
5950.000000 1.38146000e+08
5970.000000 1.36545000e+08
5990.000000 1.34952000e+08
6010.000000 1.33388000e+08
6030.000000 1.31852000e+08
6050.000000 1.30333000e+08
6070.000000 1.28832000e+08
6090.000000 1.27357000e+08
6110.000000 1.25909000e+08
6130.000000 1.24467000e+08
6150.000000 1.23051000e+08
6170.000000 1.21661000e+08
6190.000000 1.20296000e+08
6210.000000 1.18937000e+08
6230.000000 1.17601000e+08
6250.000000 1.16291000e+08
6270.000000 1.14994000e+08
6290.000000 1.13712000e+08
6310.000000 1.12453000e+08
6330.000000 1.11207000e+08
6350.000000 1.09938000e+08
6370.000000 1.08757000e+08
6390.000000 1.07579000e+08
6410.000000 1.06404000e+08
6430.000000 1.05242000e+08
6450.000000 1.04101000e+08
6470.000000 1.02973000e+08
6490.000000 1.01856000e+08
6510.000000 1.00538000e+08
6530.000000 9.89159000e+07
6550.000000 9.30529000e+07
6570.000000 8.13027000e+07
6590.000000 9.49282000e+07
6610.000000 9.51220000e+07
6630.000000 9.44204000e+07
6650.000000 9.35211000e+07
6670.000000 9.17502000e+07
6690.000000 9.08068000e+07
6710.000000 9.06009000e+07
6730.000000 8.96557000e+07
6750.000000 8.87200000e+07
6770.000000 8.78021000e+07
6790.000000 8.68852000e+07
6810.000000 8.59857000e+07
6830.000000 8.51033000e+07
6850.000000 8.42297000e+07
6870.000000 8.33648000e+07
6890.000000 8.25086000e+07
6910.000000 8.16687000e+07
6930.000000 8.08293000e+07
6950.000000 8.00138000e+07
6970.000000 7.91986000e+07
6990.000000 7.83990000e+07
7010.000000 7.76073000e+07
7030.000000 7.68310000e+07
7050.000000 7.60546000e+07
7070.000000 7.42961000e+07
7090.000000 7.45483000e+07
7110.000000 7.38061000e+07
7130.000000 7.30740000e+07
7150.000000 7.23503000e+07
7170.000000 7.16292000e+07
7190.000000 7.09303000e+07
7210.000000 7.02337000e+07
7230.000000 6.95134000e+07
7250.000000 6.88660000e+07
7270.000000 6.81946000e+07
7290.000000 6.71241000e+07
7310.000000 6.68701000e+07
7330.000000 6.62294000e+07
7350.000000 6.55899000e+07
7370.000000 6.49583000e+07
7390.000000 6.43347000e+07
7410.000000 6.37183000e+07
7430.000000 6.31089000e+07
7450.000000 6.25132000e+07
7470.000000 6.19183000e+07
7490.000000 6.13309000e+07
7510.000000 6.07375000e+07
7530.000000 6.01774000e+07
7550.000000 5.96105000e+07
7570.000000 5.90507000e+07
7590.000000 5.84973000e+07
7610.000000 5.79502000e+07
7630.000000 5.74100000e+07
7650.000000 5.68759000e+07
7670.000000 5.63478000e+07
7690.000000 5.58258000e+07
7710.000000 5.53103000e+07
7730.000000 5.48006000e+07
7750.000000 5.42967000e+07
7770.000000 5.37829000e+07
7790.000000 5.33072000e+07
7810.000000 5.28029000e+07
7830.000000 5.23394000e+07
7850.000000 5.18920000e+07
7870.000000 5.14212000e+07
7890.000000 5.09454000e+07
7910.000000 5.05003000e+07
7930.000000 5.00458000e+07
7950.000000 4.95952000e+07
7970.000000 4.91384000e+07
7990.000000 4.87068000e+07
8010.000000 4.82766000e+07
8030.000000 4.78430000e+07
8050.000000 4.74126000e+07
8070.000000 4.69928000e+07
8090.000000 4.65368000e+07
8110.000000 4.61380000e+07
8130.000000 4.57597000e+07
8150.000000 4.53170000e+07
8170.000000 4.49616000e+07
8190.000000 4.45463000e+07
8210.000000 4.40674000e+07
8230.000000 4.37689000e+07
8250.000000 4.34103000e+07
8270.000000 4.29158000e+07
8290.000000 4.26569000e+07
8310.000000 4.23067000e+07
8330.000000 4.19388000e+07
8350.000000 4.14560000e+07
8370.000000 4.11753000e+07
8390.000000 4.08573000e+07
8410.000000 4.04655000e+07
8430.000000 4.00670000e+07
8450.000000 3.95906000e+07
8470.000000 3.91759000e+07
8490.000000 3.90433000e+07
8510.000000 3.82883000e+07
8530.000000 3.85382000e+07
8550.000000 3.69589000e+07
8570.000000 3.84296000e+07
8590.000000 3.65068000e+07
8610.000000 3.61295000e+07
8630.000000 3.80326000e+07
8650.000000 3.67317000e+07
8670.000000 3.33899000e+07
8690.000000 3.71132000e+07
8710.000000 3.75964000e+07
8730.000000 3.63057000e+07
8750.000000 3.16194000e+07
8770.000000 3.48972000e+07
8790.000000 3.66592000e+07
8810.000000 3.65939000e+07
8830.000000 3.60080000e+07
8850.000000 3.31759000e+07
8870.000000 3.00802000e+07
8890.000000 3.44987000e+07
8910.000000 3.51246000e+07
8930.000000 3.49708000e+07
8950.000000 3.47648000e+07
8970.000000 3.43487000e+07
8990.000000 3.31808000e+07
9010.000000 2.87628000e+07
9030.000000 3.03348000e+07
9050.000000 3.28591000e+07
9070.000000 3.28119000e+07
9090.000000 3.28058000e+07
9110.000000 3.26583000e+07
9130.000000 3.24137000e+07
9150.000000 3.21335000e+07
9170.000000 3.17503000e+07
9190.000000 3.13200000e+07
9210.000000 2.96897000e+07
9230.000000 2.55693000e+07
9250.000000 2.90130000e+07
9270.000000 3.02623000e+07
9290.000000 3.03072000e+07
9310.000000 3.00467000e+07
9330.000000 2.99803000e+07
9350.000000 2.97238000e+07
9370.000000 2.95117000e+07
9390.000000 2.92793000e+07
9410.000000 2.90422000e+07
9430.000000 2.88221000e+07
9450.000000 2.85918000e+07
9470.000000 2.81666000e+07
9490.000000 2.80024000e+07
9510.000000 2.73708000e+07
9530.000000 2.58241000e+07
9550.000000 2.26473000e+07
9570.000000 2.59682000e+07
9590.000000 2.67517000e+07
9610.000000 2.66923000e+07
9630.000000 2.65109000e+07
9650.000000 2.64606000e+07
9670.000000 2.62582000e+07
9690.000000 2.60387000e+07
9710.000000 2.58053000e+07
9730.000000 2.56631000e+07
9750.000000 2.54680000e+07
9770.000000 2.52750000e+07
9790.000000 2.50842000e+07
9810.000000 2.48947000e+07
9830.000000 2.47074000e+07
9850.000000 2.45213000e+07
9870.000000 2.43374000e+07
9890.000000 2.41547000e+07
9910.000000 2.39717000e+07
9930.000000 2.37954000e+07
9950.000000 2.36177000e+07
9970.000000 2.33904000e+07
9990.000000 2.31564000e+07
10025.000000 2.17201000e+07
10075.000000 2.09506000e+07
10125.000000 2.20219000e+07
10175.000000 2.17340000e+07
10225.000000 2.13349000e+07
10275.000000 2.09576000e+07
10325.000000 2.05232000e+07
10375.000000 2.02153000e+07
10425.000000 1.98565000e+07
10475.000000 1.95057000e+07
10525.000000 1.91627000e+07
10575.000000 1.88269000e+07
10625.000000 1.84990000e+07
10675.000000 1.81532000e+07
10725.000000 1.78635000e+07
10775.000000 1.75560000e+07
10825.000000 1.70794000e+07
10875.000000 1.68600000e+07
10925.000000 1.51351000e+07
10975.000000 1.58595000e+07
11025.000000 1.60054000e+07
11075.000000 1.58336000e+07
11125.000000 1.55799000e+07
11175.000000 1.53210000e+07
11225.000000 1.50622000e+07
11275.000000 1.48181000e+07
11325.000000 1.45753000e+07
11375.000000 1.43371000e+07
11425.000000 1.41037000e+07
11475.000000 1.38749000e+07
11525.000000 1.36510000e+07
11575.000000 1.34312000e+07
11625.000000 1.32161000e+07
11675.000000 1.30053000e+07
11725.000000 1.27987000e+07
11775.000000 1.25960000e+07
11825.000000 1.23976000e+07
11875.000000 1.22031000e+07
11925.000000 1.20122000e+07
11975.000000 1.17490000e+07
12025.000000 1.16416000e+07
12075.000000 1.14616000e+07
12125.000000 1.12853000e+07
12175.000000 1.11122000e+07
12225.000000 1.09426000e+07
12275.000000 1.07762000e+07
12325.000000 1.06128000e+07
12375.000000 1.04526000e+07
12425.000000 1.02955000e+07
12475.000000 1.01412000e+07
12525.000000 9.97708000e+06
12575.000000 9.84119000e+06
12625.000000 9.69533000e+06
12675.000000 9.55215000e+06
12725.000000 9.39348000e+06
12775.000000 9.09087000e+06
12825.000000 8.31078000e+06
12875.000000 8.91020000e+06
12925.000000 8.86418000e+06
12975.000000 8.71051000e+06
13025.000000 8.62133000e+06
13075.000000 8.49778000e+06
