# Kurucz ODFNEW /NOVER, alpha: 0.0 (2003)
# teff = 19000 K (value for the effective temperature for the model. Temperatures are given in K)
# logg = 3 log(cm/s2) (value for Log(G) for the model.)
# lh = 1.25  (l/Hp where l is the  mixing length of the convective element and Hp is the pressure scale height)
# meta = 0.2  (value for the Metallicity for the model.)
# vtur = 2 km/s (Microturbulence velocity)
# alpha = 0  (Alpha)
#
# column 1: WAVELENGTH (ANGSTROM), Wavelength in Angstrom
# column 2: FLUX (ERG/CM2/S/A), Flux in erg/cm2/s/A
147.200000 4.45392000e-22
151.000000 3.05881000e-21
155.200000 2.25706000e-20
158.800000 1.15171000e-19
162.000000 4.63390000e-19
166.000000 2.46085000e-18
170.300000 1.36327000e-17
173.400000 4.46699000e-17
176.800000 1.56666000e-16
180.200000 5.25543000e-16
181.700000 8.84070000e-16
186.100000 3.89062000e-15
191.000000 1.87885000e-14
193.900000 4.60185000e-14
198.400000 1.75901000e-13
201.800000 4.66665000e-13
205.000000 1.13669000e-12
210.500000 4.93963000e-12
216.200000 2.09850000e-11
219.800000 5.03943000e-11
223.000000 1.07271000e-10
226.800000 2.56088000e-10
230.000000 3.02687000e-09
234.000000 8.19907000e-09
240.000000 2.67589000e-08
246.500000 8.98636000e-08
252.400000 2.57726000e-07
256.800000 5.33729000e-07
260.000000 9.34133000e-07
264.000000 1.77543000e-06
268.500000 3.56871000e-06
273.500000 7.52630000e-06
278.500000 1.55583000e-05
284.000000 3.39073000e-05
290.000000 7.54534000e-05
296.000000 1.62360000e-04
301.000000 3.00278000e-04
308.000000 6.85241000e-04
318.000000 2.14096000e-03
328.000000 6.02507000e-03
338.000000 1.63870000e-02
348.000000 4.13953000e-02
357.000000 9.91949000e-02
366.000000 2.11887000e-01
375.000000 4.23410000e-01
385.000000 8.90502000e-01
395.000000 1.80446000e+00
405.000000 3.50971000e+00
414.000000 6.23794000e+00
422.000000 1.00800000e+01
430.000000 1.61317000e+01
441.000000 2.98507000e+01
451.000000 5.06267000e+01
460.000000 7.95013000e+01
470.000000 1.29556000e+02
480.000000 2.05255000e+02
490.000000 3.20667000e+02
500.000000 4.90095000e+02
506.000000 3.25016000e+03
512.000000 4.59559000e+04
520.000000 5.93293000e+04
530.000000 8.71829000e+04
540.000000 9.99599000e+04
550.000000 1.64951000e+05
560.000000 2.05724000e+05
570.000000 2.75584000e+05
580.000000 2.68179000e+05
590.000000 3.88537000e+05
600.000000 5.16643000e+05
610.000000 6.69122000e+05
620.000000 7.83566000e+05
630.000000 9.28915000e+05
640.000000 9.94893000e+05
650.000000 9.56135000e+05
658.000000 1.41316000e+06
665.000000 1.58061000e+06
675.000000 1.75067000e+06
685.000000 1.92586000e+06
695.000000 2.48488000e+06
705.000000 2.72801000e+06
716.000000 3.19553000e+06
726.000000 3.52881000e+06
735.000000 3.85199000e+06
745.000000 4.56582000e+06
755.000000 5.16130000e+06
765.000000 5.82000000e+06
775.000000 6.56019000e+06
785.000000 7.29402000e+06
795.000000 7.91875000e+06
805.000000 8.61852000e+06
815.000000 9.32089000e+06
825.000000 1.04978000e+07
835.000000 1.02500000e+07
845.000000 1.18565000e+07
855.000000 1.27465000e+07
865.000000 1.40712000e+07
875.000000 1.55514000e+07
885.000000 1.73885000e+07
895.000000 1.88190000e+07
905.000000 1.87890000e+07
915.000000 4.25032000e+07
925.000000 6.17429000e+08
935.000000 1.62654000e+09
945.000000 3.08922000e+09
955.000000 4.29592000e+09
965.000000 4.10661000e+09
975.000000 5.61394000e+08
985.000000 2.77387000e+09
995.000000 3.68778000e+09
1005.000000 5.24051000e+09
1015.000000 5.34949000e+09
1025.000000 3.09477000e+09
1035.000000 3.15606000e+09
1045.000000 7.01246000e+09
1055.000000 6.56875000e+09
1065.000000 4.76432000e+09
1075.000000 6.28097000e+09
1085.000000 5.02423000e+09
1095.000000 6.48910000e+09
1105.000000 5.36605000e+09
1115.000000 4.70296000e+09
1125.000000 3.95624000e+09
1135.000000 6.16553000e+09
1145.000000 5.46319000e+09
1155.000000 5.86574000e+09
1165.000000 5.92897000e+09
1175.000000 3.41741000e+09
1185.000000 5.94005000e+09
1195.000000 4.18669000e+09
1205.000000 1.53535000e+09
1215.000000 2.11357000e+09
1225.000000 4.94540000e+09
1235.000000 6.35134000e+09
1245.000000 6.31899000e+09
1255.000000 6.20816000e+09
1265.000000 5.87074000e+09
1275.000000 6.27332000e+09
1285.000000 6.34215000e+09
1295.000000 3.24068000e+09
1305.000000 3.43033000e+09
1315.000000 6.02405000e+09
1325.000000 5.56696000e+09
1335.000000 4.68126000e+09
1345.000000 5.81059000e+09
1355.000000 5.59403000e+09
1365.000000 4.80530000e+09
1375.000000 4.84127000e+09
1385.000000 4.77671000e+09
1395.000000 3.49390000e+09
1405.000000 3.87908000e+09
1415.000000 4.13001000e+09
1425.000000 4.33588000e+09
1435.000000 4.46611000e+09
1442.000000 4.65349000e+09
1447.000000 4.54653000e+09
1455.000000 4.40877000e+09
1465.000000 3.98561000e+09
1475.000000 4.13037000e+09
1485.000000 4.10619000e+09
1495.000000 4.02666000e+09
1505.000000 3.63319000e+09
1512.000000 3.13806000e+09
1517.000000 3.33022000e+09
1525.000000 3.49446000e+09
1535.000000 2.94080000e+09
1545.000000 2.95462000e+09
1555.000000 2.87452000e+09
1565.000000 3.05924000e+09
1575.000000 3.27885000e+09
1585.000000 3.37916000e+09
1595.000000 3.34240000e+09
1605.000000 3.41759000e+09
1615.000000 3.43173000e+09
1625.000000 3.26721000e+09
1635.000000 3.56080000e+09
1645.000000 3.54075000e+09
1655.000000 3.37087000e+09
1665.000000 3.63177000e+09
1672.000000 3.45252000e+09
1677.000000 3.63584000e+09
1685.000000 3.68287000e+09
1695.000000 3.40037000e+09
1705.000000 3.29282000e+09
1715.000000 3.03986000e+09
1725.000000 3.04523000e+09
1735.000000 3.27004000e+09
1745.000000 3.12194000e+09
1755.000000 3.23116000e+09
1765.000000 3.08134000e+09
1775.000000 2.94293000e+09
1785.000000 3.04531000e+09
1795.000000 3.23737000e+09
1805.000000 3.29988000e+09
1815.000000 2.77988000e+09
1825.000000 2.99709000e+09
1835.000000 2.84894000e+09
1845.000000 2.56936000e+09
1855.000000 2.40247000e+09
1865.000000 2.50339000e+09
1875.000000 2.88224000e+09
1885.000000 2.48607000e+09
1895.000000 2.27778000e+09
1905.000000 2.60117000e+09
1915.000000 2.31982000e+09
1925.000000 2.24271000e+09
1935.000000 2.44175000e+09
1945.000000 2.47347000e+09
1955.000000 2.21472000e+09
1967.000000 2.51339000e+09
1976.000000 2.60372000e+09
1984.000000 2.40714000e+09
1995.000000 2.33788000e+09
2005.000000 2.51114000e+09
2015.000000 2.41112000e+09
2025.000000 2.56229000e+09
2035.000000 2.28163000e+09
2045.000000 2.38846000e+09
2055.000000 2.28909000e+09
2065.000000 2.26300000e+09
2074.000000 2.48372000e+09
2078.000000 2.12894000e+09
2085.000000 2.33357000e+09
2095.000000 2.17994000e+09
2105.000000 2.25416000e+09
2115.000000 2.28435000e+09
2125.000000 2.30278000e+09
2135.000000 2.24010000e+09
2145.000000 2.13255000e+09
2155.000000 2.25680000e+09
2165.000000 2.25376000e+09
2175.000000 2.23491000e+09
2185.000000 2.11595000e+09
2195.000000 2.19601000e+09
2205.000000 2.17505000e+09
2215.000000 2.10332000e+09
2225.000000 2.03522000e+09
2235.000000 2.07105000e+09
2245.000000 2.08030000e+09
2255.000000 1.97595000e+09
2265.000000 2.04710000e+09
2275.000000 2.03722000e+09
2285.000000 2.05774000e+09
2295.000000 1.89179000e+09
2305.000000 1.96412000e+09
2315.000000 1.87352000e+09
2325.000000 1.83862000e+09
2335.000000 1.75090000e+09
2345.000000 1.76361000e+09
2355.000000 1.78949000e+09
2365.000000 1.74879000e+09
2375.000000 1.74084000e+09
2385.000000 1.69892000e+09
2395.000000 1.73921000e+09
2405.000000 1.66075000e+09
2415.000000 1.68740000e+09
2425.000000 1.69927000e+09
2435.000000 1.62256000e+09
2445.000000 1.66944000e+09
2455.000000 1.66768000e+09
2465.000000 1.62708000e+09
2475.000000 1.58936000e+09
2485.000000 1.60874000e+09
2495.000000 1.47502000e+09
2505.000000 1.58046000e+09
2513.000000 1.48135000e+09
2518.000000 1.55913000e+09
2525.000000 1.50204000e+09
2535.000000 1.48881000e+09
2545.000000 1.42566000e+09
2555.000000 1.48365000e+09
2565.000000 1.46192000e+09
2575.000000 1.49672000e+09
2585.000000 1.47997000e+09
2595.000000 1.46999000e+09
2605.000000 1.45595000e+09
2615.000000 1.43696000e+09
2625.000000 1.42876000e+09
2635.000000 1.42548000e+09
2645.000000 1.43599000e+09
2655.000000 1.43706000e+09
2665.000000 1.37150000e+09
2675.000000 1.39549000e+09
2685.000000 1.38213000e+09
2695.000000 1.33642000e+09
2705.000000 1.32146000e+09
2715.000000 1.31363000e+09
2725.000000 1.30386000e+09
2735.000000 1.31438000e+09
2745.000000 1.25153000e+09
2755.000000 1.25169000e+09
2765.000000 1.25197000e+09
2775.000000 1.27114000e+09
2785.000000 1.25357000e+09
2795.000000 1.20320000e+09
2805.000000 1.22743000e+09
2815.000000 1.22790000e+09
2825.000000 1.21413000e+09
2835.000000 1.15233000e+09
2845.000000 1.15900000e+09
2855.000000 1.15302000e+09
2865.000000 1.17045000e+09
2875.000000 1.15294000e+09
2885.000000 1.14537000e+09
2895.000000 1.12798000e+09
2910.000000 1.11839000e+09
2930.000000 1.09667000e+09
2950.000000 1.06545000e+09
2970.000000 1.05559000e+09
2990.000000 1.03477000e+09
3010.000000 1.00772000e+09
3030.000000 1.00890000e+09
3050.000000 9.89803000e+08
3070.000000 9.73351000e+08
3090.000000 9.44931000e+08
3110.000000 9.34569000e+08
3130.000000 9.18434000e+08
3150.000000 9.03885000e+08
3170.000000 8.80744000e+08
3190.000000 8.60553000e+08
3210.000000 8.53190000e+08
3230.000000 8.38324000e+08
3250.000000 8.25791000e+08
3270.000000 8.10295000e+08
3290.000000 7.95600000e+08
3310.000000 7.83986000e+08
3330.000000 7.69161000e+08
3350.000000 7.54936000e+08
3370.000000 7.42452000e+08
3390.000000 7.31390000e+08
3410.000000 7.19661000e+08
3430.000000 7.03127000e+08
3450.000000 6.89143000e+08
3470.000000 6.79095000e+08
3490.000000 6.68055000e+08
3510.000000 6.59638000e+08
3530.000000 6.51368000e+08
3550.000000 6.40761000e+08
3570.000000 6.32361000e+08
3590.000000 6.15221000e+08
3610.000000 6.04347000e+08
3630.000000 5.98220000e+08
3640.000000 5.97781000e+08
3650.000000 5.84811000e+08
3670.000000 5.78035000e+08
3690.000000 5.57398000e+08
3710.000000 5.59424000e+08
3730.000000 5.65220000e+08
3750.000000 6.34915000e+08
3770.000000 6.35220000e+08
3790.000000 6.51797000e+08
3810.000000 6.76894000e+08
3830.000000 6.00372000e+08
3850.000000 6.77770000e+08
3870.000000 6.64720000e+08
3890.000000 5.76393000e+08
3910.000000 6.62131000e+08
3930.000000 6.34871000e+08
3950.000000 6.37078000e+08
3970.000000 5.34849000e+08
3990.000000 6.14548000e+08
4010.000000 6.07824000e+08
4030.000000 5.80164000e+08
4050.000000 5.89859000e+08
4070.000000 5.68520000e+08
4090.000000 5.47412000e+08
4110.000000 4.91672000e+08
4130.000000 5.39952000e+08
4150.000000 5.35547000e+08
4170.000000 5.32134000e+08
4190.000000 5.28633000e+08
4210.000000 5.23388000e+08
4230.000000 5.12429000e+08
4250.000000 5.01486000e+08
4270.000000 4.86695000e+08
4290.000000 4.84952000e+08
4310.000000 4.73383000e+08
4330.000000 4.46616000e+08
4350.000000 4.10207000e+08
4370.000000 4.50077000e+08
4390.000000 4.44637000e+08
4410.000000 4.42705000e+08
4430.000000 4.35473000e+08
4450.000000 4.32290000e+08
4470.000000 4.15402000e+08
4490.000000 4.17372000e+08
4510.000000 4.15438000e+08
4530.000000 4.07280000e+08
4550.000000 4.02560000e+08
4570.000000 3.96591000e+08
4590.000000 3.90765000e+08
4610.000000 3.82400000e+08
4630.000000 3.76591000e+08
4650.000000 3.68724000e+08
4670.000000 3.67248000e+08
4690.000000 3.64413000e+08
4710.000000 3.50592000e+08
4730.000000 3.49335000e+08
4750.000000 3.44562000e+08
4770.000000 3.45272000e+08
4790.000000 3.38881000e+08
4810.000000 3.31770000e+08
4830.000000 3.27591000e+08
4850.000000 3.14180000e+08
4870.000000 2.82457000e+08
4890.000000 3.15158000e+08
4910.000000 3.11283000e+08
4930.000000 3.01199000e+08
4950.000000 3.02414000e+08
4970.000000 2.99771000e+08
4990.000000 2.94710000e+08
5010.000000 2.81916000e+08
5030.000000 2.85619000e+08
5050.000000 2.78058000e+08
5070.000000 2.78712000e+08
5090.000000 2.74723000e+08
5110.000000 2.70052000e+08
5130.000000 2.63799000e+08
5150.000000 2.61413000e+08
5170.000000 2.60550000e+08
5190.000000 2.57189000e+08
5210.000000 2.51166000e+08
5230.000000 2.50171000e+08
5250.000000 2.47217000e+08
5270.000000 2.43377000e+08
5290.000000 2.41136000e+08
5310.000000 2.37559000e+08
5330.000000 2.34308000e+08
5350.000000 2.30611000e+08
5370.000000 2.28988000e+08
5390.000000 2.25918000e+08
5410.000000 2.23092000e+08
5430.000000 2.19330000e+08
5450.000000 2.16810000e+08
5470.000000 2.13931000e+08
5490.000000 2.11775000e+08
5510.000000 2.09298000e+08
5530.000000 2.06345000e+08
5550.000000 2.04359000e+08
5570.000000 2.01510000e+08
5590.000000 1.99359000e+08
5610.000000 1.96480000e+08
5630.000000 1.94694000e+08
5650.000000 1.89979000e+08
5670.000000 1.87504000e+08
5690.000000 1.85676000e+08
5710.000000 1.84644000e+08
5730.000000 1.82542000e+08
5750.000000 1.80089000e+08
5770.000000 1.78538000e+08
5790.000000 1.76273000e+08
5810.000000 1.74168000e+08
5830.000000 1.71767000e+08
5850.000000 1.69967000e+08
5870.000000 1.63771000e+08
5890.000000 1.64224000e+08
5910.000000 1.63546000e+08
5930.000000 1.61491000e+08
5950.000000 1.59035000e+08
5970.000000 1.58394000e+08
5990.000000 1.55868000e+08
6010.000000 1.54686000e+08
6030.000000 1.52626000e+08
6050.000000 1.51001000e+08
6070.000000 1.49404000e+08
6090.000000 1.47561000e+08
6110.000000 1.45991000e+08
6130.000000 1.44428000e+08
6150.000000 1.41747000e+08
6170.000000 1.40800000e+08
6190.000000 1.39459000e+08
6210.000000 1.37937000e+08
6230.000000 1.36364000e+08
6250.000000 1.34345000e+08
6270.000000 1.33154000e+08
6290.000000 1.31699000e+08
6310.000000 1.30042000e+08
6330.000000 1.28902000e+08
6350.000000 1.26680000e+08
6370.000000 1.25608000e+08
6390.000000 1.24472000e+08
6410.000000 1.23137000e+08
6430.000000 1.22026000e+08
6450.000000 1.20555000e+08
6470.000000 1.18965000e+08
6490.000000 1.17732000e+08
6510.000000 1.16539000e+08
6530.000000 1.15101000e+08
6550.000000 1.11739000e+08
6570.000000 9.93821000e+07
6590.000000 1.10100000e+08
6610.000000 1.10384000e+08
6630.000000 1.09350000e+08
6650.000000 1.08225000e+08
6670.000000 1.06256000e+08
6690.000000 1.05184000e+08
6710.000000 1.04867000e+08
6730.000000 1.03613000e+08
6750.000000 1.02718000e+08
6770.000000 1.01669000e+08
6790.000000 9.96324000e+07
6810.000000 9.93242000e+07
6830.000000 9.83396000e+07
6850.000000 9.74450000e+07
6870.000000 9.64395000e+07
6890.000000 9.54122000e+07
6910.000000 9.44110000e+07
6930.000000 9.33726000e+07
6950.000000 9.25474000e+07
6970.000000 9.16216000e+07
6990.000000 9.06354000e+07
7010.000000 8.97203000e+07
7030.000000 8.88141000e+07
7050.000000 8.78107000e+07
7070.000000 8.55886000e+07
7090.000000 8.61856000e+07
7110.000000 8.44569000e+07
7130.000000 8.37096000e+07
7150.000000 8.35514000e+07
7170.000000 8.27489000e+07
7190.000000 8.19758000e+07
7210.000000 8.11593000e+07
7230.000000 7.90245000e+07
7250.000000 7.94348000e+07
7270.000000 7.87631000e+07
7290.000000 7.73817000e+07
7310.000000 7.72126000e+07
7330.000000 7.64553000e+07
7350.000000 7.57538000e+07
7370.000000 7.50173000e+07
7390.000000 7.42876000e+07
7410.000000 7.35715000e+07
7430.000000 7.27665000e+07
7450.000000 7.21319000e+07
7470.000000 7.12601000e+07
7490.000000 7.07189000e+07
7510.000000 7.00221000e+07
7530.000000 6.93583000e+07
7550.000000 6.87666000e+07
7570.000000 6.81211000e+07
7590.000000 6.74421000e+07
7610.000000 6.68213000e+07
7630.000000 6.61997000e+07
7650.000000 6.55837000e+07
7670.000000 6.49731000e+07
7690.000000 6.43553000e+07
7710.000000 6.37557000e+07
7730.000000 6.31488000e+07
7750.000000 6.25755000e+07
7770.000000 6.14738000e+07
7790.000000 6.14329000e+07
7810.000000 6.08185000e+07
7830.000000 6.03122000e+07
7850.000000 5.96519000e+07
7870.000000 5.91186000e+07
7890.000000 5.84204000e+07
7910.000000 5.80622000e+07
7930.000000 5.75007000e+07
7950.000000 5.68142000e+07
7970.000000 5.63983000e+07
7990.000000 5.57262000e+07
8010.000000 5.54043000e+07
8030.000000 5.49393000e+07
8050.000000 5.44690000e+07
8070.000000 5.40305000e+07
8090.000000 5.34442000e+07
8110.000000 5.29501000e+07
8130.000000 5.26203000e+07
8150.000000 5.20561000e+07
8170.000000 5.17310000e+07
8190.000000 5.11524000e+07
8210.000000 5.04535000e+07
8230.000000 5.00345000e+07
8250.000000 4.98011000e+07
8270.000000 4.90355000e+07
8290.000000 4.88453000e+07
8310.000000 4.84315000e+07
8330.000000 4.80391000e+07
8350.000000 4.73905000e+07
8370.000000 4.69809000e+07
8390.000000 4.66817000e+07
8410.000000 4.62192000e+07
8430.000000 4.57944000e+07
8450.000000 4.49960000e+07
8470.000000 4.45910000e+07
8490.000000 4.49550000e+07
8510.000000 4.35501000e+07
8530.000000 4.45567000e+07
8550.000000 4.20706000e+07
8570.000000 4.46039000e+07
8590.000000 4.21265000e+07
8610.000000 4.17577000e+07
8630.000000 4.40182000e+07
8650.000000 4.27691000e+07
8670.000000 3.89615000e+07
8690.000000 4.30837000e+07
8710.000000 4.31820000e+07
8730.000000 4.19335000e+07
8750.000000 3.74695000e+07
8770.000000 4.09591000e+07
8790.000000 4.18018000e+07
8810.000000 4.14719000e+07
8830.000000 4.10359000e+07
8850.000000 3.89897000e+07
8870.000000 3.58304000e+07
8890.000000 3.99114000e+07
8910.000000 3.97950000e+07
8930.000000 3.94224000e+07
8950.000000 3.92943000e+07
8970.000000 3.89437000e+07
8990.000000 3.80882000e+07
9010.000000 3.41595000e+07
9030.000000 3.61349000e+07
9050.000000 3.75490000e+07
9070.000000 3.70319000e+07
9090.000000 3.68955000e+07
9110.000000 3.67605000e+07
9130.000000 3.64957000e+07
9150.000000 3.62193000e+07
9170.000000 3.58061000e+07
9190.000000 3.55246000e+07
9210.000000 3.43424000e+07
9230.000000 3.04752000e+07
9250.000000 3.38875000e+07
9270.000000 3.40444000e+07
9290.000000 3.41996000e+07
9310.000000 3.38107000e+07
9330.000000 3.36114000e+07
9350.000000 3.34001000e+07
9370.000000 3.31641000e+07
9390.000000 3.28965000e+07
9410.000000 3.24947000e+07
9430.000000 3.23875000e+07
9450.000000 3.21342000e+07
9470.000000 3.17070000e+07
9490.000000 3.16129000e+07
9510.000000 3.10372000e+07
9530.000000 3.01036000e+07
9550.000000 2.70701000e+07
9570.000000 3.02083000e+07
9590.000000 3.03639000e+07
9610.000000 3.00695000e+07
9630.000000 2.96844000e+07
9650.000000 2.97395000e+07
9670.000000 2.94913000e+07
9690.000000 2.92485000e+07
9710.000000 2.89651000e+07
9730.000000 2.88386000e+07
9750.000000 2.86039000e+07
9770.000000 2.84032000e+07
9790.000000 2.81843000e+07
9810.000000 2.79599000e+07
9830.000000 2.77472000e+07
9850.000000 2.75473000e+07
9870.000000 2.73244000e+07
9890.000000 2.70938000e+07
9910.000000 2.67824000e+07
9930.000000 2.67316000e+07
9950.000000 2.65295000e+07
9970.000000 2.63140000e+07
9990.000000 2.61302000e+07
10025.000000 2.50409000e+07
10075.000000 2.41895000e+07
10125.000000 2.47453000e+07
10175.000000 2.43979000e+07
10225.000000 2.39542000e+07
10275.000000 2.35318000e+07
10325.000000 2.30252000e+07
10375.000000 2.26967000e+07
10425.000000 2.22944000e+07
10475.000000 2.18960000e+07
10525.000000 2.14977000e+07
10575.000000 2.11301000e+07
10625.000000 2.07646000e+07
10675.000000 2.03354000e+07
10725.000000 2.00454000e+07
10775.000000 1.96982000e+07
10825.000000 1.91344000e+07
10875.000000 1.90194000e+07
10925.000000 1.75137000e+07
10975.000000 1.81717000e+07
11025.000000 1.79772000e+07
11075.000000 1.77717000e+07
11125.000000 1.74765000e+07
11175.000000 1.71829000e+07
11225.000000 1.68885000e+07
11275.000000 1.65728000e+07
11325.000000 1.63125000e+07
11375.000000 1.60762000e+07
11425.000000 1.58033000e+07
11475.000000 1.55569000e+07
11525.000000 1.53039000e+07
11575.000000 1.50477000e+07
11625.000000 1.48040000e+07
11675.000000 1.45700000e+07
11725.000000 1.43421000e+07
11775.000000 1.40934000e+07
11825.000000 1.38923000e+07
11875.000000 1.36714000e+07
11925.000000 1.34608000e+07
11975.000000 1.31579000e+07
12025.000000 1.30432000e+07
12075.000000 1.28409000e+07
12125.000000 1.26416000e+07
12175.000000 1.24470000e+07
12225.000000 1.22562000e+07
12275.000000 1.20688000e+07
12325.000000 1.18843000e+07
12375.000000 1.17048000e+07
12425.000000 1.15290000e+07
12475.000000 1.13434000e+07
12525.000000 1.11622000e+07
12575.000000 1.10102000e+07
12625.000000 1.08506000e+07
12675.000000 1.06925000e+07
12725.000000 1.05349000e+07
12775.000000 1.02520000e+07
12825.000000 9.61540000e+06
12875.000000 1.00540000e+07
12925.000000 9.93152000e+06
12975.000000 9.73473000e+06
13025.000000 9.64637000e+06
13075.000000 9.50795000e+06
