# Kurucz ODFNEW /NOVER, alpha: 0.0 (2003)
# teff = 28000 K (value for the effective temperature for the model. Temperatures are given in K)
# logg = 3.5 log(cm/s2) (value for Log(G) for the model.)
# lh = 1.25  (l/Hp where l is the  mixing length of the convective element and Hp is the pressure scale height)
# meta = -1.5  (value for the Metallicity for the model.)
# vtur = 2 km/s (Microturbulence velocity)
# alpha = 0  (Alpha)
#
# column 1: WAVELENGTH (ANGSTROM), Wavelength in Angstrom
# column 2: FLUX (ERG/CM2/S/A), Flux in erg/cm2/s/A
147.200000 1.93408000e-10
151.000000 7.04090000e-10
155.200000 2.72986000e-09
158.800000 8.24781000e-09
162.000000 2.11749000e-08
166.000000 6.54273000e-08
170.300000 2.07498000e-07
173.400000 4.60745000e-07
176.800000 1.07077000e-06
180.200000 2.41198000e-06
181.700000 3.41836000e-06
186.100000 9.21819000e-06
191.000000 2.64003000e-05
193.900000 4.80145000e-05
198.400000 1.17414000e-04
201.800000 2.24919000e-04
205.000000 4.06715000e-04
210.500000 1.07976000e-03
216.200000 2.82299000e-03
219.800000 5.04949000e-03
223.000000 8.33397000e-03
226.800000 1.48339000e-02
230.000000 8.11215000e+00
234.000000 2.28256000e+01
240.000000 4.39753000e+01
246.500000 8.98202000e+01
252.400000 1.65202000e+02
256.800000 2.03280000e+02
260.000000 3.46775000e+02
264.000000 4.83809000e+02
268.500000 7.29136000e+02
273.500000 1.10608000e+03
278.500000 1.62155000e+03
284.000000 2.63593000e+03
290.000000 4.05398000e+03
296.000000 6.05581000e+03
301.000000 7.68212000e+03
308.000000 1.12152000e+04
318.000000 2.54137000e+04
328.000000 4.35965000e+04
338.000000 7.60654000e+04
348.000000 1.25041000e+05
357.000000 2.00075000e+05
366.000000 3.06910000e+05
375.000000 4.31769000e+05
385.000000 6.50600000e+05
395.000000 9.43315000e+05
405.000000 1.32239000e+06
414.000000 1.79322000e+06
422.000000 2.25677000e+06
430.000000 2.86286000e+06
441.000000 3.90694000e+06
451.000000 5.11657000e+06
460.000000 6.35402000e+06
470.000000 8.16696000e+06
480.000000 1.02448000e+07
490.000000 1.27343000e+07
500.000000 1.58498000e+07
506.000000 1.15628000e+08
512.000000 3.96182000e+08
520.000000 3.96722000e+08
530.000000 4.13169000e+08
540.000000 3.89003000e+08
550.000000 4.64504000e+08
560.000000 5.14159000e+08
570.000000 5.54055000e+08
580.000000 5.22975000e+08
590.000000 5.99185000e+08
600.000000 6.18516000e+08
610.000000 6.66561000e+08
620.000000 7.20921000e+08
630.000000 7.54645000e+08
640.000000 7.62610000e+08
650.000000 8.10071000e+08
658.000000 8.42813000e+08
665.000000 8.80860000e+08
675.000000 9.02580000e+08
685.000000 9.07410000e+08
695.000000 1.01719000e+09
705.000000 1.01621000e+09
716.000000 1.10795000e+09
726.000000 1.13303000e+09
735.000000 1.17679000e+09
745.000000 1.23786000e+09
755.000000 1.27600000e+09
765.000000 1.32506000e+09
775.000000 1.37783000e+09
785.000000 1.44468000e+09
795.000000 1.47962000e+09
805.000000 1.51971000e+09
815.000000 1.54951000e+09
825.000000 1.61994000e+09
835.000000 1.56571000e+09
845.000000 1.68652000e+09
855.000000 1.72857000e+09
865.000000 1.78606000e+09
875.000000 1.84604000e+09
885.000000 1.90413000e+09
895.000000 1.95301000e+09
905.000000 1.97586000e+09
915.000000 3.13047000e+09
925.000000 2.01273000e+10
935.000000 3.19552000e+10
945.000000 4.42993000e+10
955.000000 4.70486000e+10
965.000000 5.16573000e+10
975.000000 3.03575000e+10
985.000000 4.77986000e+10
995.000000 4.53015000e+10
1005.000000 4.66163000e+10
1015.000000 4.59034000e+10
1025.000000 3.48178000e+10
1035.000000 4.35100000e+10
1045.000000 4.71349000e+10
1055.000000 4.58496000e+10
1065.000000 4.21162000e+10
1075.000000 4.30576000e+10
1085.000000 4.05139000e+10
1095.000000 4.24825000e+10
1105.000000 4.10661000e+10
1115.000000 4.03509000e+10
1125.000000 3.73090000e+10
1135.000000 3.91841000e+10
1145.000000 3.74423000e+10
1155.000000 3.74859000e+10
1165.000000 3.69755000e+10
1175.000000 3.05067000e+10
1185.000000 3.48312000e+10
1195.000000 3.40475000e+10
1205.000000 3.20266000e+10
1215.000000 2.41445000e+10
1225.000000 3.22145000e+10
1235.000000 3.26088000e+10
1245.000000 3.15889000e+10
1255.000000 3.14749000e+10
1265.000000 3.11252000e+10
1275.000000 3.07339000e+10
1285.000000 3.02529000e+10
1295.000000 2.82981000e+10
1305.000000 2.84589000e+10
1315.000000 2.86552000e+10
1325.000000 2.77758000e+10
1335.000000 2.69490000e+10
1345.000000 2.69538000e+10
1355.000000 2.66108000e+10
1365.000000 2.59352000e+10
1375.000000 2.54936000e+10
1385.000000 2.50737000e+10
1395.000000 2.29074000e+10
1405.000000 2.29126000e+10
1415.000000 2.35533000e+10
1425.000000 2.27489000e+10
1435.000000 2.27824000e+10
1442.000000 2.26976000e+10
1447.000000 2.24259000e+10
1455.000000 2.19896000e+10
1465.000000 2.15921000e+10
1475.000000 2.12345000e+10
1485.000000 2.09614000e+10
1495.000000 2.04730000e+10
1505.000000 1.99939000e+10
1512.000000 1.97103000e+10
1517.000000 1.95773000e+10
1525.000000 1.92283000e+10
1535.000000 1.80960000e+10
1545.000000 1.75705000e+10
1555.000000 1.71427000e+10
1565.000000 1.73796000e+10
1575.000000 1.74862000e+10
1585.000000 1.73307000e+10
1595.000000 1.70756000e+10
1605.000000 1.63092000e+10
1615.000000 1.59591000e+10
1625.000000 1.58788000e+10
1635.000000 1.57754000e+10
1645.000000 1.51943000e+10
1655.000000 1.54720000e+10
1665.000000 1.52066000e+10
1672.000000 1.48585000e+10
1677.000000 1.52884000e+10
1685.000000 1.49592000e+10
1695.000000 1.46468000e+10
1705.000000 1.43174000e+10
1715.000000 1.39255000e+10
1725.000000 1.37088000e+10
1735.000000 1.37565000e+10
1745.000000 1.35089000e+10
1755.000000 1.33077000e+10
1765.000000 1.30352000e+10
1775.000000 1.28505000e+10
1785.000000 1.27471000e+10
1795.000000 1.25540000e+10
1805.000000 1.24477000e+10
1815.000000 1.21405000e+10
1825.000000 1.19818000e+10
1835.000000 1.18471000e+10
1845.000000 1.13605000e+10
1855.000000 1.11551000e+10
1865.000000 1.11203000e+10
1875.000000 1.10566000e+10
1885.000000 1.05939000e+10
1895.000000 1.02922000e+10
1905.000000 1.04443000e+10
1915.000000 1.01161000e+10
1925.000000 9.86488000e+09
1935.000000 9.95546000e+09
1945.000000 9.93810000e+09
1955.000000 9.44952000e+09
1967.000000 9.56894000e+09
1976.000000 9.60239000e+09
1984.000000 9.30928000e+09
1995.000000 9.02791000e+09
2005.000000 9.10433000e+09
2015.000000 9.05808000e+09
2025.000000 8.98436000e+09
2035.000000 8.73954000e+09
2045.000000 8.61284000e+09
2055.000000 7.82287000e+09
2065.000000 7.65876000e+09
2074.000000 7.85071000e+09
2078.000000 7.74618000e+09
2085.000000 7.94861000e+09
2095.000000 7.92844000e+09
2105.000000 7.94112000e+09
2115.000000 7.89795000e+09
2125.000000 7.81845000e+09
2135.000000 7.70331000e+09
2145.000000 7.56664000e+09
2155.000000 7.51540000e+09
2165.000000 7.37565000e+09
2175.000000 7.31204000e+09
2185.000000 7.18482000e+09
2195.000000 7.13444000e+09
2205.000000 7.03408000e+09
2215.000000 6.90368000e+09
2225.000000 6.83841000e+09
2235.000000 6.73821000e+09
2245.000000 6.65821000e+09
2255.000000 6.53054000e+09
2265.000000 6.47946000e+09
2275.000000 6.39424000e+09
2285.000000 6.30506000e+09
2295.000000 6.08164000e+09
2305.000000 6.10755000e+09
2315.000000 6.05146000e+09
2325.000000 5.97240000e+09
2335.000000 5.88771000e+09
2345.000000 5.82109000e+09
2355.000000 5.74432000e+09
2365.000000 5.66998000e+09
2375.000000 5.59228000e+09
2385.000000 5.48918000e+09
2395.000000 5.44134000e+09
2405.000000 5.37775000e+09
2415.000000 5.30618000e+09
2425.000000 5.24104000e+09
2435.000000 5.16828000e+09
2445.000000 5.10555000e+09
2455.000000 5.04229000e+09
2465.000000 4.97871000e+09
2475.000000 4.91402000e+09
2485.000000 4.85088000e+09
2495.000000 4.52612000e+09
2505.000000 4.72366000e+09
2513.000000 4.60451000e+09
2518.000000 4.63472000e+09
2525.000000 4.61284000e+09
2535.000000 4.55677000e+09
2545.000000 4.48147000e+09
2555.000000 4.43660000e+09
2565.000000 4.38787000e+09
2575.000000 4.33454000e+09
2585.000000 4.28173000e+09
2595.000000 4.22938000e+09
2605.000000 4.19436000e+09
2615.000000 4.14196000e+09
2625.000000 4.09122000e+09
2635.000000 4.03689000e+09
2645.000000 3.98731000e+09
2655.000000 3.93729000e+09
2665.000000 3.88345000e+09
2675.000000 3.83546000e+09
2685.000000 3.80647000e+09
2695.000000 3.73792000e+09
2705.000000 3.71260000e+09
2715.000000 3.66977000e+09
2725.000000 3.60818000e+09
2735.000000 3.56809000e+09
2745.000000 3.54234000e+09
2755.000000 3.50218000e+09
2765.000000 3.43974000e+09
2775.000000 3.42194000e+09
2785.000000 3.38114000e+09
2795.000000 3.32318000e+09
2805.000000 3.29901000e+09
2815.000000 3.26672000e+09
2825.000000 3.20714000e+09
2835.000000 3.17617000e+09
2845.000000 3.15602000e+09
2855.000000 3.11865000e+09
2865.000000 3.08365000e+09
2875.000000 3.04916000e+09
2885.000000 3.01534000e+09
2895.000000 2.98106000e+09
2910.000000 2.92998000e+09
2930.000000 2.86607000e+09
2950.000000 2.78804000e+09
2970.000000 2.74096000e+09
2990.000000 2.68044000e+09
3010.000000 2.62057000e+09
3030.000000 2.56569000e+09
3050.000000 2.51150000e+09
3070.000000 2.45870000e+09
3090.000000 2.40042000e+09
3110.000000 2.35512000e+09
3130.000000 2.30612000e+09
3150.000000 2.25760000e+09
3170.000000 2.21039000e+09
3190.000000 2.15144000e+09
3210.000000 2.11627000e+09
3230.000000 2.07627000e+09
3250.000000 2.03443000e+09
3270.000000 1.99429000e+09
3290.000000 1.95226000e+09
3310.000000 1.91540000e+09
3330.000000 1.87667000e+09
3350.000000 1.83694000e+09
3370.000000 1.80329000e+09
3390.000000 1.76837000e+09
3410.000000 1.73392000e+09
3430.000000 1.69381000e+09
3450.000000 1.65615000e+09
3470.000000 1.62817000e+09
3490.000000 1.59676000e+09
3510.000000 1.57185000e+09
3530.000000 1.54306000e+09
3550.000000 1.51415000e+09
3570.000000 1.49132000e+09
3590.000000 1.45616000e+09
3610.000000 1.43108000e+09
3630.000000 1.40235000e+09
3640.000000 1.39616000e+09
3650.000000 1.36499000e+09
3670.000000 1.34459000e+09
3690.000000 1.31116000e+09
3710.000000 1.27541000e+09
3730.000000 1.23937000e+09
3750.000000 1.29582000e+09
3770.000000 1.28677000e+09
3790.000000 1.30842000e+09
3810.000000 1.33889000e+09
3830.000000 1.21510000e+09
3850.000000 1.33236000e+09
3870.000000 1.31372000e+09
3890.000000 1.15831000e+09
3910.000000 1.28121000e+09
3930.000000 1.25294000e+09
3950.000000 1.23637000e+09
3970.000000 1.07302000e+09
3990.000000 1.19206000e+09
4010.000000 1.17106000e+09
4030.000000 1.12785000e+09
4050.000000 1.13741000e+09
4070.000000 1.11327000e+09
4090.000000 1.06933000e+09
4110.000000 9.72952000e+08
4130.000000 1.05216000e+09
4150.000000 1.03627000e+09
4170.000000 1.02414000e+09
4190.000000 1.00787000e+09
4210.000000 9.90663000e+08
4230.000000 9.75379000e+08
4250.000000 9.58295000e+08
4270.000000 9.40558000e+08
4290.000000 9.26814000e+08
4310.000000 9.10303000e+08
4330.000000 8.66247000e+08
4350.000000 8.04645000e+08
4370.000000 8.66224000e+08
4390.000000 8.42848000e+08
4410.000000 8.39133000e+08
4430.000000 8.25315000e+08
4450.000000 8.13937000e+08
4470.000000 7.83008000e+08
4490.000000 7.88287000e+08
4510.000000 7.76125000e+08
4530.000000 7.63982000e+08
4550.000000 7.50620000e+08
4570.000000 7.39825000e+08
4590.000000 7.28135000e+08
4610.000000 7.17133000e+08
4630.000000 7.05978000e+08
4650.000000 6.90562000e+08
4670.000000 6.84141000e+08
4690.000000 6.70612000e+08
4710.000000 6.57321000e+08
4730.000000 6.54131000e+08
4750.000000 6.44042000e+08
4770.000000 6.34911000e+08
4790.000000 6.25367000e+08
4810.000000 6.15944000e+08
4830.000000 6.06025000e+08
4850.000000 5.82171000e+08
4870.000000 5.34082000e+08
4890.000000 5.79287000e+08
4910.000000 5.71811000e+08
4930.000000 5.55696000e+08
4950.000000 5.55043000e+08
4970.000000 5.47397000e+08
4990.000000 5.39477000e+08
5010.000000 5.26774000e+08
5030.000000 5.24067000e+08
5050.000000 5.14518000e+08
5070.000000 5.09265000e+08
5090.000000 5.02013000e+08
5110.000000 4.94932000e+08
5130.000000 4.87888000e+08
5150.000000 4.81023000e+08
5170.000000 4.74335000e+08
5190.000000 4.67763000e+08
5210.000000 4.61278000e+08
5230.000000 4.54892000e+08
5250.000000 4.48590000e+08
5270.000000 4.42411000e+08
5290.000000 4.36366000e+08
5310.000000 4.30399000e+08
5330.000000 4.24563000e+08
5350.000000 4.18789000e+08
5370.000000 4.13140000e+08
5390.000000 4.07539000e+08
5410.000000 4.01570000e+08
5430.000000 3.96714000e+08
5450.000000 3.91423000e+08
5470.000000 3.86212000e+08
5490.000000 3.81090000e+08
5510.000000 3.76071000e+08
5530.000000 3.71113000e+08
5550.000000 3.66242000e+08
5570.000000 3.61443000e+08
5590.000000 3.56727000e+08
5610.000000 3.52105000e+08
5630.000000 3.47540000e+08
5650.000000 3.43042000e+08
5670.000000 3.38552000e+08
5690.000000 3.33838000e+08
5710.000000 3.29250000e+08
5730.000000 3.25074000e+08
5750.000000 3.20879000e+08
5770.000000 3.16928000e+08
5790.000000 3.12933000e+08
5810.000000 3.09498000e+08
5830.000000 3.05594000e+08
5850.000000 3.01890000e+08
5870.000000 2.91691000e+08
5890.000000 2.94155000e+08
5910.000000 2.90733000e+08
5930.000000 2.87125000e+08
5950.000000 2.83591000e+08
5970.000000 2.80172000e+08
5990.000000 2.76719000e+08
6010.000000 2.73347000e+08
6030.000000 2.70014000e+08
6050.000000 2.66760000e+08
6070.000000 2.63532000e+08
6090.000000 2.60352000e+08
6110.000000 2.57227000e+08
6130.000000 2.54138000e+08
6150.000000 2.51073000e+08
6170.000000 2.48092000e+08
6190.000000 2.45155000e+08
6210.000000 2.42250000e+08
6230.000000 2.39396000e+08
6250.000000 2.36564000e+08
6270.000000 2.33793000e+08
6290.000000 2.31051000e+08
6310.000000 2.28350000e+08
6330.000000 2.25696000e+08
6350.000000 2.23071000e+08
6370.000000 2.20484000e+08
6390.000000 2.17944000e+08
6410.000000 2.15431000e+08
6430.000000 2.12963000e+08
6450.000000 2.10521000e+08
6470.000000 2.08097000e+08
6490.000000 2.05725000e+08
6510.000000 2.03414000e+08
6530.000000 2.00968000e+08
6550.000000 1.96028000e+08
6570.000000 1.78952000e+08
6590.000000 1.93760000e+08
6610.000000 1.92201000e+08
6630.000000 1.90075000e+08
6650.000000 1.88022000e+08
6670.000000 1.84669000e+08
6690.000000 1.82607000e+08
6710.000000 1.81855000e+08
6730.000000 1.79827000e+08
6750.000000 1.77878000e+08
6770.000000 1.75933000e+08
6790.000000 1.73967000e+08
6810.000000 1.72109000e+08
6830.000000 1.70239000e+08
6850.000000 1.68403000e+08
6870.000000 1.66578000e+08
6890.000000 1.64763000e+08
6910.000000 1.62998000e+08
6930.000000 1.61266000e+08
6950.000000 1.59544000e+08
6970.000000 1.57847000e+08
6990.000000 1.56158000e+08
7010.000000 1.54509000e+08
7030.000000 1.52869000e+08
7050.000000 1.51260000e+08
7070.000000 1.47700000e+08
7090.000000 1.48104000e+08
7110.000000 1.46549000e+08
7130.000000 1.45017000e+08
7150.000000 1.43514000e+08
7170.000000 1.41982000e+08
7190.000000 1.40552000e+08
7210.000000 1.39099000e+08
7230.000000 1.37473000e+08
7250.000000 1.36235000e+08
7270.000000 1.34852000e+08
7290.000000 1.32554000e+08
7310.000000 1.32098000e+08
7330.000000 1.30768000e+08
7350.000000 1.29443000e+08
7370.000000 1.28131000e+08
7390.000000 1.26839000e+08
7410.000000 1.25565000e+08
7430.000000 1.24303000e+08
7450.000000 1.23066000e+08
7470.000000 1.21821000e+08
7490.000000 1.20620000e+08
7510.000000 1.19384000e+08
7530.000000 1.18233000e+08
7550.000000 1.17065000e+08
7570.000000 1.15908000e+08
7590.000000 1.14756000e+08
7610.000000 1.13633000e+08
7630.000000 1.12527000e+08
7650.000000 1.11424000e+08
7670.000000 1.10338000e+08
7690.000000 1.09268000e+08
7710.000000 1.08207000e+08
7730.000000 1.07156000e+08
7750.000000 1.06115000e+08
7770.000000 1.05101000e+08
7790.000000 1.04090000e+08
7810.000000 1.03039000e+08
7830.000000 1.02108000e+08
7850.000000 1.01209000e+08
7870.000000 1.00233000e+08
7890.000000 9.92414000e+07
7910.000000 9.83488000e+07
7930.000000 9.74160000e+07
7950.000000 9.64854000e+07
7970.000000 9.54621000e+07
7990.000000 9.46130000e+07
8010.000000 9.36596000e+07
8030.000000 9.28022000e+07
8050.000000 9.19754000e+07
8070.000000 9.11383000e+07
8090.000000 9.01644000e+07
8110.000000 8.93422000e+07
8130.000000 8.86524000e+07
8150.000000 8.76847000e+07
8170.000000 8.70358000e+07
8190.000000 8.61619000e+07
8210.000000 8.50664000e+07
8230.000000 8.44699000e+07
8250.000000 8.37564000e+07
8270.000000 8.26412000e+07
8290.000000 8.21552000e+07
8310.000000 8.14329000e+07
8330.000000 8.06786000e+07
8350.000000 7.96442000e+07
8370.000000 7.90919000e+07
8390.000000 7.84584000e+07
8410.000000 7.77288000e+07
8430.000000 7.69523000e+07
8450.000000 7.59236000e+07
8470.000000 7.53659000e+07
8490.000000 7.49538000e+07
8510.000000 7.37592000e+07
8530.000000 7.38175000e+07
8550.000000 7.16431000e+07
8570.000000 7.33147000e+07
8590.000000 7.04414000e+07
8610.000000 6.99722000e+07
8630.000000 7.19144000e+07
8650.000000 7.02077000e+07
8670.000000 6.58046000e+07
8690.000000 7.01914000e+07
8710.000000 7.01078000e+07
8730.000000 6.84128000e+07
8750.000000 6.27222000e+07
8770.000000 6.67468000e+07
8790.000000 6.78526000e+07
8810.000000 6.72924000e+07
8830.000000 6.66497000e+07
8850.000000 6.37226000e+07
8870.000000 5.94948000e+07
8890.000000 6.46520000e+07
8910.000000 6.45234000e+07
8930.000000 6.39985000e+07
8950.000000 6.35811000e+07
8970.000000 6.30029000e+07
8990.000000 6.17114000e+07
9010.000000 5.63423000e+07
9030.000000 5.88050000e+07
9050.000000 6.07026000e+07
9070.000000 5.99819000e+07
9090.000000 5.97912000e+07
9110.000000 5.94381000e+07
9130.000000 5.89701000e+07
9150.000000 5.84786000e+07
9170.000000 5.78744000e+07
9190.000000 5.73952000e+07
9210.000000 5.56362000e+07
9230.000000 5.04470000e+07
9250.000000 5.50019000e+07
9270.000000 5.54838000e+07
9290.000000 5.51885000e+07
9310.000000 5.45517000e+07
9330.000000 5.42748000e+07
9350.000000 5.37972000e+07
9370.000000 5.34134000e+07
9390.000000 5.29767000e+07
9410.000000 5.25475000e+07
9430.000000 5.21258000e+07
9450.000000 5.17071000e+07
9470.000000 5.10562000e+07
9490.000000 5.08789000e+07
9510.000000 4.99695000e+07
9530.000000 4.85778000e+07
9550.000000 4.42934000e+07
9570.000000 4.85962000e+07
9590.000000 4.87706000e+07
9610.000000 4.83802000e+07
9630.000000 4.79194000e+07
9650.000000 4.77291000e+07
9670.000000 4.73506000e+07
9690.000000 4.69467000e+07
9710.000000 4.64898000e+07
9730.000000 4.62431000e+07
9750.000000 4.58832000e+07
9770.000000 4.55258000e+07
9790.000000 4.51710000e+07
9810.000000 4.48187000e+07
9830.000000 4.44727000e+07
9850.000000 4.41254000e+07
9870.000000 4.37843000e+07
9890.000000 4.34456000e+07
9910.000000 4.30863000e+07
9930.000000 4.27792000e+07
9950.000000 4.24514000e+07
9970.000000 4.21259000e+07
9990.000000 4.18026000e+07
10025.000000 4.01842000e+07
10075.000000 3.89624000e+07
10125.000000 3.96112000e+07
10175.000000 3.89681000e+07
10225.000000 3.82276000e+07
10275.000000 3.75318000e+07
10325.000000 3.67274000e+07
10375.000000 3.61643000e+07
10425.000000 3.55028000e+07
10475.000000 3.48556000e+07
10525.000000 3.42260000e+07
10575.000000 3.36080000e+07
10625.000000 3.30044000e+07
10675.000000 3.23684000e+07
10725.000000 3.18380000e+07
10775.000000 3.12739000e+07
10825.000000 3.04381000e+07
10875.000000 3.01627000e+07
10925.000000 2.79991000e+07
10975.000000 2.88374000e+07
11025.000000 2.85098000e+07
11075.000000 2.81325000e+07
11125.000000 2.76559000e+07
11175.000000 2.71827000e+07
11225.000000 2.67079000e+07
11275.000000 2.62662000e+07
11325.000000 2.58212000e+07
11375.000000 2.53880000e+07
11425.000000 2.49622000e+07
11475.000000 2.45460000e+07
11525.000000 2.41384000e+07
11575.000000 2.37385000e+07
11625.000000 2.33452000e+07
11675.000000 2.29630000e+07
11725.000000 2.25891000e+07
11775.000000 2.22214000e+07
11825.000000 2.18609000e+07
11875.000000 2.15078000e+07
11925.000000 2.11620000e+07
11975.000000 2.06853000e+07
12025.000000 2.04905000e+07
12075.000000 2.01648000e+07
12125.000000 1.98456000e+07
12175.000000 1.95325000e+07
12225.000000 1.92258000e+07
12275.000000 1.89250000e+07
12325.000000 1.86299000e+07
12375.000000 1.83407000e+07
12425.000000 1.80570000e+07
12475.000000 1.77784000e+07
12525.000000 1.74763000e+07
12575.000000 1.72378000e+07
12625.000000 1.69753000e+07
12675.000000 1.67179000e+07
12725.000000 1.64648000e+07
12775.000000 1.60333000e+07
12825.000000 1.51023000e+07
12875.000000 1.56980000e+07
12925.000000 1.55003000e+07
12975.000000 1.51942000e+07
13025.000000 1.50445000e+07
13075.000000 1.48232000e+07
