# Kurucz ODFNEW /NOVER, alpha: 0.0 (2003)
# teff = 23000 K (value for the effective temperature for the model. Temperatures are given in K)
# logg = 3 log(cm/s2) (value for Log(G) for the model.)
# lh = 1.25  (l/Hp where l is the  mixing length of the convective element and Hp is the pressure scale height)
# meta = -0.5  (value for the Metallicity for the model.)
# vtur = 2 km/s (Microturbulence velocity)
# alpha = 0  (Alpha)
#
# column 1: WAVELENGTH (ANGSTROM), Wavelength in Angstrom
# column 2: FLUX (ERG/CM2/S/A), Flux in erg/cm2/s/A
147.200000 2.28929000e-16
151.000000 1.18308000e-15
155.200000 6.66513000e-15
158.800000 2.74120000e-14
162.000000 9.17104000e-14
166.000000 3.89950000e-13
170.300000 1.71802000e-12
173.400000 4.78988000e-12
176.800000 1.41625000e-11
180.200000 4.02276000e-11
181.700000 6.29824000e-11
186.100000 2.25310000e-10
191.000000 8.70089000e-10
193.900000 1.87447000e-09
198.400000 5.89874000e-09
201.800000 1.35564000e-08
205.000000 2.89237000e-08
210.500000 1.00792000e-07
216.200000 3.43335000e-07
219.800000 7.20130000e-07
223.000000 1.36293000e-06
226.800000 2.83978000e-06
230.000000 3.26394000e-04
234.000000 7.88671000e-04
240.000000 1.91583000e-03
246.500000 4.84187000e-03
252.400000 1.08656000e-02
256.800000 1.76962000e-02
260.000000 2.99427000e-02
264.000000 4.81863000e-02
268.500000 8.20951000e-02
273.500000 1.44412000e-01
278.500000 2.49287000e-01
284.000000 4.66867000e-01
290.000000 8.46499000e-01
296.000000 1.50514000e+00
301.000000 2.34368000e+00
308.000000 4.29174000e+00
318.000000 1.08227000e+01
328.000000 2.31562000e+01
338.000000 4.99683000e+01
348.000000 9.99404000e+01
357.000000 2.67901000e+02
366.000000 4.90050000e+02
375.000000 7.86651000e+02
385.000000 1.35971000e+03
395.000000 2.34498000e+03
405.000000 3.74146000e+03
414.000000 5.70163000e+03
422.000000 7.93889000e+03
430.000000 1.13430000e+04
441.000000 1.76301000e+04
451.000000 2.54634000e+04
460.000000 3.48119000e+04
470.000000 4.99503000e+04
480.000000 6.92518000e+04
490.000000 9.59256000e+04
500.000000 1.29916000e+05
506.000000 1.08343000e+06
512.000000 5.63275000e+06
520.000000 6.48047000e+06
530.000000 7.85003000e+06
540.000000 8.42706000e+06
550.000000 1.21362000e+07
560.000000 1.45178000e+07
570.000000 1.74590000e+07
580.000000 1.68644000e+07
590.000000 2.22564000e+07
600.000000 2.55318000e+07
610.000000 3.02153000e+07
620.000000 3.40282000e+07
630.000000 3.75514000e+07
640.000000 3.81843000e+07
650.000000 3.53528000e+07
658.000000 4.79313000e+07
665.000000 5.32937000e+07
675.000000 5.52917000e+07
685.000000 5.78111000e+07
695.000000 7.20405000e+07
705.000000 7.41854000e+07
716.000000 8.43838000e+07
726.000000 8.85794000e+07
735.000000 9.29018000e+07
745.000000 1.05758000e+08
755.000000 1.13675000e+08
765.000000 1.22844000e+08
775.000000 1.32646000e+08
785.000000 1.43074000e+08
795.000000 1.50364000e+08
805.000000 1.57918000e+08
815.000000 1.63453000e+08
825.000000 1.78771000e+08
835.000000 1.65848000e+08
845.000000 1.89730000e+08
855.000000 1.96867000e+08
865.000000 2.10417000e+08
875.000000 2.25799000e+08
885.000000 2.43784000e+08
895.000000 2.56248000e+08
905.000000 2.59379000e+08
915.000000 5.29439000e+08
925.000000 5.77230000e+09
935.000000 1.04367000e+10
945.000000 1.43980000e+10
955.000000 1.57268000e+10
965.000000 1.65284000e+10
975.000000 4.52373000e+09
985.000000 1.34450000e+10
995.000000 1.37533000e+10
1005.000000 1.58502000e+10
1015.000000 1.60620000e+10
1025.000000 1.19069000e+10
1035.000000 1.32134000e+10
1045.000000 1.82582000e+10
1055.000000 1.69643000e+10
1065.000000 1.45929000e+10
1075.000000 1.64367000e+10
1085.000000 1.47933000e+10
1095.000000 1.66279000e+10
1105.000000 1.53074000e+10
1115.000000 1.50986000e+10
1125.000000 1.27489000e+10
1135.000000 1.57348000e+10
1145.000000 1.46272000e+10
1155.000000 1.49943000e+10
1165.000000 1.49243000e+10
1175.000000 9.75560000e+09
1185.000000 1.42600000e+10
1195.000000 1.34620000e+10
1205.000000 9.58231000e+09
1215.000000 9.18636000e+09
1225.000000 1.29852000e+10
1235.000000 1.38952000e+10
1245.000000 1.35492000e+10
1255.000000 1.34236000e+10
1265.000000 1.34408000e+10
1275.000000 1.38069000e+10
1285.000000 1.35428000e+10
1295.000000 1.04881000e+10
1305.000000 1.13415000e+10
1315.000000 1.31764000e+10
1325.000000 1.24858000e+10
1335.000000 1.20382000e+10
1345.000000 1.22195000e+10
1355.000000 1.21734000e+10
1365.000000 1.14778000e+10
1375.000000 1.12236000e+10
1385.000000 1.10502000e+10
1395.000000 8.41726000e+09
1405.000000 9.09826000e+09
1415.000000 1.01559000e+10
1425.000000 9.90976000e+09
1435.000000 1.01843000e+10
1442.000000 1.03643000e+10
1447.000000 1.01541000e+10
1455.000000 9.90892000e+09
1465.000000 9.36512000e+09
1475.000000 9.44029000e+09
1485.000000 9.34877000e+09
1495.000000 9.16159000e+09
1505.000000 8.57270000e+09
1512.000000 7.75757000e+09
1517.000000 8.00822000e+09
1525.000000 8.14716000e+09
1535.000000 7.10745000e+09
1545.000000 7.04352000e+09
1555.000000 6.75847000e+09
1565.000000 7.27502000e+09
1575.000000 7.65616000e+09
1585.000000 7.59195000e+09
1595.000000 7.56339000e+09
1605.000000 7.43054000e+09
1615.000000 7.27178000e+09
1625.000000 7.22579000e+09
1635.000000 7.53001000e+09
1645.000000 7.45558000e+09
1655.000000 7.39684000e+09
1665.000000 7.42010000e+09
1672.000000 7.15556000e+09
1677.000000 7.67691000e+09
1685.000000 7.42399000e+09
1695.000000 7.06968000e+09
1705.000000 6.88371000e+09
1715.000000 6.54813000e+09
1725.000000 6.50219000e+09
1735.000000 6.66511000e+09
1745.000000 6.52757000e+09
1755.000000 6.56201000e+09
1765.000000 6.46537000e+09
1775.000000 6.12799000e+09
1785.000000 6.20791000e+09
1795.000000 6.31350000e+09
1805.000000 6.34549000e+09
1815.000000 5.76331000e+09
1825.000000 5.95471000e+09
1835.000000 5.81413000e+09
1845.000000 5.33460000e+09
1855.000000 5.35946000e+09
1865.000000 5.45432000e+09
1875.000000 5.62454000e+09
1885.000000 5.05112000e+09
1895.000000 4.69938000e+09
1905.000000 5.07102000e+09
1915.000000 4.82722000e+09
1925.000000 4.59949000e+09
1935.000000 4.85724000e+09
1945.000000 4.95063000e+09
1955.000000 4.48238000e+09
1967.000000 4.83291000e+09
1976.000000 5.03618000e+09
1984.000000 4.69168000e+09
1995.000000 4.59314000e+09
2005.000000 4.73739000e+09
2015.000000 4.71405000e+09
2025.000000 4.82443000e+09
2035.000000 4.41835000e+09
2045.000000 4.47938000e+09
2055.000000 4.30591000e+09
2065.000000 4.30468000e+09
2074.000000 4.56939000e+09
2078.000000 4.14874000e+09
2085.000000 4.35214000e+09
2095.000000 4.12735000e+09
2105.000000 4.25368000e+09
2115.000000 4.25583000e+09
2125.000000 4.30513000e+09
2135.000000 4.24043000e+09
2145.000000 4.00587000e+09
2155.000000 4.16769000e+09
2165.000000 4.15170000e+09
2175.000000 4.09028000e+09
2185.000000 3.98341000e+09
2195.000000 4.01569000e+09
2205.000000 3.99260000e+09
2215.000000 3.93889000e+09
2225.000000 3.84596000e+09
2235.000000 3.78138000e+09
2245.000000 3.80861000e+09
2255.000000 3.70949000e+09
2265.000000 3.72755000e+09
2275.000000 3.68131000e+09
2285.000000 3.67001000e+09
2295.000000 3.42309000e+09
2305.000000 3.56108000e+09
2315.000000 3.47239000e+09
2325.000000 3.43094000e+09
2335.000000 3.34938000e+09
2345.000000 3.36643000e+09
2355.000000 3.34986000e+09
2365.000000 3.31600000e+09
2375.000000 3.25514000e+09
2385.000000 3.22678000e+09
2395.000000 3.18826000e+09
2405.000000 3.14591000e+09
2415.000000 3.10467000e+09
2425.000000 3.09808000e+09
2435.000000 3.02770000e+09
2445.000000 3.02088000e+09
2455.000000 3.01132000e+09
2465.000000 2.96617000e+09
2475.000000 2.92368000e+09
2485.000000 2.87475000e+09
2495.000000 2.53609000e+09
2505.000000 2.79553000e+09
2513.000000 2.70176000e+09
2518.000000 2.77120000e+09
2525.000000 2.75148000e+09
2535.000000 2.72214000e+09
2545.000000 2.64117000e+09
2555.000000 2.65649000e+09
2565.000000 2.62539000e+09
2575.000000 2.61828000e+09
2585.000000 2.58137000e+09
2595.000000 2.55682000e+09
2605.000000 2.54022000e+09
2615.000000 2.50618000e+09
2625.000000 2.48553000e+09
2635.000000 2.46041000e+09
2645.000000 2.43462000e+09
2655.000000 2.41733000e+09
2665.000000 2.35960000e+09
2675.000000 2.34942000e+09
2685.000000 2.34042000e+09
2695.000000 2.27583000e+09
2705.000000 2.25759000e+09
2715.000000 2.24595000e+09
2725.000000 2.22163000e+09
2735.000000 2.20823000e+09
2745.000000 2.16562000e+09
2755.000000 2.15380000e+09
2765.000000 2.12613000e+09
2775.000000 2.12620000e+09
2785.000000 2.09599000e+09
2795.000000 2.03420000e+09
2805.000000 2.04366000e+09
2815.000000 2.03772000e+09
2825.000000 2.00807000e+09
2835.000000 1.95695000e+09
2845.000000 1.97156000e+09
2855.000000 1.94178000e+09
2865.000000 1.93215000e+09
2875.000000 1.91249000e+09
2885.000000 1.89518000e+09
2895.000000 1.86894000e+09
2910.000000 1.83593000e+09
2930.000000 1.80424000e+09
2950.000000 1.75596000e+09
2970.000000 1.73107000e+09
2990.000000 1.69493000e+09
3010.000000 1.64603000e+09
3030.000000 1.63151000e+09
3050.000000 1.60233000e+09
3070.000000 1.57329000e+09
3090.000000 1.52347000e+09
3110.000000 1.50975000e+09
3130.000000 1.47821000e+09
3150.000000 1.45164000e+09
3170.000000 1.42011000e+09
3190.000000 1.38810000e+09
3210.000000 1.36998000e+09
3230.000000 1.34115000e+09
3250.000000 1.31895000e+09
3270.000000 1.29248000e+09
3290.000000 1.26752000e+09
3310.000000 1.24626000e+09
3330.000000 1.22196000e+09
3350.000000 1.19906000e+09
3370.000000 1.17787000e+09
3390.000000 1.15798000e+09
3410.000000 1.13757000e+09
3430.000000 1.11220000e+09
3450.000000 1.08899000e+09
3470.000000 1.07150000e+09
3490.000000 1.05242000e+09
3510.000000 1.03792000e+09
3530.000000 1.02184000e+09
3550.000000 1.00370000e+09
3570.000000 9.89259000e+08
3590.000000 9.64850000e+08
3610.000000 9.47771000e+08
3630.000000 9.33554000e+08
3640.000000 9.31218000e+08
3650.000000 9.11390000e+08
3670.000000 8.99693000e+08
3690.000000 8.71734000e+08
3710.000000 8.61211000e+08
3730.000000 8.54193000e+08
3750.000000 9.13848000e+08
3770.000000 9.05636000e+08
3790.000000 9.14305000e+08
3810.000000 9.36108000e+08
3830.000000 8.53881000e+08
3850.000000 9.29795000e+08
3870.000000 9.08891000e+08
3890.000000 8.19428000e+08
3910.000000 8.92854000e+08
3930.000000 8.65788000e+08
3950.000000 8.60689000e+08
3970.000000 7.60563000e+08
3990.000000 8.32491000e+08
4010.000000 8.19358000e+08
4030.000000 7.91714000e+08
4050.000000 7.95398000e+08
4070.000000 7.72226000e+08
4090.000000 7.47576000e+08
4110.000000 6.88845000e+08
4130.000000 7.34491000e+08
4150.000000 7.26510000e+08
4170.000000 7.19384000e+08
4190.000000 7.09507000e+08
4210.000000 7.00784000e+08
4230.000000 6.88194000e+08
4250.000000 6.74369000e+08
4270.000000 6.58872000e+08
4290.000000 6.52334000e+08
4310.000000 6.39216000e+08
4330.000000 6.13854000e+08
4350.000000 5.70952000e+08
4370.000000 6.09691000e+08
4390.000000 5.99359000e+08
4410.000000 5.94070000e+08
4430.000000 5.86204000e+08
4450.000000 5.78169000e+08
4470.000000 5.59224000e+08
4490.000000 5.60606000e+08
4510.000000 5.54071000e+08
4530.000000 5.45426000e+08
4550.000000 5.36784000e+08
4570.000000 5.28235000e+08
4590.000000 5.20566000e+08
4610.000000 5.11840000e+08
4630.000000 5.04581000e+08
4650.000000 4.91190000e+08
4670.000000 4.89531000e+08
4690.000000 4.84200000e+08
4710.000000 4.70230000e+08
4730.000000 4.68754000e+08
4750.000000 4.61326000e+08
4770.000000 4.58343000e+08
4790.000000 4.51387000e+08
4810.000000 4.44026000e+08
4830.000000 4.37256000e+08
4850.000000 4.23936000e+08
4870.000000 3.89883000e+08
4890.000000 4.19723000e+08
4910.000000 4.14154000e+08
4930.000000 4.02926000e+08
4950.000000 4.01660000e+08
4970.000000 3.97610000e+08
4990.000000 3.91797000e+08
5010.000000 3.80015000e+08
5030.000000 3.80900000e+08
5050.000000 3.73384000e+08
5070.000000 3.70678000e+08
5090.000000 3.65488000e+08
5110.000000 3.60396000e+08
5130.000000 3.54457000e+08
5150.000000 3.49962000e+08
5170.000000 3.46104000e+08
5190.000000 3.41623000e+08
5210.000000 3.36799000e+08
5230.000000 3.32478000e+08
5250.000000 3.28132000e+08
5270.000000 3.23571000e+08
5290.000000 3.19540000e+08
5310.000000 3.15187000e+08
5330.000000 3.11222000e+08
5350.000000 3.07017000e+08
5370.000000 3.03245000e+08
5390.000000 2.99144000e+08
5410.000000 2.95431000e+08
5430.000000 2.91521000e+08
5450.000000 2.87711000e+08
5470.000000 2.84037000e+08
5490.000000 2.80434000e+08
5510.000000 2.77049000e+08
5530.000000 2.73361000e+08
5550.000000 2.70110000e+08
5570.000000 2.66595000e+08
5590.000000 2.63353000e+08
5610.000000 2.59982000e+08
5630.000000 2.56831000e+08
5650.000000 2.53234000e+08
5670.000000 2.49517000e+08
5690.000000 2.45904000e+08
5710.000000 2.43965000e+08
5730.000000 2.41026000e+08
5750.000000 2.37654000e+08
5770.000000 2.35387000e+08
5790.000000 2.32427000e+08
5810.000000 2.29635000e+08
5830.000000 2.26632000e+08
5850.000000 2.24062000e+08
5870.000000 2.16787000e+08
5890.000000 2.17869000e+08
5910.000000 2.15879000e+08
5930.000000 2.13075000e+08
5950.000000 2.10485000e+08
5970.000000 2.08559000e+08
5990.000000 2.05699000e+08
6010.000000 2.03540000e+08
6030.000000 2.00990000e+08
6050.000000 1.98737000e+08
6070.000000 1.96530000e+08
6090.000000 1.94235000e+08
6110.000000 1.91997000e+08
6130.000000 1.89794000e+08
6150.000000 1.87286000e+08
6170.000000 1.85253000e+08
6190.000000 1.83242000e+08
6210.000000 1.81204000e+08
6230.000000 1.79149000e+08
6250.000000 1.77001000e+08
6270.000000 1.75040000e+08
6290.000000 1.73100000e+08
6310.000000 1.71087000e+08
6330.000000 1.69218000e+08
6350.000000 1.67126000e+08
6370.000000 1.65391000e+08
6390.000000 1.63536000e+08
6410.000000 1.61738000e+08
6430.000000 1.59977000e+08
6450.000000 1.58190000e+08
6470.000000 1.56241000e+08
6490.000000 1.54528000e+08
6510.000000 1.52985000e+08
6530.000000 1.51228000e+08
6550.000000 1.48014000e+08
6570.000000 1.34939000e+08
6590.000000 1.45476000e+08
6610.000000 1.44726000e+08
6630.000000 1.43255000e+08
6650.000000 1.41713000e+08
6670.000000 1.39323000e+08
6690.000000 1.37860000e+08
6710.000000 1.37265000e+08
6730.000000 1.35652000e+08
6750.000000 1.34370000e+08
6770.000000 1.32944000e+08
6790.000000 1.31141000e+08
6810.000000 1.30079000e+08
6830.000000 1.28705000e+08
6850.000000 1.27400000e+08
6870.000000 1.26069000e+08
6890.000000 1.24695000e+08
6910.000000 1.23367000e+08
6930.000000 1.22154000e+08
6950.000000 1.20898000e+08
6970.000000 1.19647000e+08
6990.000000 1.18393000e+08
7010.000000 1.17189000e+08
7030.000000 1.15974000e+08
7050.000000 1.14794000e+08
7070.000000 1.12051000e+08
7090.000000 1.12469000e+08
7110.000000 1.11099000e+08
7130.000000 1.10039000e+08
7150.000000 1.09071000e+08
7170.000000 1.07958000e+08
7190.000000 1.06891000e+08
7210.000000 1.05814000e+08
7230.000000 1.03795000e+08
7250.000000 1.03624000e+08
7270.000000 1.02663000e+08
7290.000000 1.00938000e+08
7310.000000 1.00619000e+08
7330.000000 9.96288000e+07
7350.000000 9.86620000e+07
7370.000000 9.76903000e+07
7390.000000 9.67345000e+07
7410.000000 9.57808000e+07
7430.000000 9.48359000e+07
7450.000000 9.39270000e+07
7470.000000 9.28711000e+07
7490.000000 9.21072000e+07
7510.000000 9.11831000e+07
7530.000000 9.03206000e+07
7550.000000 8.94726000e+07
7570.000000 8.86126000e+07
7590.000000 8.77604000e+07
7610.000000 8.68834000e+07
7630.000000 8.60855000e+07
7650.000000 8.52690000e+07
7670.000000 8.44599000e+07
7690.000000 8.36517000e+07
7710.000000 8.28633000e+07
7730.000000 8.20757000e+07
7750.000000 8.13077000e+07
7770.000000 8.04341000e+07
7790.000000 7.97982000e+07
7810.000000 7.90009000e+07
7830.000000 7.83152000e+07
7850.000000 7.76293000e+07
7870.000000 7.68824000e+07
7890.000000 7.60877000e+07
7910.000000 7.54806000e+07
7930.000000 7.47050000e+07
7950.000000 7.39600000e+07
7970.000000 7.32572000e+07
7990.000000 7.26430000e+07
8010.000000 7.19460000e+07
8030.000000 7.13310000e+07
8050.000000 7.07212000e+07
8070.000000 7.00993000e+07
8090.000000 6.93502000e+07
8110.000000 6.86420000e+07
8130.000000 6.82419000e+07
8150.000000 6.75047000e+07
8170.000000 6.70392000e+07
8190.000000 6.63246000e+07
8210.000000 6.55156000e+07
8230.000000 6.50307000e+07
8250.000000 6.45442000e+07
8270.000000 6.35880000e+07
8290.000000 6.33199000e+07
8310.000000 6.27863000e+07
8330.000000 6.22246000e+07
8350.000000 6.14352000e+07
8370.000000 6.09430000e+07
8390.000000 6.04868000e+07
8410.000000 5.99065000e+07
8430.000000 5.93576000e+07
8450.000000 5.85757000e+07
8470.000000 5.79633000e+07
8490.000000 5.80982000e+07
8510.000000 5.66862000e+07
8530.000000 5.73527000e+07
8550.000000 5.50027000e+07
8570.000000 5.70801000e+07
8590.000000 5.46397000e+07
8610.000000 5.41422000e+07
8630.000000 5.60717000e+07
8650.000000 5.48309000e+07
8670.000000 5.10399000e+07
8690.000000 5.48311000e+07
8710.000000 5.46690000e+07
8730.000000 5.34203000e+07
8750.000000 4.90485000e+07
8770.000000 5.23071000e+07
8790.000000 5.29275000e+07
8810.000000 5.24691000e+07
8830.000000 5.19804000e+07
8850.000000 5.00093000e+07
8870.000000 4.67440000e+07
8890.000000 5.05566000e+07
8910.000000 5.03394000e+07
8930.000000 4.98685000e+07
8950.000000 4.95659000e+07
8970.000000 4.91765000e+07
8990.000000 4.82588000e+07
9010.000000 4.43694000e+07
9030.000000 4.63584000e+07
9050.000000 4.74692000e+07
9070.000000 4.68617000e+07
9090.000000 4.66603000e+07
9110.000000 4.63966000e+07
9130.000000 4.60399000e+07
9150.000000 4.56679000e+07
9170.000000 4.52001000e+07
9190.000000 4.49009000e+07
9210.000000 4.36811000e+07
9230.000000 3.99296000e+07
9250.000000 4.32319000e+07
9270.000000 4.33625000e+07
9290.000000 4.31433000e+07
9310.000000 4.26547000e+07
9330.000000 4.23877000e+07
9350.000000 4.20966000e+07
9370.000000 4.17863000e+07
9390.000000 4.14589000e+07
9410.000000 4.11076000e+07
9430.000000 4.08025000e+07
9450.000000 4.04802000e+07
9470.000000 3.99851000e+07
9490.000000 3.98385000e+07
9510.000000 3.92129000e+07
9530.000000 3.83027000e+07
9550.000000 3.52179000e+07
9570.000000 3.82682000e+07
9590.000000 3.82906000e+07
9610.000000 3.79132000e+07
9630.000000 3.75495000e+07
9650.000000 3.74316000e+07
9670.000000 3.71424000e+07
9690.000000 3.68267000e+07
9710.000000 3.64686000e+07
9730.000000 3.62906000e+07
9750.000000 3.60099000e+07
9770.000000 3.57379000e+07
9790.000000 3.54627000e+07
9810.000000 3.51808000e+07
9830.000000 3.49259000e+07
9850.000000 3.46584000e+07
9870.000000 3.43882000e+07
9890.000000 3.41171000e+07
9910.000000 3.37755000e+07
9930.000000 3.36247000e+07
9950.000000 3.33702000e+07
9970.000000 3.31106000e+07
9990.000000 3.28709000e+07
10025.000000 3.17729000e+07
10075.000000 3.08103000e+07
10125.000000 3.11917000e+07
10175.000000 3.06836000e+07
10225.000000 3.01119000e+07
10275.000000 2.95758000e+07
10325.000000 2.89543000e+07
10375.000000 2.85177000e+07
10425.000000 2.80064000e+07
10475.000000 2.75062000e+07
10525.000000 2.70145000e+07
10575.000000 2.65383000e+07
10625.000000 2.60709000e+07
10675.000000 2.55750000e+07
10725.000000 2.51658000e+07
10775.000000 2.47274000e+07
10825.000000 2.40517000e+07
10875.000000 2.38781000e+07
10925.000000 2.23189000e+07
10975.000000 2.29055000e+07
11025.000000 2.25792000e+07
11075.000000 2.22888000e+07
11125.000000 2.19145000e+07
11175.000000 2.15463000e+07
11225.000000 2.11754000e+07
11275.000000 2.08262000e+07
11325.000000 2.04761000e+07
11375.000000 2.01466000e+07
11425.000000 1.98119000e+07
11475.000000 1.94906000e+07
11525.000000 1.91726000e+07
11575.000000 1.88569000e+07
11625.000000 1.85534000e+07
11675.000000 1.82514000e+07
11725.000000 1.79621000e+07
11775.000000 1.76729000e+07
11825.000000 1.73920000e+07
11875.000000 1.71166000e+07
11925.000000 1.68457000e+07
11975.000000 1.64849000e+07
12025.000000 1.63197000e+07
12075.000000 1.60649000e+07
12125.000000 1.58143000e+07
12175.000000 1.55690000e+07
12225.000000 1.53285000e+07
12275.000000 1.50926000e+07
12325.000000 1.48610000e+07
12375.000000 1.46339000e+07
12425.000000 1.44115000e+07
12475.000000 1.41894000e+07
12525.000000 1.39527000e+07
12575.000000 1.37655000e+07
12625.000000 1.35600000e+07
12675.000000 1.33592000e+07
12725.000000 1.31602000e+07
12775.000000 1.28330000e+07
12825.000000 1.21727000e+07
12875.000000 1.25692000e+07
12925.000000 1.24009000e+07
12975.000000 1.21620000e+07
13025.000000 1.20406000e+07
13075.000000 1.18674000e+07
