# Kurucz ODFNEW /NOVER, alpha: 0.0 (2003)
# teff = 26000 K (value for the effective temperature for the model. Temperatures are given in K)
# logg = 5 log(cm/s2) (value for Log(G) for the model.)
# lh = 1.25  (l/Hp where l is the  mixing length of the convective element and Hp is the pressure scale height)
# meta = 0.5  (value for the Metallicity for the model.)
# vtur = 2 km/s (Microturbulence velocity)
# alpha = 0  (Alpha)
#
# column 1: WAVELENGTH (ANGSTROM), Wavelength in Angstrom
# column 2: FLUX (ERG/CM2/S/A), Flux in erg/cm2/s/A
147.200000 3.22677000e-12
151.000000 1.18385000e-11
155.200000 4.64205000e-11
158.800000 1.41782000e-10
162.000000 3.68102000e-10
166.000000 1.15504000e-09
170.300000 3.71506000e-09
173.400000 8.39409000e-09
176.800000 1.98101000e-08
180.200000 4.53381000e-08
181.700000 6.46644000e-08
186.100000 1.78253000e-07
191.000000 5.24288000e-07
193.900000 9.68978000e-07
198.400000 2.43116000e-06
201.800000 4.74639000e-06
205.000000 8.73725000e-06
210.500000 2.39708000e-05
216.200000 6.48426000e-05
219.800000 1.18574000e-04
223.000000 1.99664000e-04
226.800000 3.64834000e-04
230.000000 1.40230000e-02
234.000000 3.06992000e-02
240.000000 6.72815000e-02
246.500000 1.51381000e-01
252.400000 3.09860000e-01
256.800000 4.96803000e-01
260.000000 7.84389000e-01
264.000000 1.19668000e+00
268.500000 1.92743000e+00
273.500000 3.18755000e+00
278.500000 5.19324000e+00
284.000000 9.37667000e+00
290.000000 1.59275000e+01
296.000000 2.66917000e+01
301.000000 4.00609000e+01
308.000000 7.35477000e+01
318.000000 1.63013000e+02
328.000000 3.19994000e+02
338.000000 6.44282000e+02
348.000000 1.20201000e+03
357.000000 4.42649000e+03
366.000000 8.28824000e+03
375.000000 1.21665000e+04
385.000000 1.95937000e+04
395.000000 3.44725000e+04
405.000000 5.07933000e+04
414.000000 7.37761000e+04
422.000000 1.01832000e+05
430.000000 1.42581000e+05
441.000000 2.08180000e+05
451.000000 2.79101000e+05
460.000000 3.61472000e+05
470.000000 4.99094000e+05
480.000000 6.66111000e+05
490.000000 8.87581000e+05
500.000000 1.14060000e+06
506.000000 4.07517000e+06
512.000000 4.13356000e+07
520.000000 4.58024000e+07
530.000000 5.16464000e+07
540.000000 5.44010000e+07
550.000000 7.71629000e+07
560.000000 8.93723000e+07
570.000000 1.04106000e+08
580.000000 1.00736000e+08
590.000000 1.26915000e+08
600.000000 1.35361000e+08
610.000000 1.54185000e+08
620.000000 1.62893000e+08
630.000000 1.62993000e+08
640.000000 1.39958000e+08
650.000000 1.08115000e+08
658.000000 1.54324000e+08
665.000000 1.96805000e+08
675.000000 2.21321000e+08
685.000000 2.24958000e+08
695.000000 3.06523000e+08
705.000000 3.11222000e+08
716.000000 3.52357000e+08
726.000000 3.63131000e+08
735.000000 3.73148000e+08
745.000000 4.22821000e+08
755.000000 4.46755000e+08
765.000000 4.77162000e+08
775.000000 5.04254000e+08
785.000000 5.35830000e+08
795.000000 5.47303000e+08
805.000000 5.62096000e+08
815.000000 5.75566000e+08
825.000000 6.23524000e+08
835.000000 5.43785000e+08
845.000000 6.29179000e+08
855.000000 6.34646000e+08
865.000000 6.74989000e+08
875.000000 7.12003000e+08
885.000000 7.66422000e+08
895.000000 7.95481000e+08
905.000000 7.71605000e+08
915.000000 9.10522000e+08
925.000000 3.56914000e+09
935.000000 7.88084000e+09
945.000000 1.76839000e+10
955.000000 2.60329000e+10
965.000000 3.28574000e+10
975.000000 5.17246000e+09
985.000000 2.89176000e+10
995.000000 2.81554000e+10
1005.000000 3.45519000e+10
1015.000000 3.42091000e+10
1025.000000 1.33061000e+10
1035.000000 2.58373000e+10
1045.000000 4.41715000e+10
1055.000000 4.05593000e+10
1065.000000 2.97813000e+10
1075.000000 3.60584000e+10
1085.000000 3.21487000e+10
1095.000000 3.66824000e+10
1105.000000 3.24980000e+10
1115.000000 3.06026000e+10
1125.000000 2.30632000e+10
1135.000000 3.24083000e+10
1145.000000 2.80654000e+10
1155.000000 2.94374000e+10
1165.000000 2.87649000e+10
1175.000000 1.54460000e+10
1185.000000 2.72012000e+10
1195.000000 2.45276000e+10
1205.000000 1.58164000e+10
1215.000000 1.07099000e+10
1225.000000 2.07838000e+10
1235.000000 2.66166000e+10
1245.000000 2.57849000e+10
1255.000000 2.52321000e+10
1265.000000 2.60990000e+10
1275.000000 2.69287000e+10
1285.000000 2.70816000e+10
1295.000000 1.77092000e+10
1305.000000 1.89437000e+10
1315.000000 2.61062000e+10
1325.000000 2.36579000e+10
1335.000000 2.28292000e+10
1345.000000 2.32449000e+10
1355.000000 2.29872000e+10
1365.000000 2.01535000e+10
1375.000000 1.94274000e+10
1385.000000 1.88319000e+10
1395.000000 1.30129000e+10
1405.000000 1.43365000e+10
1415.000000 1.62245000e+10
1425.000000 1.60512000e+10
1435.000000 1.67329000e+10
1442.000000 1.73133000e+10
1447.000000 1.70332000e+10
1455.000000 1.63871000e+10
1465.000000 1.47155000e+10
1475.000000 1.52093000e+10
1485.000000 1.49200000e+10
1495.000000 1.46485000e+10
1505.000000 1.27403000e+10
1512.000000 1.13869000e+10
1517.000000 1.17898000e+10
1525.000000 1.23469000e+10
1535.000000 1.01602000e+10
1545.000000 9.69228000e+09
1555.000000 9.55929000e+09
1565.000000 1.04567000e+10
1575.000000 1.11780000e+10
1585.000000 1.13301000e+10
1595.000000 1.11405000e+10
1605.000000 1.15578000e+10
1615.000000 1.12385000e+10
1625.000000 1.09953000e+10
1635.000000 1.18078000e+10
1645.000000 1.18179000e+10
1655.000000 1.16128000e+10
1665.000000 1.19711000e+10
1672.000000 1.12829000e+10
1677.000000 1.24728000e+10
1685.000000 1.20873000e+10
1695.000000 1.13110000e+10
1705.000000 1.09440000e+10
1715.000000 1.02985000e+10
1725.000000 1.00023000e+10
1735.000000 1.05889000e+10
1745.000000 1.03104000e+10
1755.000000 1.03835000e+10
1765.000000 1.01531000e+10
1775.000000 9.45224000e+09
1785.000000 9.69117000e+09
1795.000000 1.01198000e+10
1805.000000 1.02208000e+10
1815.000000 8.93636000e+09
1825.000000 9.36421000e+09
1835.000000 8.97657000e+09
1845.000000 8.08402000e+09
1855.000000 8.19788000e+09
1865.000000 8.30062000e+09
1875.000000 8.81465000e+09
1885.000000 7.72220000e+09
1895.000000 7.17953000e+09
1905.000000 7.88012000e+09
1915.000000 7.26179000e+09
1925.000000 6.85034000e+09
1935.000000 7.38070000e+09
1945.000000 7.55914000e+09
1955.000000 6.72086000e+09
1967.000000 7.42176000e+09
1976.000000 7.76349000e+09
1984.000000 7.09566000e+09
1995.000000 6.99927000e+09
2005.000000 7.33793000e+09
2015.000000 7.16312000e+09
2025.000000 7.42843000e+09
2035.000000 6.69607000e+09
2045.000000 6.87748000e+09
2055.000000 6.57618000e+09
2065.000000 6.57060000e+09
2074.000000 6.86577000e+09
2078.000000 6.14664000e+09
2085.000000 6.54584000e+09
2095.000000 6.13896000e+09
2105.000000 6.44186000e+09
2115.000000 6.47693000e+09
2125.000000 6.52056000e+09
2135.000000 6.36879000e+09
2145.000000 6.03001000e+09
2155.000000 6.31611000e+09
2165.000000 6.27903000e+09
2175.000000 6.20136000e+09
2185.000000 5.95029000e+09
2195.000000 6.06494000e+09
2205.000000 6.03353000e+09
2215.000000 5.91214000e+09
2225.000000 5.72960000e+09
2235.000000 5.66434000e+09
2245.000000 5.71206000e+09
2255.000000 5.47829000e+09
2265.000000 5.59107000e+09
2275.000000 5.48881000e+09
2285.000000 5.49182000e+09
2295.000000 4.94495000e+09
2305.000000 5.27156000e+09
2315.000000 5.09122000e+09
2325.000000 5.04090000e+09
2335.000000 4.86156000e+09
2345.000000 4.89657000e+09
2355.000000 4.87817000e+09
2365.000000 4.81558000e+09
2375.000000 4.70566000e+09
2385.000000 4.67840000e+09
2395.000000 4.64283000e+09
2405.000000 4.52112000e+09
2415.000000 4.51005000e+09
2425.000000 4.50458000e+09
2435.000000 4.33855000e+09
2445.000000 4.36772000e+09
2455.000000 4.37591000e+09
2465.000000 4.28622000e+09
2475.000000 4.21722000e+09
2485.000000 4.14277000e+09
2495.000000 3.61132000e+09
2505.000000 4.01505000e+09
2513.000000 3.80633000e+09
2518.000000 3.98190000e+09
2525.000000 3.91583000e+09
2535.000000 3.86770000e+09
2545.000000 3.71801000e+09
2555.000000 3.78667000e+09
2565.000000 3.72731000e+09
2575.000000 3.74666000e+09
2585.000000 3.70617000e+09
2595.000000 3.66971000e+09
2605.000000 3.62366000e+09
2615.000000 3.57611000e+09
2625.000000 3.55028000e+09
2635.000000 3.52290000e+09
2645.000000 3.47790000e+09
2655.000000 3.47339000e+09
2665.000000 3.29418000e+09
2675.000000 3.33230000e+09
2685.000000 3.31882000e+09
2695.000000 3.18084000e+09
2705.000000 3.09574000e+09
2715.000000 3.10993000e+09
2725.000000 3.11977000e+09
2735.000000 3.10354000e+09
2745.000000 3.00028000e+09
2755.000000 2.99809000e+09
2765.000000 2.96639000e+09
2775.000000 3.01085000e+09
2785.000000 2.95444000e+09
2795.000000 2.82575000e+09
2805.000000 2.85869000e+09
2815.000000 2.88025000e+09
2825.000000 2.83039000e+09
2835.000000 2.69722000e+09
2845.000000 2.75094000e+09
2855.000000 2.70351000e+09
2865.000000 2.71162000e+09
2875.000000 2.67902000e+09
2885.000000 2.64061000e+09
2895.000000 2.60154000e+09
2910.000000 2.54725000e+09
2930.000000 2.52155000e+09
2950.000000 2.43670000e+09
2970.000000 2.40715000e+09
2990.000000 2.34488000e+09
3010.000000 2.25898000e+09
3030.000000 2.25724000e+09
3050.000000 2.21810000e+09
3070.000000 2.18633000e+09
3090.000000 2.09117000e+09
3110.000000 2.08699000e+09
3130.000000 2.03241000e+09
3150.000000 2.00186000e+09
3170.000000 1.94129000e+09
3190.000000 1.90266000e+09
3210.000000 1.88312000e+09
3230.000000 1.83582000e+09
3250.000000 1.80937000e+09
3270.000000 1.76736000e+09
3290.000000 1.73202000e+09
3310.000000 1.70029000e+09
3330.000000 1.66131000e+09
3350.000000 1.63284000e+09
3370.000000 1.59785000e+09
3390.000000 1.57499000e+09
3410.000000 1.54452000e+09
3430.000000 1.51013000e+09
3450.000000 1.47618000e+09
3470.000000 1.44946000e+09
3490.000000 1.41978000e+09
3510.000000 1.39438000e+09
3530.000000 1.37484000e+09
3550.000000 1.34884000e+09
3570.000000 1.33197000e+09
3590.000000 1.28499000e+09
3610.000000 1.26738000e+09
3630.000000 1.24822000e+09
3640.000000 1.24987000e+09
3650.000000 1.22997000e+09
3670.000000 1.21662000e+09
3690.000000 1.19647000e+09
3710.000000 1.15019000e+09
3730.000000 1.11411000e+09
3750.000000 1.10119000e+09
3770.000000 1.06608000e+09
3790.000000 1.10432000e+09
3810.000000 1.14640000e+09
3830.000000 9.99679000e+08
3850.000000 1.16789000e+09
3870.000000 1.17567000e+09
3890.000000 9.34697000e+08
3910.000000 1.18070000e+09
3930.000000 1.15351000e+09
3950.000000 1.13001000e+09
3970.000000 8.68340000e+08
3990.000000 1.08574000e+09
4010.000000 1.09881000e+09
4030.000000 1.02008000e+09
4050.000000 1.06281000e+09
4070.000000 1.00068000e+09
4090.000000 9.14951000e+08
4110.000000 8.09790000e+08
4130.000000 9.58979000e+08
4150.000000 9.58771000e+08
4170.000000 9.59757000e+08
4190.000000 9.50659000e+08
4210.000000 9.44730000e+08
4230.000000 9.21122000e+08
4250.000000 8.89676000e+08
4270.000000 8.61092000e+08
4290.000000 8.54085000e+08
4310.000000 8.19346000e+08
4330.000000 7.33872000e+08
4350.000000 6.73663000e+08
4370.000000 7.75459000e+08
4390.000000 7.74371000e+08
4410.000000 7.77339000e+08
4430.000000 7.73139000e+08
4450.000000 7.60783000e+08
4470.000000 7.12944000e+08
4490.000000 7.34974000e+08
4510.000000 7.34471000e+08
4530.000000 7.21280000e+08
4550.000000 7.12751000e+08
4570.000000 7.00141000e+08
4590.000000 6.88188000e+08
4610.000000 6.68137000e+08
4630.000000 6.56701000e+08
4650.000000 6.37927000e+08
4670.000000 6.41215000e+08
4690.000000 6.36871000e+08
4710.000000 6.06629000e+08
4730.000000 6.11597000e+08
4750.000000 6.02583000e+08
4770.000000 6.04661000e+08
4790.000000 5.91609000e+08
4810.000000 5.75741000e+08
4830.000000 5.62295000e+08
4850.000000 5.10981000e+08
4870.000000 4.53882000e+08
4890.000000 5.38072000e+08
4910.000000 5.36761000e+08
4930.000000 5.14465000e+08
4950.000000 5.21602000e+08
4970.000000 5.19608000e+08
4990.000000 5.10141000e+08
5010.000000 4.83337000e+08
5030.000000 4.93260000e+08
5050.000000 4.79714000e+08
5070.000000 4.81990000e+08
5090.000000 4.73120000e+08
5110.000000 4.64245000e+08
5130.000000 4.50754000e+08
5150.000000 4.46635000e+08
5170.000000 4.46583000e+08
5190.000000 4.41190000e+08
5210.000000 4.32327000e+08
5230.000000 4.28393000e+08
5250.000000 4.22839000e+08
5270.000000 4.15268000e+08
5290.000000 4.11501000e+08
5310.000000 4.05187000e+08
5330.000000 3.99487000e+08
5350.000000 3.92570000e+08
5370.000000 3.89547000e+08
5390.000000 3.83912000e+08
5410.000000 3.79148000e+08
5430.000000 3.73076000e+08
5450.000000 3.67845000e+08
5470.000000 3.62717000e+08
5490.000000 3.58329000e+08
5510.000000 3.54690000e+08
5530.000000 3.48680000e+08
5550.000000 3.45523000e+08
5570.000000 3.40569000e+08
5590.000000 3.36726000e+08
5610.000000 3.31684000e+08
5630.000000 3.28060000e+08
5650.000000 3.20643000e+08
5670.000000 3.14800000e+08
5690.000000 3.10438000e+08
5710.000000 3.09180000e+08
5730.000000 3.06119000e+08
5750.000000 3.01099000e+08
5770.000000 2.99287000e+08
5790.000000 2.95054000e+08
5810.000000 2.91341000e+08
5830.000000 2.86774000e+08
5850.000000 2.83693000e+08
5870.000000 2.69934000e+08
5890.000000 2.72425000e+08
5910.000000 2.71750000e+08
5930.000000 2.68056000e+08
5950.000000 2.64203000e+08
5970.000000 2.63725000e+08
5990.000000 2.58502000e+08
6010.000000 2.56847000e+08
6030.000000 2.52887000e+08
6050.000000 2.50137000e+08
6070.000000 2.47725000e+08
6090.000000 2.44658000e+08
6110.000000 2.41727000e+08
6130.000000 2.39170000e+08
6150.000000 2.33931000e+08
6170.000000 2.32239000e+08
6190.000000 2.30318000e+08
6210.000000 2.27899000e+08
6230.000000 2.25341000e+08
6250.000000 2.21490000e+08
6270.000000 2.19399000e+08
6290.000000 2.17206000e+08
6310.000000 2.14346000e+08
6330.000000 2.12307000e+08
6350.000000 2.08534000e+08
6370.000000 2.07022000e+08
6390.000000 2.04695000e+08
6410.000000 2.02383000e+08
6430.000000 2.00416000e+08
6450.000000 1.97889000e+08
6470.000000 1.94345000e+08
6490.000000 1.92586000e+08
6510.000000 1.90435000e+08
6530.000000 1.86815000e+08
6550.000000 1.76034000e+08
6570.000000 1.53581000e+08
6590.000000 1.77512000e+08
6610.000000 1.79363000e+08
6630.000000 1.78222000e+08
6650.000000 1.76393000e+08
6670.000000 1.72272000e+08
6690.000000 1.70545000e+08
6710.000000 1.70893000e+08
6730.000000 1.68440000e+08
6750.000000 1.67253000e+08
6770.000000 1.65428000e+08
6790.000000 1.61391000e+08
6810.000000 1.61305000e+08
6830.000000 1.59611000e+08
6850.000000 1.58231000e+08
6870.000000 1.56497000e+08
6890.000000 1.54574000e+08
6910.000000 1.52710000e+08
6930.000000 1.51422000e+08
6950.000000 1.49912000e+08
6970.000000 1.48347000e+08
6990.000000 1.46697000e+08
7010.000000 1.45072000e+08
7030.000000 1.43508000e+08
7050.000000 1.41914000e+08
7070.000000 1.37601000e+08
7090.000000 1.38594000e+08
7110.000000 1.36392000e+08
7130.000000 1.35050000e+08
7150.000000 1.34207000e+08
7170.000000 1.33137000e+08
7190.000000 1.32026000e+08
7210.000000 1.30656000e+08
7230.000000 1.26670000e+08
7250.000000 1.27671000e+08
7270.000000 1.26634000e+08
7290.000000 1.24189000e+08
7310.000000 1.24018000e+08
7330.000000 1.22697000e+08
7350.000000 1.21549000e+08
7370.000000 1.20336000e+08
7390.000000 1.19113000e+08
7410.000000 1.17915000e+08
7430.000000 1.16578000e+08
7450.000000 1.15498000e+08
7470.000000 1.13611000e+08
7490.000000 1.13086000e+08
7510.000000 1.11983000e+08
7530.000000 1.10751000e+08
7550.000000 1.09875000e+08
7570.000000 1.08808000e+08
7590.000000 1.07693000e+08
7610.000000 1.06464000e+08
7630.000000 1.05551000e+08
7650.000000 1.04562000e+08
7670.000000 1.03543000e+08
7690.000000 1.02521000e+08
7710.000000 1.01496000e+08
7730.000000 1.00467000e+08
7750.000000 9.95914000e+07
7770.000000 9.78251000e+07
7790.000000 9.76773000e+07
7810.000000 9.66836000e+07
7830.000000 9.58093000e+07
7850.000000 9.47471000e+07
7870.000000 9.37491000e+07
7890.000000 9.24998000e+07
7910.000000 9.20568000e+07
7930.000000 9.11916000e+07
7950.000000 9.01611000e+07
7970.000000 8.94601000e+07
7990.000000 8.83814000e+07
8010.000000 8.77468000e+07
8030.000000 8.69188000e+07
8050.000000 8.61154000e+07
8070.000000 8.53131000e+07
8090.000000 8.44888000e+07
8110.000000 8.32020000e+07
8130.000000 8.29984000e+07
8150.000000 8.22342000e+07
8170.000000 8.15442000e+07
8190.000000 8.03321000e+07
8210.000000 7.96505000e+07
8230.000000 7.86298000e+07
8250.000000 7.85092000e+07
8270.000000 7.69731000e+07
8290.000000 7.70353000e+07
8310.000000 7.64303000e+07
8330.000000 7.57706000e+07
8350.000000 7.47380000e+07
8370.000000 7.42092000e+07
8390.000000 7.37648000e+07
8410.000000 7.30416000e+07
8430.000000 7.24091000e+07
8450.000000 7.09641000e+07
8470.000000 7.11492000e+07
8490.000000 7.02813000e+07
8510.000000 6.97536000e+07
8530.000000 6.90748000e+07
8550.000000 6.83295000e+07
8570.000000 6.81289000e+07
8590.000000 6.62344000e+07
8610.000000 6.63336000e+07
8630.000000 6.66436000e+07
8650.000000 6.49814000e+07
8670.000000 6.31383000e+07
8690.000000 6.47687000e+07
8710.000000 6.48738000e+07
8730.000000 6.29704000e+07
8750.000000 5.92089000e+07
8770.000000 6.11630000e+07
8790.000000 6.28645000e+07
8810.000000 6.28221000e+07
8830.000000 6.16247000e+07
8850.000000 5.77919000e+07
8870.000000 5.46777000e+07
8890.000000 5.93132000e+07
8910.000000 6.02478000e+07
8930.000000 6.00113000e+07
8950.000000 5.97434000e+07
8970.000000 5.88967000e+07
8990.000000 5.66166000e+07
9010.000000 5.07642000e+07
9030.000000 5.27110000e+07
9050.000000 5.61397000e+07
9070.000000 5.59565000e+07
9090.000000 5.62166000e+07
9110.000000 5.60745000e+07
9130.000000 5.56619000e+07
9150.000000 5.51398000e+07
9170.000000 5.43619000e+07
9190.000000 5.34476000e+07
9210.000000 5.03688000e+07
9230.000000 4.44684000e+07
9250.000000 4.92913000e+07
9270.000000 5.10998000e+07
9290.000000 5.17924000e+07
9310.000000 5.13310000e+07
9330.000000 5.10549000e+07
9350.000000 5.08799000e+07
9370.000000 5.05384000e+07
9390.000000 5.01397000e+07
9410.000000 4.95311000e+07
9430.000000 4.92746000e+07
9450.000000 4.87752000e+07
9470.000000 4.79897000e+07
9490.000000 4.76914000e+07
9510.000000 4.63413000e+07
9530.000000 4.35877000e+07
9550.000000 3.87661000e+07
9570.000000 4.39110000e+07
9590.000000 4.54321000e+07
9610.000000 4.53493000e+07
9630.000000 4.48727000e+07
9650.000000 4.51076000e+07
9670.000000 4.47923000e+07
9690.000000 4.44030000e+07
9710.000000 4.38966000e+07
9730.000000 4.37601000e+07
9750.000000 4.33905000e+07
9770.000000 4.30946000e+07
9790.000000 4.27419000e+07
9810.000000 4.23485000e+07
9830.000000 4.20672000e+07
9850.000000 4.17335000e+07
9870.000000 4.13480000e+07
9890.000000 4.09344000e+07
9910.000000 4.02668000e+07
9930.000000 4.04525000e+07
9950.000000 4.00465000e+07
9970.000000 3.96169000e+07
9990.000000 3.92319000e+07
10025.000000 3.65058000e+07
10075.000000 3.51512000e+07
10125.000000 3.71564000e+07
10175.000000 3.68140000e+07
10225.000000 3.61485000e+07
10275.000000 3.54903000e+07
10325.000000 3.46523000e+07
10375.000000 3.41973000e+07
10425.000000 3.35723000e+07
10475.000000 3.29566000e+07
10525.000000 3.23304000e+07
10575.000000 3.17666000e+07
10625.000000 3.11991000e+07
10675.000000 3.05461000e+07
10725.000000 3.00910000e+07
10775.000000 2.95437000e+07
10825.000000 2.86233000e+07
10875.000000 2.82604000e+07
10925.000000 2.50047000e+07
10975.000000 2.64069000e+07
11025.000000 2.67438000e+07
11075.000000 2.65200000e+07
11125.000000 2.61197000e+07
11175.000000 2.56756000e+07
11225.000000 2.52240000e+07
11275.000000 2.47456000e+07
11325.000000 2.43152000e+07
11375.000000 2.39692000e+07
11425.000000 2.35284000e+07
11475.000000 2.31764000e+07
11525.000000 2.27911000e+07
11575.000000 2.23714000e+07
11625.000000 2.20227000e+07
11675.000000 2.16562000e+07
11725.000000 2.13215000e+07
11775.000000 2.09536000e+07
11825.000000 2.06302000e+07
11875.000000 2.02997000e+07
11925.000000 1.99730000e+07
11975.000000 1.93426000e+07
12025.000000 1.93356000e+07
12075.000000 1.90298000e+07
12125.000000 1.87253000e+07
12175.000000 1.84295000e+07
12225.000000 1.81391000e+07
12275.000000 1.78554000e+07
12325.000000 1.75734000e+07
12375.000000 1.72999000e+07
12425.000000 1.70350000e+07
12475.000000 1.67433000e+07
12525.000000 1.64560000e+07
12575.000000 1.62370000e+07
12625.000000 1.59968000e+07
12675.000000 1.57578000e+07
12725.000000 1.54691000e+07
12775.000000 1.48362000e+07
12825.000000 1.34152000e+07
12875.000000 1.46055000e+07
12925.000000 1.45667000e+07
12975.000000 1.42369000e+07
13025.000000 1.41771000e+07
13075.000000 1.39763000e+07
