# Kurucz ODFNEW /NOVER, alpha: 0.0 (2003)
# teff = 25000 K (value for the effective temperature for the model. Temperatures are given in K)
# logg = 4.5 log(cm/s2) (value for Log(G) for the model.)
# lh = 1.25  (l/Hp where l is the  mixing length of the convective element and Hp is the pressure scale height)
# meta = -1.5  (value for the Metallicity for the model.)
# vtur = 2 km/s (Microturbulence velocity)
# alpha = 0  (Alpha)
#
# column 1: WAVELENGTH (ANGSTROM), Wavelength in Angstrom
# column 2: FLUX (ERG/CM2/S/A), Flux in erg/cm2/s/A
147.200000 4.65891000e-14
151.000000 2.20311000e-13
155.200000 1.12770000e-12
158.800000 4.27621000e-12
162.000000 1.33302000e-11
166.000000 5.20019000e-11
170.300000 2.09382000e-10
173.400000 5.47862000e-10
176.800000 1.51267000e-09
180.200000 4.01986000e-09
181.700000 6.11487000e-09
186.100000 2.01270000e-08
191.000000 7.10417000e-08
193.900000 1.45312000e-07
198.400000 4.22587000e-07
201.800000 9.16419000e-07
205.000000 1.85411000e-06
210.500000 5.91413000e-06
216.200000 1.84502000e-05
219.800000 3.66459000e-05
223.000000 6.61407000e-05
226.800000 1.30380000e-04
230.000000 1.42082000e-03
234.000000 3.23422000e-03
240.000000 7.83741000e-03
246.500000 1.94409000e-02
252.400000 4.30042000e-02
256.800000 7.24996000e-02
260.000000 1.11392000e-01
264.000000 1.79462000e-01
268.500000 3.01322000e-01
273.500000 5.24535000e-01
278.500000 8.96042000e-01
284.000000 1.57846000e+00
290.000000 2.84769000e+00
296.000000 5.00365000e+00
301.000000 7.85135000e+00
308.000000 1.39856000e+01
318.000000 3.27952000e+01
328.000000 7.02866000e+01
338.000000 1.44424000e+02
348.000000 2.83126000e+02
357.000000 5.02359000e+02
366.000000 8.66565000e+02
375.000000 1.44069000e+03
385.000000 2.47491000e+03
395.000000 4.11342000e+03
405.000000 6.65630000e+03
414.000000 1.00638000e+04
422.000000 1.42385000e+04
430.000000 1.98495000e+04
441.000000 3.08851000e+04
451.000000 4.51554000e+04
460.000000 6.24025000e+04
470.000000 8.81912000e+04
480.000000 1.22404000e+05
490.000000 1.67590000e+05
500.000000 2.26128000e+05
506.000000 1.31464000e+06
512.000000 4.31751000e+06
520.000000 5.19410000e+06
530.000000 6.76718000e+06
540.000000 7.28240000e+06
550.000000 9.74814000e+06
560.000000 1.11958000e+07
570.000000 1.32951000e+07
580.000000 1.33994000e+07
590.000000 1.69555000e+07
600.000000 1.98495000e+07
610.000000 2.28690000e+07
620.000000 2.55821000e+07
630.000000 2.89974000e+07
640.000000 3.14646000e+07
650.000000 3.53189000e+07
658.000000 3.92188000e+07
665.000000 4.22029000e+07
675.000000 4.55540000e+07
685.000000 4.97125000e+07
695.000000 5.67194000e+07
705.000000 6.12886000e+07
716.000000 6.78465000e+07
726.000000 7.33123000e+07
735.000000 7.92755000e+07
745.000000 8.66303000e+07
755.000000 9.37156000e+07
765.000000 1.00744000e+08
775.000000 1.08862000e+08
785.000000 1.17080000e+08
795.000000 1.24518000e+08
805.000000 1.32978000e+08
815.000000 1.41056000e+08
825.000000 1.50996000e+08
835.000000 1.56824000e+08
845.000000 1.68314000e+08
855.000000 1.77320000e+08
865.000000 1.88434000e+08
875.000000 1.99907000e+08
885.000000 2.11182000e+08
895.000000 2.21845000e+08
905.000000 2.29711000e+08
915.000000 3.18177000e+08
925.000000 1.68427000e+09
935.000000 4.79452000e+09
945.000000 1.49721000e+10
955.000000 2.25263000e+10
965.000000 3.03685000e+10
975.000000 1.02165000e+10
985.000000 3.52642000e+10
995.000000 3.39767000e+10
1005.000000 3.55512000e+10
1015.000000 3.11765000e+10
1025.000000 8.97589000e+09
1035.000000 2.67925000e+10
1045.000000 3.52917000e+10
1055.000000 3.42298000e+10
1065.000000 3.08947000e+10
1075.000000 3.23613000e+10
1085.000000 2.95972000e+10
1095.000000 3.15422000e+10
1105.000000 2.98934000e+10
1115.000000 2.95126000e+10
1125.000000 2.73025000e+10
1135.000000 2.84135000e+10
1145.000000 2.64938000e+10
1155.000000 2.70684000e+10
1165.000000 2.66168000e+10
1175.000000 2.22388000e+10
1185.000000 2.51199000e+10
1195.000000 2.32310000e+10
1205.000000 1.90575000e+10
1215.000000 6.50831000e+09
1225.000000 1.87957000e+10
1235.000000 2.20948000e+10
1245.000000 2.19134000e+10
1255.000000 2.15409000e+10
1265.000000 2.10993000e+10
1275.000000 2.10732000e+10
1285.000000 2.06039000e+10
1295.000000 1.86695000e+10
1305.000000 1.86855000e+10
1315.000000 1.92850000e+10
1325.000000 1.85446000e+10
1335.000000 1.77497000e+10
1345.000000 1.78402000e+10
1355.000000 1.77467000e+10
1365.000000 1.70800000e+10
1375.000000 1.67826000e+10
1385.000000 1.65034000e+10
1395.000000 1.53414000e+10
1405.000000 1.53535000e+10
1415.000000 1.53945000e+10
1425.000000 1.50805000e+10
1435.000000 1.48978000e+10
1442.000000 1.48321000e+10
1447.000000 1.46314000e+10
1455.000000 1.43757000e+10
1465.000000 1.39839000e+10
1475.000000 1.37471000e+10
1485.000000 1.34512000e+10
1495.000000 1.31980000e+10
1505.000000 1.26921000e+10
1512.000000 1.23524000e+10
1517.000000 1.23647000e+10
1525.000000 1.21917000e+10
1535.000000 1.15317000e+10
1545.000000 1.14834000e+10
1555.000000 1.10773000e+10
1565.000000 1.12201000e+10
1575.000000 1.11733000e+10
1585.000000 1.09843000e+10
1595.000000 1.08362000e+10
1605.000000 1.04677000e+10
1615.000000 1.02679000e+10
1625.000000 1.02109000e+10
1635.000000 1.01456000e+10
1645.000000 9.83706000e+09
1655.000000 9.78662000e+09
1665.000000 9.69062000e+09
1672.000000 9.45697000e+09
1677.000000 9.57185000e+09
1685.000000 9.40608000e+09
1695.000000 9.17308000e+09
1705.000000 8.94968000e+09
1715.000000 8.70715000e+09
1725.000000 8.58180000e+09
1735.000000 8.51370000e+09
1745.000000 8.34947000e+09
1755.000000 8.28871000e+09
1765.000000 7.97145000e+09
1775.000000 7.89444000e+09
1785.000000 7.83308000e+09
1795.000000 7.76674000e+09
1805.000000 7.68474000e+09
1815.000000 7.45048000e+09
1825.000000 7.38523000e+09
1835.000000 7.25147000e+09
1845.000000 6.90204000e+09
1855.000000 6.75962000e+09
1865.000000 6.76553000e+09
1875.000000 6.78335000e+09
1885.000000 6.41714000e+09
1895.000000 6.17251000e+09
1905.000000 6.32650000e+09
1915.000000 6.09972000e+09
1925.000000 5.95976000e+09
1935.000000 6.01624000e+09
1945.000000 6.02793000e+09
1955.000000 5.70965000e+09
1967.000000 5.80680000e+09
1976.000000 5.85851000e+09
1984.000000 5.63641000e+09
1995.000000 5.47049000e+09
2005.000000 5.51324000e+09
2015.000000 5.49623000e+09
2025.000000 5.47507000e+09
2035.000000 5.29130000e+09
2045.000000 5.22157000e+09
2055.000000 5.07096000e+09
2065.000000 5.03663000e+09
2074.000000 5.10355000e+09
2078.000000 4.94720000e+09
2085.000000 4.94247000e+09
2095.000000 4.80982000e+09
2105.000000 4.83581000e+09
2115.000000 4.79238000e+09
2125.000000 4.77158000e+09
2135.000000 4.68930000e+09
2145.000000 4.58754000e+09
2155.000000 4.56348000e+09
2165.000000 4.50912000e+09
2175.000000 4.43765000e+09
2185.000000 4.38419000e+09
2195.000000 4.33620000e+09
2205.000000 4.27480000e+09
2215.000000 4.22001000e+09
2225.000000 4.15377000e+09
2235.000000 4.09436000e+09
2245.000000 4.05378000e+09
2255.000000 3.99116000e+09
2265.000000 3.94880000e+09
2275.000000 3.89611000e+09
2285.000000 3.85025000e+09
2295.000000 3.74990000e+09
2305.000000 3.74700000e+09
2315.000000 3.69023000e+09
2325.000000 3.64518000e+09
2335.000000 3.58749000e+09
2345.000000 3.54661000e+09
2355.000000 3.51058000e+09
2365.000000 3.46297000e+09
2375.000000 3.41771000e+09
2385.000000 3.37156000e+09
2395.000000 3.32993000e+09
2405.000000 3.28888000e+09
2415.000000 3.24497000e+09
2425.000000 3.21390000e+09
2435.000000 3.16831000e+09
2445.000000 3.13167000e+09
2455.000000 3.09708000e+09
2465.000000 3.05694000e+09
2475.000000 3.01974000e+09
2485.000000 2.98212000e+09
2495.000000 2.89503000e+09
2505.000000 2.90720000e+09
2513.000000 2.84899000e+09
2518.000000 2.86276000e+09
2525.000000 2.83840000e+09
2535.000000 2.80298000e+09
2545.000000 2.75767000e+09
2555.000000 2.73699000e+09
2565.000000 2.70487000e+09
2575.000000 2.67669000e+09
2585.000000 2.64530000e+09
2595.000000 2.61388000e+09
2605.000000 2.60001000e+09
2615.000000 2.57113000e+09
2625.000000 2.54212000e+09
2635.000000 2.50957000e+09
2645.000000 2.48158000e+09
2655.000000 2.44999000e+09
2665.000000 2.41387000e+09
2675.000000 2.38474000e+09
2685.000000 2.37464000e+09
2695.000000 2.32453000e+09
2705.000000 2.31870000e+09
2715.000000 2.29281000e+09
2725.000000 2.24679000e+09
2735.000000 2.24183000e+09
2745.000000 2.20927000e+09
2755.000000 2.18746000e+09
2765.000000 2.14638000e+09
2775.000000 2.14425000e+09
2785.000000 2.11950000e+09
2795.000000 2.07094000e+09
2805.000000 2.06372000e+09
2815.000000 2.05108000e+09
2825.000000 2.00425000e+09
2835.000000 1.98039000e+09
2845.000000 1.98394000e+09
2855.000000 1.96217000e+09
2865.000000 1.94184000e+09
2875.000000 1.92065000e+09
2885.000000 1.90021000e+09
2895.000000 1.87969000e+09
2910.000000 1.84919000e+09
2930.000000 1.80959000e+09
2950.000000 1.75722000e+09
2970.000000 1.73513000e+09
2990.000000 1.69809000e+09
3010.000000 1.66275000e+09
3030.000000 1.63000000e+09
3050.000000 1.59670000e+09
3070.000000 1.56433000e+09
3090.000000 1.53054000e+09
3110.000000 1.50168000e+09
3130.000000 1.47290000e+09
3150.000000 1.44389000e+09
3170.000000 1.41448000e+09
3190.000000 1.37411000e+09
3210.000000 1.35949000e+09
3230.000000 1.33259000e+09
3250.000000 1.30668000e+09
3270.000000 1.28314000e+09
3290.000000 1.25648000e+09
3310.000000 1.23474000e+09
3330.000000 1.21129000e+09
3350.000000 1.18610000e+09
3370.000000 1.16616000e+09
3390.000000 1.14447000e+09
3410.000000 1.12328000e+09
3430.000000 1.09709000e+09
3450.000000 1.07276000e+09
3470.000000 1.05645000e+09
3490.000000 1.03717000e+09
3510.000000 1.02080000e+09
3530.000000 1.00479000e+09
3550.000000 9.87134000e+08
3570.000000 9.75661000e+08
3590.000000 9.51053000e+08
3610.000000 9.37336000e+08
3630.000000 9.18201000e+08
3640.000000 9.17371000e+08
3650.000000 9.00870000e+08
3670.000000 8.89372000e+08
3690.000000 8.72757000e+08
3710.000000 8.42681000e+08
3730.000000 8.07457000e+08
3750.000000 8.26220000e+08
3770.000000 8.20180000e+08
3790.000000 8.66676000e+08
3810.000000 9.06574000e+08
3830.000000 7.85901000e+08
3850.000000 9.37319000e+08
3870.000000 9.53212000e+08
3890.000000 7.40657000e+08
3910.000000 9.38860000e+08
3930.000000 9.30646000e+08
3950.000000 9.09487000e+08
3970.000000 6.89117000e+08
3990.000000 8.70069000e+08
4010.000000 8.71767000e+08
4030.000000 8.14191000e+08
4050.000000 8.53598000e+08
4070.000000 8.32858000e+08
4090.000000 7.52756000e+08
4110.000000 6.52292000e+08
4130.000000 7.79393000e+08
4150.000000 7.75267000e+08
4170.000000 7.70557000e+08
4190.000000 7.60107000e+08
4210.000000 7.47864000e+08
4230.000000 7.35209000e+08
4250.000000 7.22590000e+08
4270.000000 7.07635000e+08
4290.000000 6.96999000e+08
4310.000000 6.80243000e+08
4330.000000 6.04068000e+08
4350.000000 5.49052000e+08
4370.000000 6.45160000e+08
4390.000000 6.20803000e+08
4410.000000 6.32502000e+08
4430.000000 6.20604000e+08
4450.000000 6.13649000e+08
4470.000000 5.71517000e+08
4490.000000 5.93252000e+08
4510.000000 5.85576000e+08
4530.000000 5.76286000e+08
4550.000000 5.67155000e+08
4570.000000 5.58215000e+08
4590.000000 5.49749000e+08
4610.000000 5.41249000e+08
4630.000000 5.32910000e+08
4650.000000 5.23754000e+08
4670.000000 5.16790000e+08
4690.000000 5.09069000e+08
4710.000000 4.93971000e+08
4730.000000 4.93389000e+08
4750.000000 4.85603000e+08
4770.000000 4.79437000e+08
4790.000000 4.72092000e+08
4810.000000 4.63615000e+08
4830.000000 4.53292000e+08
4850.000000 4.11219000e+08
4870.000000 3.65755000e+08
4890.000000 4.31397000e+08
4910.000000 4.29624000e+08
4930.000000 4.12676000e+08
4950.000000 4.19603000e+08
4970.000000 4.13762000e+08
4990.000000 4.07789000e+08
5010.000000 3.95970000e+08
5030.000000 3.96207000e+08
5050.000000 3.87757000e+08
5070.000000 3.85143000e+08
5090.000000 3.79723000e+08
5110.000000 3.74391000e+08
5130.000000 3.69029000e+08
5150.000000 3.63896000e+08
5170.000000 3.58972000e+08
5190.000000 3.54029000e+08
5210.000000 3.49054000e+08
5230.000000 3.44364000e+08
5250.000000 3.39654000e+08
5270.000000 3.35020000e+08
5290.000000 3.30472000e+08
5310.000000 3.25996000e+08
5330.000000 3.21605000e+08
5350.000000 3.17244000e+08
5370.000000 3.13056000e+08
5390.000000 3.08870000e+08
5410.000000 3.04763000e+08
5430.000000 3.00695000e+08
5450.000000 2.96729000e+08
5470.000000 2.92838000e+08
5490.000000 2.88996000e+08
5510.000000 2.85226000e+08
5530.000000 2.81504000e+08
5550.000000 2.77852000e+08
5570.000000 2.74245000e+08
5590.000000 2.70719000e+08
5610.000000 2.67212000e+08
5630.000000 2.63808000e+08
5650.000000 2.60374000e+08
5670.000000 2.57005000e+08
5690.000000 2.53689000e+08
5710.000000 2.50621000e+08
5730.000000 2.47463000e+08
5750.000000 2.44320000e+08
5770.000000 2.41305000e+08
5790.000000 2.38293000e+08
5810.000000 2.35316000e+08
5830.000000 2.32385000e+08
5850.000000 2.29522000e+08
5870.000000 2.18842000e+08
5890.000000 2.23277000e+08
5910.000000 2.21142000e+08
5930.000000 2.18432000e+08
5950.000000 2.15753000e+08
5970.000000 2.13179000e+08
5990.000000 2.10571000e+08
6010.000000 2.08045000e+08
6030.000000 2.05538000e+08
6050.000000 2.03080000e+08
6070.000000 2.00660000e+08
6090.000000 1.98268000e+08
6110.000000 1.95912000e+08
6130.000000 1.93594000e+08
6150.000000 1.91271000e+08
6170.000000 1.89043000e+08
6190.000000 1.86830000e+08
6210.000000 1.84642000e+08
6230.000000 1.82488000e+08
6250.000000 1.80367000e+08
6270.000000 1.78279000e+08
6290.000000 1.76214000e+08
6310.000000 1.74181000e+08
6330.000000 1.72180000e+08
6350.000000 1.70162000e+08
6370.000000 1.68241000e+08
6390.000000 1.66341000e+08
6410.000000 1.64443000e+08
6430.000000 1.62592000e+08
6450.000000 1.60752000e+08
6470.000000 1.58905000e+08
6490.000000 1.57131000e+08
6510.000000 1.55065000e+08
6530.000000 1.52553000e+08
6550.000000 1.44405000e+08
6570.000000 1.27590000e+08
6590.000000 1.46161000e+08
6610.000000 1.46408000e+08
6630.000000 1.45277000e+08
6650.000000 1.43825000e+08
6670.000000 1.40542000e+08
6690.000000 1.39047000e+08
6710.000000 1.39173000e+08
6730.000000 1.37648000e+08
6750.000000 1.36172000e+08
6770.000000 1.34695000e+08
6790.000000 1.33192000e+08
6810.000000 1.31810000e+08
6830.000000 1.30401000e+08
6850.000000 1.29006000e+08
6870.000000 1.27633000e+08
6890.000000 1.26275000e+08
6910.000000 1.24937000e+08
6930.000000 1.23613000e+08
6950.000000 1.22310000e+08
6970.000000 1.21027000e+08
6990.000000 1.19750000e+08
7010.000000 1.18500000e+08
7030.000000 1.17263000e+08
7050.000000 1.16045000e+08
7070.000000 1.12842000e+08
7090.000000 1.13653000e+08
7110.000000 1.12478000e+08
7130.000000 1.11321000e+08
7150.000000 1.10176000e+08
7170.000000 1.09027000e+08
7190.000000 1.07941000e+08
7210.000000 1.06835000e+08
7230.000000 1.05474000e+08
7250.000000 1.04678000e+08
7270.000000 1.03618000e+08
7290.000000 1.01668000e+08
7310.000000 1.01528000e+08
7330.000000 1.00526000e+08
7350.000000 9.95197000e+07
7370.000000 9.85295000e+07
7390.000000 9.75485000e+07
7410.000000 9.65767000e+07
7430.000000 9.56207000e+07
7450.000000 9.46940000e+07
7470.000000 9.37488000e+07
7490.000000 9.28324000e+07
7510.000000 9.18844000e+07
7530.000000 9.10249000e+07
7550.000000 9.01335000e+07
7570.000000 8.92569000e+07
7590.000000 8.83947000e+07
7610.000000 8.75339000e+07
7630.000000 8.66873000e+07
7650.000000 8.58548000e+07
7670.000000 8.50299000e+07
7690.000000 8.42123000e+07
7710.000000 8.34084000e+07
7730.000000 8.26116000e+07
7750.000000 8.18220000e+07
7770.000000 8.10207000e+07
7790.000000 8.02762000e+07
7810.000000 7.94703000e+07
7830.000000 7.87699000e+07
7850.000000 7.81061000e+07
7870.000000 7.73751000e+07
7890.000000 7.65900000e+07
7910.000000 7.59382000e+07
7930.000000 7.52322000e+07
7950.000000 7.44667000e+07
7970.000000 7.36427000e+07
7990.000000 7.29735000e+07
8010.000000 7.22866000e+07
8030.000000 7.16115000e+07
8050.000000 7.09538000e+07
8070.000000 7.03191000e+07
8090.000000 6.95919000e+07
8110.000000 6.90429000e+07
8130.000000 6.84699000e+07
8150.000000 6.77770000e+07
8170.000000 6.72593000e+07
8190.000000 6.65605000e+07
8210.000000 6.57895000e+07
8230.000000 6.53811000e+07
8250.000000 6.48154000e+07
8270.000000 6.39074000e+07
8290.000000 6.36214000e+07
8310.000000 6.30864000e+07
8330.000000 6.24906000e+07
8350.000000 6.16135000e+07
8370.000000 6.12871000e+07
8390.000000 6.08454000e+07
8410.000000 6.03060000e+07
8430.000000 5.97233000e+07
8450.000000 5.87656000e+07
8470.000000 5.86512000e+07
8490.000000 5.79937000e+07
8510.000000 5.75081000e+07
8530.000000 5.69799000e+07
8550.000000 5.60694000e+07
8570.000000 5.65056000e+07
8590.000000 5.44355000e+07
8610.000000 5.44166000e+07
8630.000000 5.54647000e+07
8650.000000 5.38239000e+07
8670.000000 5.11902000e+07
8690.000000 5.40279000e+07
8710.000000 5.43214000e+07
8730.000000 5.24811000e+07
8750.000000 4.80260000e+07
8770.000000 5.08426000e+07
8790.000000 5.27715000e+07
8810.000000 5.26341000e+07
8830.000000 5.18065000e+07
8850.000000 4.82008000e+07
8870.000000 4.49570000e+07
8890.000000 4.97510000e+07
8910.000000 5.05054000e+07
8930.000000 5.02700000e+07
8950.000000 5.00127000e+07
8970.000000 4.93919000e+07
8990.000000 4.76109000e+07
9010.000000 4.22899000e+07
9030.000000 4.42313000e+07
9050.000000 4.71978000e+07
9070.000000 4.69533000e+07
9090.000000 4.70752000e+07
9110.000000 4.69277000e+07
9130.000000 4.65822000e+07
9150.000000 4.61628000e+07
9170.000000 4.55495000e+07
9190.000000 4.49366000e+07
9210.000000 4.24970000e+07
9230.000000 3.75677000e+07
9250.000000 4.17904000e+07
9270.000000 4.33836000e+07
9290.000000 4.34689000e+07
9310.000000 4.30129000e+07
9330.000000 4.29871000e+07
9350.000000 4.26189000e+07
9370.000000 4.23265000e+07
9390.000000 4.19857000e+07
9410.000000 4.16402000e+07
9430.000000 4.13147000e+07
9450.000000 4.09497000e+07
9470.000000 4.02317000e+07
9490.000000 4.00932000e+07
9510.000000 3.90484000e+07
9530.000000 3.69139000e+07
9550.000000 3.29518000e+07
9570.000000 3.72082000e+07
9590.000000 3.82484000e+07
9610.000000 3.81379000e+07
9630.000000 3.78233000e+07
9650.000000 3.78556000e+07
9670.000000 3.75598000e+07
9690.000000 3.72227000e+07
9710.000000 3.68442000e+07
9730.000000 3.66889000e+07
9750.000000 3.64042000e+07
9770.000000 3.61223000e+07
9790.000000 3.58428000e+07
9810.000000 3.55657000e+07
9830.000000 3.52924000e+07
9850.000000 3.50207000e+07
9870.000000 3.47517000e+07
9890.000000 3.44854000e+07
9910.000000 3.41921000e+07
9930.000000 3.39609000e+07
9950.000000 3.36997000e+07
9970.000000 3.33554000e+07
9990.000000 3.30159000e+07
10025.000000 3.09820000e+07
10075.000000 2.99329000e+07
10125.000000 3.13351000e+07
10175.000000 3.09562000e+07
10225.000000 3.03684000e+07
10275.000000 2.98267000e+07
10325.000000 2.91473000e+07
10375.000000 2.87477000e+07
10425.000000 2.82265000e+07
10475.000000 2.77170000e+07
10525.000000 2.72189000e+07
10575.000000 2.67324000e+07
10625.000000 2.62565000e+07
10675.000000 2.57287000e+07
10725.000000 2.53358000e+07
10775.000000 2.48906000e+07
10825.000000 2.41542000e+07
10875.000000 2.38759000e+07
10925.000000 2.14311000e+07
10975.000000 2.24654000e+07
11025.000000 2.25801000e+07
11075.000000 2.23807000e+07
11125.000000 2.20341000e+07
11175.000000 2.16606000e+07
11225.000000 2.12809000e+07
11275.000000 2.09352000e+07
11325.000000 2.05851000e+07
11375.000000 2.02421000e+07
11425.000000 1.99054000e+07
11475.000000 1.95764000e+07
11525.000000 1.92540000e+07
11575.000000 1.89376000e+07
11625.000000 1.86284000e+07
11675.000000 1.83252000e+07
11725.000000 1.80284000e+07
11775.000000 1.77370000e+07
11825.000000 1.74521000e+07
11875.000000 1.71727000e+07
11925.000000 1.68986000e+07
11975.000000 1.64197000e+07
12025.000000 1.63671000e+07
12075.000000 1.61093000e+07
12125.000000 1.58563000e+07
12175.000000 1.56084000e+07
12225.000000 1.53656000e+07
12275.000000 1.51271000e+07
12325.000000 1.48933000e+07
12375.000000 1.46642000e+07
12425.000000 1.44393000e+07
12475.000000 1.42185000e+07
12525.000000 1.39676000e+07
12575.000000 1.37900000e+07
12625.000000 1.35817000e+07
12675.000000 1.33772000e+07
12725.000000 1.31495000e+07
12775.000000 1.26765000e+07
12825.000000 1.16165000e+07
12875.000000 1.24562000e+07
12925.000000 1.23925000e+07
12975.000000 1.21184000e+07
13025.000000 1.20500000e+07
13075.000000 1.18740000e+07
