# Kurucz ODFNEW /NOVER, alpha: 0.0 (2003)
# teff = 30000 K (value for the effective temperature for the model. Temperatures are given in K)
# logg = 4.5 log(cm/s2) (value for Log(G) for the model.)
# lh = 1.25  (l/Hp where l is the  mixing length of the convective element and Hp is the pressure scale height)
# meta = -2  (value for the Metallicity for the model.)
# vtur = 2 km/s (Microturbulence velocity)
# alpha = 0  (Alpha)
#
# column 1: WAVELENGTH (ANGSTROM), Wavelength in Angstrom
# column 2: FLUX (ERG/CM2/S/A), Flux in erg/cm2/s/A
147.200000 1.36580000e-08
151.000000 4.64282000e-08
155.200000 1.67430000e-07
158.800000 4.76681000e-07
162.000000 1.16273000e-06
166.000000 3.37574000e-06
170.300000 1.00548000e-05
173.400000 2.13326000e-05
176.800000 4.72385000e-05
180.200000 1.01474000e-04
181.700000 1.40913000e-04
186.100000 3.58105000e-04
191.000000 9.61191000e-04
193.900000 1.68459000e-03
198.400000 3.89109000e-03
201.800000 7.13916000e-03
205.000000 1.24023000e-02
210.500000 3.08439000e-02
216.200000 7.53323000e-02
219.800000 1.29179000e-01
223.000000 2.05588000e-01
226.800000 3.50984000e-01
230.000000 3.02060000e+01
234.000000 9.02813000e+01
240.000000 1.69502000e+02
246.500000 3.25323000e+02
252.400000 5.73168000e+02
256.800000 7.22425000e+02
260.000000 1.11079000e+03
264.000000 1.51176000e+03
268.500000 2.19655000e+03
273.500000 3.24098000e+03
278.500000 4.68712000e+03
284.000000 7.04499000e+03
290.000000 1.05887000e+04
296.000000 1.55944000e+04
301.000000 2.04766000e+04
308.000000 2.86336000e+04
318.000000 5.81687000e+04
328.000000 9.84545000e+04
338.000000 1.64174000e+05
348.000000 2.62542000e+05
357.000000 3.91128000e+05
366.000000 5.76501000e+05
375.000000 8.10333000e+05
385.000000 1.19031000e+06
395.000000 1.68960000e+06
405.000000 2.35053000e+06
414.000000 3.13524000e+06
422.000000 3.95929000e+06
430.000000 4.96268000e+06
441.000000 6.71264000e+06
451.000000 8.71604000e+06
460.000000 1.07957000e+07
470.000000 1.37241000e+07
480.000000 1.71114000e+07
490.000000 2.11194000e+07
500.000000 2.59054000e+07
506.000000 1.51171000e+08
512.000000 5.49364000e+08
520.000000 5.66668000e+08
530.000000 6.23287000e+08
540.000000 5.89331000e+08
550.000000 6.87553000e+08
560.000000 7.26586000e+08
570.000000 7.73623000e+08
580.000000 7.38956000e+08
590.000000 8.33902000e+08
600.000000 8.68832000e+08
610.000000 9.17788000e+08
620.000000 9.60807000e+08
630.000000 1.01088000e+09
640.000000 1.03003000e+09
650.000000 1.09559000e+09
658.000000 1.12967000e+09
665.000000 1.16292000e+09
675.000000 1.19173000e+09
685.000000 1.21355000e+09
695.000000 1.31864000e+09
705.000000 1.33387000e+09
716.000000 1.41754000e+09
726.000000 1.46053000e+09
735.000000 1.52017000e+09
745.000000 1.57710000e+09
755.000000 1.62753000e+09
765.000000 1.67925000e+09
775.000000 1.74037000e+09
785.000000 1.80758000e+09
795.000000 1.85073000e+09
805.000000 1.90671000e+09
815.000000 1.95203000e+09
825.000000 2.01830000e+09
835.000000 1.99429000e+09
845.000000 2.11230000e+09
855.000000 2.15960000e+09
865.000000 2.21992000e+09
875.000000 2.28038000e+09
885.000000 2.33524000e+09
895.000000 2.38583000e+09
905.000000 2.41771000e+09
915.000000 2.88262000e+09
925.000000 1.40974000e+10
935.000000 2.84616000e+10
945.000000 5.59721000e+10
955.000000 6.59217000e+10
965.000000 8.31315000e+10
975.000000 4.30814000e+10
985.000000 8.33233000e+10
995.000000 7.72999000e+10
1005.000000 8.09799000e+10
1015.000000 7.62217000e+10
1025.000000 3.95438000e+10
1035.000000 7.11591000e+10
1045.000000 7.65240000e+10
1055.000000 7.47146000e+10
1065.000000 6.98040000e+10
1075.000000 6.97991000e+10
1085.000000 6.40766000e+10
1095.000000 6.76088000e+10
1105.000000 6.49837000e+10
1115.000000 6.34991000e+10
1125.000000 5.97826000e+10
1135.000000 6.10324000e+10
1145.000000 5.86434000e+10
1155.000000 5.79119000e+10
1165.000000 5.67193000e+10
1175.000000 4.94002000e+10
1185.000000 5.33373000e+10
1195.000000 5.15725000e+10
1205.000000 4.78039000e+10
1215.000000 2.57648000e+10
1225.000000 4.62732000e+10
1235.000000 4.78166000e+10
1245.000000 4.64269000e+10
1255.000000 4.60607000e+10
1265.000000 4.51258000e+10
1275.000000 4.42284000e+10
1285.000000 4.32689000e+10
1295.000000 4.09387000e+10
1305.000000 4.05968000e+10
1315.000000 4.04174000e+10
1325.000000 3.91595000e+10
1335.000000 3.79028000e+10
1345.000000 3.76870000e+10
1355.000000 3.69768000e+10
1365.000000 3.60387000e+10
1375.000000 3.53072000e+10
1385.000000 3.45616000e+10
1395.000000 3.27127000e+10
1405.000000 3.22678000e+10
1415.000000 3.22781000e+10
1425.000000 3.14389000e+10
1435.000000 3.10022000e+10
1442.000000 3.06440000e+10
1447.000000 3.02922000e+10
1455.000000 2.97412000e+10
1465.000000 2.91171000e+10
1475.000000 2.85055000e+10
1485.000000 2.79742000e+10
1495.000000 2.73585000e+10
1505.000000 2.66901000e+10
1512.000000 2.63430000e+10
1517.000000 2.60813000e+10
1525.000000 2.56010000e+10
1535.000000 2.46114000e+10
1545.000000 2.38882000e+10
1555.000000 2.33810000e+10
1565.000000 2.33323000e+10
1575.000000 2.30734000e+10
1585.000000 2.27172000e+10
1595.000000 2.22866000e+10
1605.000000 2.15330000e+10
1615.000000 2.10765000e+10
1625.000000 2.07951000e+10
1635.000000 2.03484000e+10
1645.000000 1.94168000e+10
1655.000000 1.98431000e+10
1665.000000 1.94981000e+10
1672.000000 1.91533000e+10
1677.000000 1.92241000e+10
1685.000000 1.88881000e+10
1695.000000 1.85085000e+10
1705.000000 1.81145000e+10
1715.000000 1.76592000e+10
1725.000000 1.73550000e+10
1735.000000 1.72144000e+10
1745.000000 1.68766000e+10
1755.000000 1.65735000e+10
1765.000000 1.62169000e+10
1775.000000 1.59761000e+10
1785.000000 1.57444000e+10
1795.000000 1.54771000e+10
1805.000000 1.52437000e+10
1815.000000 1.49355000e+10
1825.000000 1.46818000e+10
1835.000000 1.44450000e+10
1845.000000 1.40531000e+10
1855.000000 1.36951000e+10
1865.000000 1.35421000e+10
1875.000000 1.34323000e+10
1885.000000 1.30463000e+10
1895.000000 1.27086000e+10
1905.000000 1.27043000e+10
1915.000000 1.23418000e+10
1925.000000 1.20960000e+10
1935.000000 1.20226000e+10
1945.000000 1.19222000e+10
1955.000000 1.15216000e+10
1967.000000 1.14837000e+10
1976.000000 1.13909000e+10
1984.000000 1.11461000e+10
1995.000000 1.08352000e+10
2005.000000 1.08332000e+10
2015.000000 1.06991000e+10
2025.000000 1.05523000e+10
2035.000000 1.03397000e+10
2045.000000 1.01749000e+10
2055.000000 9.38116000e+09
2065.000000 9.14917000e+09
2074.000000 9.16540000e+09
2078.000000 9.04465000e+09
2085.000000 9.13740000e+09
2095.000000 9.20059000e+09
2105.000000 9.26642000e+09
2115.000000 9.16974000e+09
2125.000000 9.03942000e+09
2135.000000 8.89626000e+09
2145.000000 8.75865000e+09
2155.000000 8.64997000e+09
2165.000000 8.49148000e+09
2175.000000 8.40083000e+09
2185.000000 8.23968000e+09
2195.000000 8.15930000e+09
2205.000000 8.03897000e+09
2215.000000 7.87978000e+09
2225.000000 7.80226000e+09
2235.000000 7.68584000e+09
2245.000000 7.57790000e+09
2255.000000 7.42490000e+09
2265.000000 7.36022000e+09
2275.000000 7.25453000e+09
2285.000000 7.14925000e+09
2295.000000 6.95562000e+09
2305.000000 6.90923000e+09
2315.000000 6.84699000e+09
2325.000000 6.75080000e+09
2335.000000 6.65406000e+09
2345.000000 6.56420000e+09
2355.000000 6.47230000e+09
2365.000000 6.38212000e+09
2375.000000 6.29209000e+09
2385.000000 6.17241000e+09
2395.000000 6.11782000e+09
2405.000000 6.03572000e+09
2415.000000 5.95264000e+09
2425.000000 5.87264000e+09
2435.000000 5.79102000e+09
2445.000000 5.71368000e+09
2455.000000 5.63742000e+09
2465.000000 5.56201000e+09
2475.000000 5.48720000e+09
2485.000000 5.41433000e+09
2495.000000 5.21615000e+09
2505.000000 5.26843000e+09
2513.000000 5.14719000e+09
2518.000000 5.17495000e+09
2525.000000 5.13348000e+09
2535.000000 5.06650000e+09
2545.000000 4.99338000e+09
2555.000000 4.93261000e+09
2565.000000 4.87126000e+09
2575.000000 4.80844000e+09
2585.000000 4.74690000e+09
2595.000000 4.68616000e+09
2605.000000 4.64887000e+09
2615.000000 4.58947000e+09
2625.000000 4.53117000e+09
2635.000000 4.47036000e+09
2645.000000 4.41202000e+09
2655.000000 4.35228000e+09
2665.000000 4.28992000e+09
2675.000000 4.23164000e+09
2685.000000 4.20054000e+09
2695.000000 4.12036000e+09
2705.000000 4.09597000e+09
2715.000000 4.04546000e+09
2725.000000 3.96738000e+09
2735.000000 3.93167000e+09
2745.000000 3.89832000e+09
2755.000000 3.85141000e+09
2765.000000 3.77443000e+09
2775.000000 3.75901000e+09
2785.000000 3.71327000e+09
2795.000000 3.65921000e+09
2805.000000 3.62263000e+09
2815.000000 3.58168000e+09
2825.000000 3.50435000e+09
2835.000000 3.47644000e+09
2845.000000 3.45576000e+09
2855.000000 3.41459000e+09
2865.000000 3.37445000e+09
2875.000000 3.33502000e+09
2885.000000 3.29628000e+09
2895.000000 3.25773000e+09
2910.000000 3.20101000e+09
2930.000000 3.12766000e+09
2950.000000 3.03444000e+09
2970.000000 2.98705000e+09
2990.000000 2.91954000e+09
3010.000000 2.85371000e+09
3030.000000 2.79085000e+09
3050.000000 2.72922000e+09
3070.000000 2.66935000e+09
3090.000000 2.60899000e+09
3110.000000 2.55400000e+09
3130.000000 2.50043000e+09
3150.000000 2.44672000e+09
3170.000000 2.39386000e+09
3190.000000 2.32336000e+09
3210.000000 2.28953000e+09
3230.000000 2.24404000e+09
3250.000000 2.19693000e+09
3270.000000 2.15336000e+09
3290.000000 2.10607000e+09
3310.000000 2.06560000e+09
3330.000000 2.02326000e+09
3350.000000 1.97870000e+09
3370.000000 1.94205000e+09
3390.000000 1.90307000e+09
3410.000000 1.86503000e+09
3430.000000 1.82010000e+09
3450.000000 1.77792000e+09
3470.000000 1.74778000e+09
3490.000000 1.71339000e+09
3510.000000 1.68276000e+09
3530.000000 1.65308000e+09
3550.000000 1.62123000e+09
3570.000000 1.59951000e+09
3590.000000 1.55783000e+09
3610.000000 1.53339000e+09
3630.000000 1.49941000e+09
3640.000000 1.49653000e+09
3650.000000 1.46651000e+09
3670.000000 1.44478000e+09
3690.000000 1.41707000e+09
3710.000000 1.37000000e+09
3730.000000 1.31839000e+09
3750.000000 1.32274000e+09
3770.000000 1.29872000e+09
3790.000000 1.34603000e+09
3810.000000 1.39264000e+09
3830.000000 1.22830000e+09
3850.000000 1.41456000e+09
3870.000000 1.42533000e+09
3890.000000 1.15692000e+09
3910.000000 1.39378000e+09
3930.000000 1.37682000e+09
3950.000000 1.34686000e+09
3970.000000 1.07221000e+09
3990.000000 1.29067000e+09
4010.000000 1.28249000e+09
4030.000000 1.21110000e+09
4050.000000 1.24995000e+09
4070.000000 1.22205000e+09
4090.000000 1.12797000e+09
4110.000000 9.94518000e+08
4130.000000 1.14594000e+09
4150.000000 1.13427000e+09
4170.000000 1.12376000e+09
4190.000000 1.10613000e+09
4210.000000 1.08680000e+09
4230.000000 1.06893000e+09
4250.000000 1.05027000e+09
4270.000000 1.03112000e+09
4290.000000 1.01367000e+09
4310.000000 9.90897000e+08
4330.000000 9.01632000e+08
4350.000000 8.26844000e+08
4370.000000 9.39649000e+08
4390.000000 9.06945000e+08
4410.000000 9.16346000e+08
4430.000000 8.98895000e+08
4450.000000 8.87219000e+08
4470.000000 8.35819000e+08
4490.000000 8.57840000e+08
4510.000000 8.44729000e+08
4530.000000 8.31063000e+08
4550.000000 8.16749000e+08
4570.000000 8.04385000e+08
4590.000000 7.91471000e+08
4610.000000 7.78999000e+08
4630.000000 7.66660000e+08
4650.000000 7.52901000e+08
4670.000000 7.42562000e+08
4690.000000 7.27868000e+08
4710.000000 7.11119000e+08
4730.000000 7.08587000e+08
4750.000000 6.97507000e+08
4770.000000 6.87001000e+08
4790.000000 6.76448000e+08
4810.000000 6.65119000e+08
4830.000000 6.51371000e+08
4850.000000 6.02975000e+08
4870.000000 5.42628000e+08
4890.000000 6.20076000e+08
4910.000000 6.14957000e+08
4930.000000 5.93314000e+08
4950.000000 5.98846000e+08
4970.000000 5.90162000e+08
4990.000000 5.81432000e+08
5010.000000 5.66203000e+08
5030.000000 5.64478000e+08
5050.000000 5.53324000e+08
5070.000000 5.48161000e+08
5090.000000 5.40198000e+08
5110.000000 5.32400000e+08
5130.000000 5.24735000e+08
5150.000000 5.17187000e+08
5170.000000 5.09811000e+08
5190.000000 5.02560000e+08
5210.000000 4.95434000e+08
5230.000000 4.88429000e+08
5250.000000 4.81558000e+08
5270.000000 4.74790000e+08
5290.000000 4.68150000e+08
5310.000000 4.61624000e+08
5330.000000 4.55222000e+08
5350.000000 4.48916000e+08
5370.000000 4.42731000e+08
5390.000000 4.36637000e+08
5410.000000 4.30287000e+08
5430.000000 4.24772000e+08
5450.000000 4.18997000e+08
5470.000000 4.13320000e+08
5490.000000 4.07739000e+08
5510.000000 4.02240000e+08
5530.000000 3.96848000e+08
5550.000000 3.91547000e+08
5570.000000 3.86323000e+08
5590.000000 3.81189000e+08
5610.000000 3.76142000e+08
5630.000000 3.71180000e+08
5650.000000 3.66303000e+08
5670.000000 3.61473000e+08
5690.000000 3.56668000e+08
5710.000000 3.52128000e+08
5730.000000 3.47552000e+08
5750.000000 3.43019000e+08
5770.000000 3.38642000e+08
5790.000000 3.34295000e+08
5810.000000 3.30011000e+08
5830.000000 3.25778000e+08
5850.000000 3.21650000e+08
5870.000000 3.08200000e+08
5890.000000 3.13006000e+08
5910.000000 3.09597000e+08
5930.000000 3.05691000e+08
5950.000000 3.01862000e+08
5970.000000 2.98120000e+08
5990.000000 2.94400000e+08
6010.000000 2.90755000e+08
6030.000000 2.87151000e+08
6050.000000 2.83619000e+08
6070.000000 2.80137000e+08
6090.000000 2.76706000e+08
6110.000000 2.73323000e+08
6130.000000 2.69988000e+08
6150.000000 2.66711000e+08
6170.000000 2.63481000e+08
6190.000000 2.60306000e+08
6210.000000 2.57176000e+08
6230.000000 2.54091000e+08
6250.000000 2.51050000e+08
6270.000000 2.48062000e+08
6290.000000 2.45106000e+08
6310.000000 2.42202000e+08
6330.000000 2.39338000e+08
6350.000000 2.36516000e+08
6370.000000 2.33742000e+08
6390.000000 2.30999000e+08
6410.000000 2.28304000e+08
6430.000000 2.25646000e+08
6450.000000 2.23027000e+08
6470.000000 2.20435000e+08
6490.000000 2.17889000e+08
6510.000000 2.15263000e+08
6530.000000 2.11923000e+08
6550.000000 2.02790000e+08
6570.000000 1.81379000e+08
6590.000000 2.03649000e+08
6610.000000 2.02996000e+08
6630.000000 2.01079000e+08
6650.000000 1.98901000e+08
6670.000000 1.94686000e+08
6690.000000 1.92539000e+08
6710.000000 1.92297000e+08
6730.000000 1.90141000e+08
6750.000000 1.88040000e+08
6770.000000 1.85953000e+08
6790.000000 1.83878000e+08
6810.000000 1.81866000e+08
6830.000000 1.79865000e+08
6850.000000 1.77893000e+08
6870.000000 1.75949000e+08
6890.000000 1.74024000e+08
6910.000000 1.72127000e+08
6930.000000 1.70264000e+08
6950.000000 1.68428000e+08
6970.000000 1.66609000e+08
6990.000000 1.64809000e+08
7010.000000 1.63042000e+08
7030.000000 1.61300000e+08
7050.000000 1.59583000e+08
7070.000000 1.55440000e+08
7090.000000 1.56206000e+08
7110.000000 1.54553000e+08
7130.000000 1.52917000e+08
7150.000000 1.51311000e+08
7170.000000 1.49698000e+08
7190.000000 1.48153000e+08
7210.000000 1.46600000e+08
7230.000000 1.44997000e+08
7250.000000 1.43560000e+08
7270.000000 1.42073000e+08
7290.000000 1.39494000e+08
7310.000000 1.39141000e+08
7330.000000 1.37723000e+08
7350.000000 1.36312000e+08
7370.000000 1.34915000e+08
7390.000000 1.33537000e+08
7410.000000 1.32179000e+08
7430.000000 1.30834000e+08
7450.000000 1.29528000e+08
7470.000000 1.28214000e+08
7490.000000 1.26926000e+08
7510.000000 1.25610000e+08
7530.000000 1.24385000e+08
7550.000000 1.23139000e+08
7570.000000 1.21911000e+08
7590.000000 1.20700000e+08
7610.000000 1.19500000e+08
7630.000000 1.18318000e+08
7650.000000 1.17147000e+08
7670.000000 1.15992000e+08
7690.000000 1.14855000e+08
7710.000000 1.13727000e+08
7730.000000 1.12616000e+08
7750.000000 1.11515000e+08
7770.000000 1.10430000e+08
7790.000000 1.09355000e+08
7810.000000 1.08239000e+08
7830.000000 1.07251000e+08
7850.000000 1.06308000e+08
7870.000000 1.05281000e+08
7890.000000 1.04228000e+08
7910.000000 1.03280000e+08
7930.000000 1.02293000e+08
7950.000000 1.01320000e+08
7970.000000 1.00248000e+08
7990.000000 9.93457000e+07
8010.000000 9.83100000e+07
8030.000000 9.73535000e+07
8050.000000 9.64518000e+07
8070.000000 9.55925000e+07
8090.000000 9.45218000e+07
8110.000000 9.37641000e+07
8130.000000 9.29556000e+07
8150.000000 9.19895000e+07
8170.000000 9.12575000e+07
8190.000000 9.02900000e+07
8210.000000 8.92247000e+07
8230.000000 8.86080000e+07
8250.000000 8.78302000e+07
8270.000000 8.66568000e+07
8290.000000 8.61788000e+07
8310.000000 8.54263000e+07
8330.000000 8.46039000e+07
8350.000000 8.34751000e+07
8370.000000 8.29745000e+07
8390.000000 8.23278000e+07
8410.000000 8.15852000e+07
8430.000000 8.08009000e+07
8450.000000 7.95694000e+07
8470.000000 7.93306000e+07
8490.000000 7.84503000e+07
8510.000000 7.78063000e+07
8530.000000 7.70277000e+07
8550.000000 7.59823000e+07
8570.000000 7.62026000e+07
8590.000000 7.38111000e+07
8610.000000 7.37379000e+07
8630.000000 7.46105000e+07
8650.000000 7.26950000e+07
8670.000000 6.97990000e+07
8690.000000 7.26409000e+07
8710.000000 7.27695000e+07
8730.000000 7.06372000e+07
8750.000000 6.55663000e+07
8770.000000 6.85983000e+07
8790.000000 7.05392000e+07
8810.000000 7.02290000e+07
8830.000000 6.92396000e+07
8850.000000 6.50934000e+07
8870.000000 6.11707000e+07
8890.000000 6.66779000e+07
8910.000000 6.73232000e+07
8930.000000 6.69322000e+07
8950.000000 6.65252000e+07
8970.000000 6.57607000e+07
8990.000000 6.37204000e+07
9010.000000 5.73261000e+07
9030.000000 5.96366000e+07
9050.000000 6.29749000e+07
9070.000000 6.25189000e+07
9090.000000 6.25724000e+07
9110.000000 6.23388000e+07
9130.000000 6.19123000e+07
9150.000000 6.12684000e+07
9170.000000 6.05042000e+07
9190.000000 5.97728000e+07
9210.000000 5.69464000e+07
9230.000000 5.07875000e+07
9250.000000 5.60278000e+07
9270.000000 5.77197000e+07
9290.000000 5.76635000e+07
9310.000000 5.70857000e+07
9330.000000 5.69494000e+07
9350.000000 5.64259000e+07
9370.000000 5.60222000e+07
9390.000000 5.55659000e+07
9410.000000 5.51130000e+07
9430.000000 5.46634000e+07
9450.000000 5.42171000e+07
9470.000000 5.33373000e+07
9490.000000 5.31127000e+07
9510.000000 5.18773000e+07
9530.000000 4.93908000e+07
9550.000000 4.43471000e+07
9570.000000 4.96740000e+07
9590.000000 5.07286000e+07
9610.000000 5.05096000e+07
9630.000000 5.00847000e+07
9650.000000 5.00108000e+07
9670.000000 4.96148000e+07
9690.000000 4.91735000e+07
9710.000000 4.86914000e+07
9730.000000 4.84437000e+07
9750.000000 4.80628000e+07
9770.000000 4.76808000e+07
9790.000000 4.73093000e+07
9810.000000 4.69365000e+07
9830.000000 4.65703000e+07
9850.000000 4.62066000e+07
9870.000000 4.58455000e+07
9890.000000 4.54870000e+07
9910.000000 4.51232000e+07
9930.000000 4.47850000e+07
9950.000000 4.44377000e+07
9970.000000 4.40436000e+07
9990.000000 4.35843000e+07
10025.000000 4.11401000e+07
10075.000000 3.98123000e+07
10125.000000 4.13127000e+07
10175.000000 4.07584000e+07
10225.000000 3.99788000e+07
10275.000000 3.92481000e+07
10325.000000 3.83601000e+07
10375.000000 3.78057000e+07
10425.000000 3.71077000e+07
10475.000000 3.64281000e+07
10525.000000 3.57632000e+07
10575.000000 3.51125000e+07
10625.000000 3.44758000e+07
10675.000000 3.37899000e+07
10725.000000 3.32496000e+07
10775.000000 3.26562000e+07
10825.000000 3.17505000e+07
10875.000000 3.13589000e+07
10925.000000 2.83684000e+07
10975.000000 2.96112000e+07
11025.000000 2.96463000e+07
11075.000000 2.93264000e+07
11125.000000 2.88503000e+07
11175.000000 2.83532000e+07
11225.000000 2.78524000e+07
11275.000000 2.73905000e+07
11325.000000 2.69242000e+07
11375.000000 2.64682000e+07
11425.000000 2.60214000e+07
11475.000000 2.55846000e+07
11525.000000 2.51563000e+07
11575.000000 2.47373000e+07
11625.000000 2.43262000e+07
11675.000000 2.39245000e+07
11725.000000 2.35310000e+07
11775.000000 2.31455000e+07
11825.000000 2.27675000e+07
11875.000000 2.23974000e+07
11925.000000 2.20346000e+07
11975.000000 2.14388000e+07
12025.000000 2.13312000e+07
12075.000000 2.09901000e+07
12125.000000 2.06556000e+07
12175.000000 2.03277000e+07
12225.000000 2.00065000e+07
12275.000000 1.96914000e+07
12325.000000 1.93826000e+07
12375.000000 1.90797000e+07
12425.000000 1.87830000e+07
12475.000000 1.84916000e+07
12525.000000 1.81668000e+07
12575.000000 1.79258000e+07
12625.000000 1.76511000e+07
12675.000000 1.73815000e+07
12725.000000 1.70960000e+07
12775.000000 1.65174000e+07
12825.000000 1.52120000e+07
12875.000000 1.62098000e+07
12925.000000 1.60977000e+07
12975.000000 1.57463000e+07
13025.000000 1.56320000e+07
13075.000000 1.54006000e+07
