# Kurucz ODFNEW /NOVER, alpha: 0.0 (2003)
# teff = 10000 K (value for the effective temperature for the model. Temperatures are given in K)
# logg = 4 log(cm/s2) (value for Log(G) for the model.)
# lh = 1.25  (l/Hp where l is the  mixing length of the convective element and Hp is the pressure scale height)
# meta = -0.5  (value for the Metallicity for the model.)
# vtur = 2 km/s (Microturbulence velocity)
# alpha = 0  (Alpha)
#
# column 1: WAVELENGTH (ANGSTROM), Wavelength in Angstrom
# column 2: FLUX (ERG/CM2/S/A), Flux in erg/cm2/s/A
264.000000 2.31672000e-23
268.500000 1.18361000e-22
273.500000 5.02430000e-22
278.500000 1.97903000e-21
284.000000 8.42802000e-21
290.000000 3.84694000e-20
296.000000 1.65180000e-19
301.000000 5.34027000e-19
308.000000 2.59291000e-18
318.000000 2.20139000e-17
328.000000 1.64563000e-16
338.000000 1.09285000e-15
348.000000 6.51773000e-15
357.000000 2.98548000e-14
366.000000 1.26926000e-13
375.000000 5.02895000e-13
385.000000 2.15302000e-12
395.000000 8.54821000e-12
405.000000 3.16864000e-11
414.000000 9.75299000e-11
422.000000 2.54215000e-10
430.000000 6.38627000e-10
441.000000 2.14495000e-09
451.000000 6.11691000e-09
460.000000 1.50998000e-08
470.000000 3.95131000e-08
480.000000 9.91956000e-08
490.000000 2.39516000e-07
500.000000 5.57168000e-07
506.000000 1.04509000e-06
512.000000 1.77612000e-06
520.000000 3.26949000e-06
530.000000 6.85100000e-06
540.000000 1.38548000e-05
550.000000 2.74819000e-05
560.000000 5.29560000e-05
570.000000 9.96310000e-05
580.000000 1.82485000e-04
590.000000 3.29500000e-04
600.000000 5.80854000e-04
610.000000 1.00464000e-03
620.000000 1.70508000e-03
630.000000 2.84308000e-03
640.000000 4.66055000e-03
650.000000 7.51890000e-03
658.000000 1.09008000e-02
665.000000 1.49687000e-02
675.000000 2.32706000e-02
685.000000 3.56918000e-02
695.000000 5.40255000e-02
705.000000 8.07161000e-02
716.000000 1.23838000e-01
726.000000 1.80547000e-01
735.000000 2.51104000e-01
745.000000 3.58685000e-01
755.000000 5.07208000e-01
765.000000 7.10168000e-01
775.000000 9.85063000e-01
785.000000 1.35402000e+00
795.000000 1.84435000e+00
805.000000 2.49312000e+00
815.000000 3.34228000e+00
825.000000 4.44586000e+00
835.000000 5.86849000e+00
845.000000 7.69472000e+00
855.000000 1.00157000e+01
865.000000 1.29500000e+01
875.000000 1.66349000e+01
885.000000 2.12418000e+01
895.000000 2.69600000e+01
905.000000 3.40076000e+01
915.000000 3.30011000e+02
925.000000 2.35731000e+03
935.000000 4.07616000e+03
945.000000 7.24372000e+03
955.000000 1.09224000e+04
965.000000 1.45255000e+04
975.000000 1.12758000e+04
985.000000 2.14841000e+04
995.000000 2.40024000e+04
1005.000000 2.92723000e+04
1015.000000 3.08778000e+04
1025.000000 1.96737000e+04
1035.000000 3.88924000e+04
1045.000000 5.00293000e+04
1055.000000 5.82208000e+04
1065.000000 6.41475000e+04
1075.000000 7.58104000e+04
1085.000000 8.60424000e+04
1095.000000 9.31435000e+04
1105.000000 7.09693000e+05
1115.000000 1.59807000e+07
1125.000000 2.24854000e+07
1135.000000 2.75991000e+07
1145.000000 2.38117000e+07
1155.000000 2.33661000e+07
1165.000000 1.99214000e+07
1175.000000 1.07385000e+07
1185.000000 5.85339000e+06
1195.000000 2.51433000e+05
1205.000000 1.83964000e+05
1215.000000 4.96283000e+04
1225.000000 1.92461000e+05
1235.000000 4.30915000e+05
1245.000000 2.62321000e+06
1255.000000 1.89012000e+07
1265.000000 2.88157000e+07
1275.000000 5.97159000e+07
1285.000000 8.89540000e+07
1295.000000 9.28623000e+07
1305.000000 6.22889000e+07
1315.000000 1.05237000e+08
1325.000000 1.20111000e+08
1335.000000 1.17340000e+08
1345.000000 1.39961000e+08
1355.000000 1.30485000e+08
1365.000000 1.17821000e+08
1375.000000 1.27657000e+08
1385.000000 1.23729000e+08
1395.000000 1.27233000e+08
1405.000000 1.37222000e+08
1415.000000 1.34260000e+08
1425.000000 1.43675000e+08
1435.000000 1.30511000e+08
1442.000000 1.45937000e+08
1447.000000 1.55279000e+08
1455.000000 1.55986000e+08
1465.000000 1.43909000e+08
1475.000000 1.37989000e+08
1485.000000 1.42719000e+08
1495.000000 1.51521000e+08
1505.000000 1.53112000e+08
1512.000000 1.43071000e+08
1517.000000 1.53091000e+08
1525.000000 1.44133000e+08
1535.000000 1.40774000e+08
1545.000000 1.52811000e+08
1555.000000 1.33787000e+08
1565.000000 1.18623000e+08
1575.000000 1.34298000e+08
1585.000000 1.45697000e+08
1595.000000 1.53015000e+08
1605.000000 1.44386000e+08
1615.000000 1.44076000e+08
1625.000000 1.31259000e+08
1635.000000 1.35790000e+08
1645.000000 1.42783000e+08
1655.000000 1.20697000e+08
1665.000000 1.40324000e+08
1672.000000 1.11648000e+08
1677.000000 1.31857000e+08
1685.000000 1.43435000e+08
1695.000000 1.32897000e+08
1705.000000 1.28754000e+08
1715.000000 1.29251000e+08
1725.000000 1.27099000e+08
1735.000000 1.32721000e+08
1745.000000 1.29262000e+08
1755.000000 1.38153000e+08
1765.000000 1.21814000e+08
1775.000000 1.33503000e+08
1785.000000 1.31893000e+08
1795.000000 1.40074000e+08
1805.000000 1.33808000e+08
1815.000000 1.32658000e+08
1825.000000 1.27476000e+08
1835.000000 1.24815000e+08
1845.000000 1.17124000e+08
1855.000000 1.21339000e+08
1865.000000 1.21525000e+08
1875.000000 1.26051000e+08
1885.000000 1.25226000e+08
1895.000000 1.23100000e+08
1905.000000 1.18468000e+08
1915.000000 1.21210000e+08
1925.000000 1.21885000e+08
1935.000000 1.19361000e+08
1945.000000 1.24321000e+08
1955.000000 1.22392000e+08
1967.000000 1.24243000e+08
1976.000000 1.21985000e+08
1984.000000 1.19414000e+08
1995.000000 1.16530000e+08
2005.000000 1.15061000e+08
2015.000000 1.10303000e+08
2025.000000 1.10843000e+08
2035.000000 1.12722000e+08
2045.000000 1.14748000e+08
2055.000000 1.10092000e+08
2065.000000 1.08922000e+08
2074.000000 1.12166000e+08
2078.000000 1.14360000e+08
2085.000000 1.13732000e+08
2095.000000 1.09937000e+08
2105.000000 1.08351000e+08
2115.000000 1.07901000e+08
2125.000000 1.08198000e+08
2135.000000 9.65910000e+07
2145.000000 1.04994000e+08
2155.000000 1.05020000e+08
2165.000000 1.00628000e+08
2175.000000 9.92587000e+07
2185.000000 9.90545000e+07
2195.000000 1.03737000e+08
2205.000000 9.97530000e+07
2215.000000 9.30109000e+07
2225.000000 9.18571000e+07
2235.000000 9.96874000e+07
2245.000000 9.16106000e+07
2255.000000 9.02072000e+07
2265.000000 9.02202000e+07
2275.000000 9.49462000e+07
2285.000000 9.67939000e+07
2295.000000 9.15891000e+07
2305.000000 9.03778000e+07
2315.000000 8.81927000e+07
2325.000000 8.83278000e+07
2335.000000 8.54516000e+07
2345.000000 7.96410000e+07
2355.000000 8.68253000e+07
2365.000000 7.99432000e+07
2375.000000 8.35058000e+07
2385.000000 7.52502000e+07
2395.000000 8.10530000e+07
2405.000000 7.77945000e+07
2415.000000 7.91928000e+07
2425.000000 8.21798000e+07
2435.000000 7.85898000e+07
2445.000000 8.30213000e+07
2455.000000 8.01398000e+07
2465.000000 7.96087000e+07
2475.000000 7.67343000e+07
2485.000000 8.05165000e+07
2495.000000 7.80326000e+07
2505.000000 8.35045000e+07
2513.000000 7.79329000e+07
2518.000000 7.85565000e+07
2525.000000 7.40563000e+07
2535.000000 7.32973000e+07
2545.000000 7.34494000e+07
2555.000000 7.70307000e+07
2565.000000 7.66145000e+07
2575.000000 8.04125000e+07
2585.000000 8.03835000e+07
2595.000000 7.96981000e+07
2605.000000 7.67002000e+07
2615.000000 7.62965000e+07
2625.000000 7.83953000e+07
2635.000000 7.87129000e+07
2645.000000 8.42415000e+07
2655.000000 8.31004000e+07
2665.000000 7.86640000e+07
2675.000000 8.06725000e+07
2685.000000 8.07364000e+07
2695.000000 7.78354000e+07
2705.000000 7.87180000e+07
2715.000000 7.59007000e+07
2725.000000 7.61158000e+07
2735.000000 7.99821000e+07
2745.000000 7.17608000e+07
2755.000000 7.18911000e+07
2765.000000 7.39787000e+07
2775.000000 7.71401000e+07
2785.000000 7.60723000e+07
2795.000000 6.47701000e+07
2805.000000 6.99686000e+07
2815.000000 7.77969000e+07
2825.000000 7.76295000e+07
2835.000000 7.52922000e+07
2845.000000 7.31581000e+07
2855.000000 7.17175000e+07
2865.000000 7.43341000e+07
2875.000000 7.28106000e+07
2885.000000 7.41534000e+07
2895.000000 7.26082000e+07
2910.000000 7.67642000e+07
2930.000000 7.40873000e+07
2950.000000 7.37788000e+07
2970.000000 7.38946000e+07
2990.000000 7.37480000e+07
3010.000000 7.43679000e+07
3030.000000 7.37135000e+07
3050.000000 7.28674000e+07
3070.000000 7.19011000e+07
3090.000000 7.21571000e+07
3110.000000 7.09321000e+07
3130.000000 7.03053000e+07
3150.000000 7.04405000e+07
3170.000000 6.98282000e+07
3190.000000 6.78965000e+07
3210.000000 6.85484000e+07
3230.000000 6.74025000e+07
3250.000000 6.74992000e+07
3270.000000 6.74758000e+07
3290.000000 6.74132000e+07
3310.000000 6.72268000e+07
3330.000000 6.60684000e+07
3350.000000 6.50335000e+07
3370.000000 6.49405000e+07
3390.000000 6.42552000e+07
3410.000000 6.46441000e+07
3430.000000 6.41998000e+07
3450.000000 6.37900000e+07
3470.000000 6.30975000e+07
3490.000000 6.27042000e+07
3510.000000 6.26460000e+07
3530.000000 6.24159000e+07
3550.000000 6.20524000e+07
3570.000000 6.12881000e+07
3590.000000 6.08848000e+07
3610.000000 6.04896000e+07
3630.000000 6.00793000e+07
3640.000000 5.98378000e+07
3650.000000 6.04549000e+07
3670.000000 6.01054000e+07
3690.000000 5.78730000e+07
3710.000000 5.89477000e+07
3730.000000 6.02939000e+07
3750.000000 7.68300000e+07
3770.000000 8.26886000e+07
3790.000000 1.03406000e+08
3810.000000 1.21829000e+08
3830.000000 9.57252000e+07
3850.000000 1.34309000e+08
3870.000000 1.52632000e+08
3890.000000 8.17536000e+07
3910.000000 1.50775000e+08
3930.000000 1.58271000e+08
3950.000000 1.49501000e+08
3970.000000 7.79279000e+07
3990.000000 1.41710000e+08
4010.000000 1.56047000e+08
4030.000000 1.55037000e+08
4050.000000 1.53246000e+08
4070.000000 1.46592000e+08
4090.000000 1.12626000e+08
4110.000000 8.48885000e+07
4130.000000 1.37734000e+08
4150.000000 1.42915000e+08
4170.000000 1.41652000e+08
4190.000000 1.40234000e+08
4210.000000 1.38495000e+08
4230.000000 1.35923000e+08
4250.000000 1.34169000e+08
4270.000000 1.31838000e+08
4290.000000 1.29668000e+08
4310.000000 1.22990000e+08
4330.000000 9.08745000e+07
4350.000000 7.67355000e+07
4370.000000 1.17825000e+08
4390.000000 1.20087000e+08
4410.000000 1.19974000e+08
4430.000000 1.18899000e+08
4450.000000 1.17943000e+08
4470.000000 1.16172000e+08
4490.000000 1.13655000e+08
4510.000000 1.13111000e+08
4530.000000 1.11551000e+08
4550.000000 1.09351000e+08
4570.000000 1.09017000e+08
4590.000000 1.07153000e+08
4610.000000 1.06701000e+08
4630.000000 1.04563000e+08
4650.000000 1.03970000e+08
4670.000000 1.02569000e+08
4690.000000 1.00923000e+08
4710.000000 9.84733000e+07
4730.000000 9.86981000e+07
4750.000000 9.73360000e+07
4770.000000 9.60132000e+07
4790.000000 9.45415000e+07
4810.000000 9.25325000e+07
4830.000000 8.83523000e+07
4850.000000 6.79674000e+07
4870.000000 5.47266000e+07
4890.000000 8.31599000e+07
4910.000000 8.66515000e+07
4930.000000 8.60335000e+07
4950.000000 8.57933000e+07
4970.000000 8.49990000e+07
4990.000000 8.40133000e+07
5010.000000 8.24284000e+07
5030.000000 8.19365000e+07
5050.000000 8.06270000e+07
5070.000000 8.01255000e+07
5090.000000 7.91844000e+07
5110.000000 7.82195000e+07
5130.000000 7.73245000e+07
5150.000000 7.63260000e+07
5170.000000 7.47838000e+07
5190.000000 7.41274000e+07
5210.000000 7.36996000e+07
5230.000000 7.25475000e+07
5250.000000 7.20669000e+07
5270.000000 7.08278000e+07
5290.000000 7.04359000e+07
5310.000000 6.93532000e+07
5330.000000 6.86825000e+07
5350.000000 6.81002000e+07
5370.000000 6.72607000e+07
5390.000000 6.65200000e+07
5410.000000 6.56893000e+07
5430.000000 6.50057000e+07
5450.000000 6.43519000e+07
5470.000000 6.36190000e+07
5490.000000 6.29289000e+07
5510.000000 6.22259000e+07
5530.000000 6.15068000e+07
5550.000000 6.08907000e+07
5570.000000 6.02113000e+07
5590.000000 5.95594000e+07
5610.000000 5.89344000e+07
5630.000000 5.82977000e+07
5650.000000 5.76379000e+07
5670.000000 5.70164000e+07
5690.000000 5.64243000e+07
5710.000000 5.58229000e+07
5730.000000 5.52342000e+07
5750.000000 5.46319000e+07
5770.000000 5.40547000e+07
5790.000000 5.34695000e+07
5810.000000 5.29123000e+07
5830.000000 5.23548000e+07
5850.000000 5.18081000e+07
5870.000000 5.11878000e+07
5890.000000 5.05606000e+07
5910.000000 5.01920000e+07
5930.000000 4.96783000e+07
5950.000000 4.91246000e+07
5970.000000 4.86396000e+07
5990.000000 4.81053000e+07
6010.000000 4.76334000e+07
6030.000000 4.71636000e+07
6050.000000 4.66752000e+07
6070.000000 4.62066000e+07
6090.000000 4.57380000e+07
6110.000000 4.52716000e+07
6130.000000 4.48082000e+07
6150.000000 4.41886000e+07
6170.000000 4.39045000e+07
6190.000000 4.34797000e+07
6210.000000 4.30457000e+07
6230.000000 4.26077000e+07
6250.000000 4.21021000e+07
6270.000000 4.17764000e+07
6290.000000 4.13626000e+07
6310.000000 4.09343000e+07
6330.000000 4.05463000e+07
6350.000000 3.99484000e+07
6370.000000 3.96357000e+07
6390.000000 3.93622000e+07
6410.000000 3.89592000e+07
6430.000000 3.85915000e+07
6450.000000 3.80827000e+07
6470.000000 3.77369000e+07
6490.000000 3.72498000e+07
6510.000000 3.66630000e+07
6530.000000 3.54793000e+07
6550.000000 3.05739000e+07
6570.000000 2.46505000e+07
6590.000000 3.33806000e+07
6610.000000 3.47413000e+07
6630.000000 3.47908000e+07
6650.000000 3.45938000e+07
6670.000000 3.43180000e+07
6690.000000 3.40677000e+07
6710.000000 3.37712000e+07
6730.000000 3.34427000e+07
6750.000000 3.31406000e+07
6770.000000 3.28415000e+07
6790.000000 3.25364000e+07
6810.000000 3.22359000e+07
6830.000000 3.19319000e+07
6850.000000 3.16413000e+07
6870.000000 3.13544000e+07
6890.000000 3.10687000e+07
6910.000000 3.07842000e+07
6930.000000 3.05000000e+07
6950.000000 3.02265000e+07
6970.000000 2.99532000e+07
6990.000000 2.96849000e+07
7010.000000 2.93946000e+07
7030.000000 2.91476000e+07
7050.000000 2.88816000e+07
7070.000000 2.86273000e+07
7090.000000 2.83783000e+07
7110.000000 2.80631000e+07
7130.000000 2.78637000e+07
7150.000000 2.76166000e+07
7170.000000 2.73814000e+07
7190.000000 2.71382000e+07
7210.000000 2.69009000e+07
7230.000000 2.66608000e+07
7250.000000 2.64221000e+07
7270.000000 2.62007000e+07
7290.000000 2.59671000e+07
7310.000000 2.57399000e+07
7330.000000 2.55218000e+07
7350.000000 2.53036000e+07
7370.000000 2.50867000e+07
7390.000000 2.48683000e+07
7410.000000 2.46492000e+07
7430.000000 2.44170000e+07
7450.000000 2.42202000e+07
7470.000000 2.39908000e+07
7490.000000 2.38058000e+07
7510.000000 2.36103000e+07
7530.000000 2.34180000e+07
7550.000000 2.32234000e+07
7570.000000 2.30265000e+07
7590.000000 2.28327000e+07
7610.000000 2.26420000e+07
7630.000000 2.24510000e+07
7650.000000 2.22610000e+07
7670.000000 2.20727000e+07
7690.000000 2.18911000e+07
7710.000000 2.17061000e+07
7730.000000 2.15321000e+07
7750.000000 2.13540000e+07
7770.000000 2.08767000e+07
7790.000000 2.10037000e+07
7810.000000 2.08320000e+07
7830.000000 2.06569000e+07
7850.000000 2.04796000e+07
7870.000000 2.02784000e+07
7890.000000 2.00861000e+07
7910.000000 1.99841000e+07
7930.000000 1.98289000e+07
7950.000000 1.96380000e+07
7970.000000 1.95141000e+07
7990.000000 1.92660000e+07
8010.000000 1.91993000e+07
8030.000000 1.90436000e+07
8050.000000 1.88933000e+07
8070.000000 1.87402000e+07
8090.000000 1.85924000e+07
8110.000000 1.84441000e+07
8130.000000 1.82999000e+07
8150.000000 1.81552000e+07
8170.000000 1.80116000e+07
8190.000000 1.78373000e+07
8210.000000 1.77678000e+07
8230.000000 1.76287000e+07
8250.000000 1.75168000e+07
8270.000000 1.74322000e+07
8290.000000 1.72999000e+07
8310.000000 1.71813000e+07
8330.000000 1.70196000e+07
8350.000000 1.69247000e+07
8370.000000 1.67885000e+07
8390.000000 1.66358000e+07
8410.000000 1.64742000e+07
8430.000000 1.63314000e+07
8450.000000 1.60843000e+07
8470.000000 1.58315000e+07
8490.000000 1.60084000e+07
8510.000000 1.53027000e+07
8530.000000 1.59171000e+07
8550.000000 1.44977000e+07
8570.000000 1.60063000e+07
8590.000000 1.48076000e+07
8610.000000 1.44381000e+07
8630.000000 1.61149000e+07
8650.000000 1.53224000e+07
8670.000000 1.27705000e+07
8690.000000 1.56935000e+07
8710.000000 1.63441000e+07
8730.000000 1.55338000e+07
8750.000000 1.21277000e+07
8770.000000 1.46420000e+07
8790.000000 1.62074000e+07
8810.000000 1.63892000e+07
8830.000000 1.58850000e+07
8850.000000 1.38099000e+07
8870.000000 1.16442000e+07
8890.000000 1.48962000e+07
8910.000000 1.57652000e+07
8930.000000 1.58699000e+07
8950.000000 1.58231000e+07
8970.000000 1.54988000e+07
8990.000000 1.45476000e+07
9010.000000 1.13808000e+07
9030.000000 1.24397000e+07
9050.000000 1.45696000e+07
9070.000000 1.49181000e+07
9090.000000 1.48862000e+07
9110.000000 1.49662000e+07
9130.000000 1.49048000e+07
9150.000000 1.47771000e+07
9170.000000 1.45586000e+07
9190.000000 1.41220000e+07
9210.000000 1.28682000e+07
9230.000000 9.95011000e+06
9250.000000 1.23160000e+07
9270.000000 1.34440000e+07
9290.000000 1.39069000e+07
9310.000000 1.39268000e+07
9330.000000 1.38658000e+07
9350.000000 1.37880000e+07
9370.000000 1.36970000e+07
9390.000000 1.35678000e+07
9410.000000 1.33796000e+07
9430.000000 1.33754000e+07
9450.000000 1.32619000e+07
9470.000000 1.31169000e+07
9490.000000 1.29069000e+07
9510.000000 1.24740000e+07
9530.000000 1.11786000e+07
9550.000000 8.96938000e+06
9570.000000 1.12968000e+07
9590.000000 1.21988000e+07
9610.000000 1.23684000e+07
9630.000000 1.23081000e+07
9650.000000 1.23384000e+07
9670.000000 1.22202000e+07
9690.000000 1.21898000e+07
9710.000000 1.21333000e+07
9730.000000 1.20457000e+07
9750.000000 1.19559000e+07
9770.000000 1.18762000e+07
9790.000000 1.17908000e+07
9810.000000 1.17055000e+07
9830.000000 1.16151000e+07
9850.000000 1.15315000e+07
9870.000000 1.14496000e+07
9890.000000 1.13375000e+07
9910.000000 1.12691000e+07
9930.000000 1.11745000e+07
9950.000000 1.10828000e+07
9970.000000 1.09709000e+07
9990.000000 1.08085000e+07
10025.000000 9.66858000e+06
10075.000000 9.17053000e+06
10125.000000 1.03263000e+07
10175.000000 1.02662000e+07
10225.000000 1.01253000e+07
10275.000000 9.95423000e+06
10325.000000 9.78420000e+06
10375.000000 9.62012000e+06
10425.000000 9.45978000e+06
10475.000000 9.29037000e+06
10525.000000 9.13838000e+06
10575.000000 8.99153000e+06
10625.000000 8.84570000e+06
10675.000000 8.64038000e+06
10725.000000 8.53348000e+06
10775.000000 8.40417000e+06
10825.000000 8.23798000e+06
10875.000000 7.98784000e+06
10925.000000 6.67223000e+06
10975.000000 7.28058000e+06
11025.000000 7.68394000e+06
11075.000000 7.61963000e+06
11125.000000 7.52116000e+06
11175.000000 7.40423000e+06
11225.000000 7.28848000e+06
11275.000000 7.13715000e+06
11325.000000 7.03109000e+06
11375.000000 6.94991000e+06
11425.000000 6.84130000e+06
11475.000000 6.74090000e+06
11525.000000 6.63829000e+06
11575.000000 6.53664000e+06
11625.000000 6.42729000e+06
11675.000000 6.31763000e+06
11725.000000 6.24440000e+06
11775.000000 6.11595000e+06
11825.000000 6.04629000e+06
11875.000000 5.95407000e+06
11925.000000 5.88014000e+06
11975.000000 5.78411000e+06
12025.000000 5.70589000e+06
12075.000000 5.61972000e+06
12125.000000 5.53862000e+06
12175.000000 5.45992000e+06
12225.000000 5.38006000e+06
12275.000000 5.30032000e+06
12325.000000 5.22466000e+06
12375.000000 5.15030000e+06
12425.000000 5.07843000e+06
12475.000000 5.00053000e+06
12525.000000 4.93378000e+06
12575.000000 4.85722000e+06
12625.000000 4.79046000e+06
12675.000000 4.71429000e+06
12725.000000 4.62334000e+06
12775.000000 4.40532000e+06
12825.000000 3.77782000e+06
12875.000000 4.32965000e+06
12925.000000 4.37830000e+06
12975.000000 4.33769000e+06
13025.000000 4.28846000e+06
13075.000000 4.23016000e+06
13125.000000 4.17241000e+06
13175.000000 4.11171000e+06
13225.000000 4.06044000e+06
13275.000000 4.00575000e+06
13325.000000 3.95198000e+06
13375.000000 3.89890000e+06
13425.000000 3.84671000e+06
13475.000000 3.79519000e+06
13525.000000 3.74329000e+06
13575.000000 3.69491000e+06
13625.000000 3.64674000e+06
13675.000000 3.59816000e+06
13725.000000 3.54839000e+06
13775.000000 3.50561000e+06
13825.000000 3.46019000e+06
13875.000000 3.41592000e+06
13925.000000 3.37084000e+06
13975.000000 3.32825000e+06
14025.000000 3.28560000e+06
14075.000000 3.24366000e+06
14125.000000 3.20223000e+06
14175.000000 3.16168000e+06
14225.000000 3.12162000e+06
14275.000000 3.08223000e+06
14325.000000 3.04331000e+06
14375.000000 3.00540000e+06
14425.000000 2.95799000e+06
