# Kurucz ODFNEW /NOVER, alpha: 0.0 (2003)
# teff = 26000 K (value for the effective temperature for the model. Temperatures are given in K)
# logg = 4 log(cm/s2) (value for Log(G) for the model.)
# lh = 1.25  (l/Hp where l is the  mixing length of the convective element and Hp is the pressure scale height)
# meta = 0.5  (value for the Metallicity for the model.)
# vtur = 2 km/s (Microturbulence velocity)
# alpha = 0  (Alpha)
#
# column 1: WAVELENGTH (ANGSTROM), Wavelength in Angstrom
# column 2: FLUX (ERG/CM2/S/A), Flux in erg/cm2/s/A
147.200000 3.44550000e-13
151.000000 1.35846000e-12
155.200000 5.74595000e-12
158.800000 1.86800000e-11
162.000000 5.11407000e-11
166.000000 1.71002000e-10
170.300000 5.87136000e-10
173.400000 1.38713000e-09
176.800000 3.43258000e-09
180.200000 8.22743000e-09
181.700000 1.19769000e-08
186.100000 3.48695000e-08
191.000000 1.08689000e-07
193.900000 2.07417000e-07
198.400000 5.45705000e-07
201.800000 1.10290000e-06
205.000000 2.09507000e-06
210.500000 6.05357000e-06
216.200000 1.72074000e-05
219.800000 3.24140000e-05
223.000000 5.59886000e-05
226.800000 1.05933000e-04
230.000000 4.16126000e-03
234.000000 9.25311000e-03
240.000000 2.08522000e-02
246.500000 4.88893000e-02
252.400000 1.02808000e-01
256.800000 1.68141000e-01
260.000000 2.75553000e-01
264.000000 4.32431000e-01
268.500000 7.15549000e-01
273.500000 1.21325000e+00
278.500000 2.00779000e+00
284.000000 3.81438000e+00
290.000000 6.63510000e+00
296.000000 1.13484000e+01
301.000000 1.72795000e+01
308.000000 3.29702000e+01
318.000000 7.67772000e+01
328.000000 1.55119000e+02
338.000000 3.22972000e+02
348.000000 6.21910000e+02
357.000000 3.78417000e+03
366.000000 8.58185000e+03
375.000000 1.23841000e+04
385.000000 2.05110000e+04
395.000000 4.56591000e+04
405.000000 6.65377000e+04
414.000000 9.98950000e+04
422.000000 1.44634000e+05
430.000000 2.08862000e+05
441.000000 3.06062000e+05
451.000000 3.93860000e+05
460.000000 5.04365000e+05
470.000000 7.12051000e+05
480.000000 9.60497000e+05
490.000000 1.27635000e+06
500.000000 1.61270000e+06
506.000000 5.87924000e+06
512.000000 6.13473000e+07
520.000000 6.49301000e+07
530.000000 6.85395000e+07
540.000000 7.04959000e+07
550.000000 1.10503000e+08
560.000000 1.33249000e+08
570.000000 1.51886000e+08
580.000000 1.41419000e+08
590.000000 1.82044000e+08
600.000000 1.88166000e+08
610.000000 2.24559000e+08
620.000000 2.46521000e+08
630.000000 2.45249000e+08
640.000000 2.03430000e+08
650.000000 1.30620000e+08
658.000000 2.12657000e+08
665.000000 2.86697000e+08
675.000000 3.17879000e+08
685.000000 3.02556000e+08
695.000000 4.44346000e+08
705.000000 4.21127000e+08
716.000000 5.00137000e+08
726.000000 4.97447000e+08
735.000000 5.16895000e+08
745.000000 5.90074000e+08
755.000000 6.17637000e+08
765.000000 6.54292000e+08
775.000000 6.96036000e+08
785.000000 7.41446000e+08
795.000000 7.53369000e+08
805.000000 7.62848000e+08
815.000000 7.69878000e+08
825.000000 8.48468000e+08
835.000000 6.57524000e+08
845.000000 8.32311000e+08
855.000000 8.24963000e+08
865.000000 8.79560000e+08
875.000000 9.30771000e+08
885.000000 1.00495000e+09
895.000000 1.04235000e+09
905.000000 1.00187000e+09
915.000000 1.36783000e+09
925.000000 8.57875000e+09
935.000000 1.72471000e+10
945.000000 2.73828000e+10
955.000000 3.22115000e+10
965.000000 3.37664000e+10
975.000000 5.48395000e+09
985.000000 2.22910000e+10
995.000000 2.50496000e+10
1005.000000 3.12711000e+10
1015.000000 3.34305000e+10
1025.000000 2.19427000e+10
1035.000000 2.67249000e+10
1045.000000 4.06424000e+10
1055.000000 3.66668000e+10
1065.000000 2.79678000e+10
1075.000000 3.27365000e+10
1085.000000 2.92654000e+10
1095.000000 3.29938000e+10
1105.000000 2.96666000e+10
1115.000000 2.81657000e+10
1125.000000 2.01283000e+10
1135.000000 2.93932000e+10
1145.000000 2.71881000e+10
1155.000000 2.71709000e+10
1165.000000 2.62507000e+10
1175.000000 1.25694000e+10
1185.000000 2.40685000e+10
1195.000000 2.30007000e+10
1205.000000 1.55102000e+10
1215.000000 1.49972000e+10
1225.000000 2.18517000e+10
1235.000000 2.50605000e+10
1245.000000 2.35664000e+10
1255.000000 2.33332000e+10
1265.000000 2.43710000e+10
1275.000000 2.54478000e+10
1285.000000 2.55689000e+10
1295.000000 1.72832000e+10
1305.000000 1.91508000e+10
1315.000000 2.50496000e+10
1325.000000 2.31472000e+10
1335.000000 2.23007000e+10
1345.000000 2.27409000e+10
1355.000000 2.22300000e+10
1365.000000 2.00401000e+10
1375.000000 1.90965000e+10
1385.000000 1.79265000e+10
1395.000000 1.09407000e+10
1405.000000 1.25493000e+10
1415.000000 1.55695000e+10
1425.000000 1.52797000e+10
1435.000000 1.62711000e+10
1442.000000 1.66333000e+10
1447.000000 1.63770000e+10
1455.000000 1.55838000e+10
1465.000000 1.39358000e+10
1475.000000 1.47559000e+10
1485.000000 1.46168000e+10
1495.000000 1.41792000e+10
1505.000000 1.24674000e+10
1512.000000 1.10683000e+10
1517.000000 1.14930000e+10
1525.000000 1.19099000e+10
1535.000000 9.57738000e+09
1545.000000 8.81746000e+09
1555.000000 8.77858000e+09
1565.000000 9.89697000e+09
1575.000000 1.07473000e+10
1585.000000 1.10213000e+10
1595.000000 1.07160000e+10
1605.000000 1.11250000e+10
1615.000000 1.07588000e+10
1625.000000 1.06038000e+10
1635.000000 1.14956000e+10
1645.000000 1.16243000e+10
1655.000000 1.14269000e+10
1665.000000 1.16911000e+10
1672.000000 1.08159000e+10
1677.000000 1.26100000e+10
1685.000000 1.19761000e+10
1695.000000 1.11460000e+10
1705.000000 1.10041000e+10
1715.000000 1.01822000e+10
1725.000000 9.97459000e+09
1735.000000 1.05414000e+10
1745.000000 1.03219000e+10
1755.000000 1.03633000e+10
1765.000000 1.03589000e+10
1775.000000 9.43777000e+09
1785.000000 9.78682000e+09
1795.000000 1.01129000e+10
1805.000000 1.02519000e+10
1815.000000 8.89531000e+09
1825.000000 9.33424000e+09
1835.000000 9.06585000e+09
1845.000000 8.14323000e+09
1855.000000 8.42495000e+09
1865.000000 8.51139000e+09
1875.000000 8.92899000e+09
1885.000000 7.81179000e+09
1895.000000 7.26072000e+09
1905.000000 8.04248000e+09
1915.000000 7.39555000e+09
1925.000000 6.90615000e+09
1935.000000 7.56875000e+09
1945.000000 7.74367000e+09
1955.000000 6.77616000e+09
1967.000000 7.59157000e+09
1976.000000 7.92781000e+09
1984.000000 7.32861000e+09
1995.000000 7.20476000e+09
2005.000000 7.64034000e+09
2015.000000 7.50782000e+09
2025.000000 7.72242000e+09
2035.000000 6.92440000e+09
2045.000000 7.14719000e+09
2055.000000 6.65236000e+09
2065.000000 6.57015000e+09
2074.000000 7.02902000e+09
2078.000000 6.19908000e+09
2085.000000 6.74230000e+09
2095.000000 6.40265000e+09
2105.000000 6.71656000e+09
2115.000000 6.79317000e+09
2125.000000 6.80847000e+09
2135.000000 6.69468000e+09
2145.000000 6.28875000e+09
2155.000000 6.63264000e+09
2165.000000 6.60519000e+09
2175.000000 6.55423000e+09
2185.000000 6.24699000e+09
2195.000000 6.41203000e+09
2205.000000 6.42723000e+09
2215.000000 6.28493000e+09
2225.000000 6.10514000e+09
2235.000000 5.99037000e+09
2245.000000 6.06412000e+09
2255.000000 5.82665000e+09
2265.000000 5.93826000e+09
2275.000000 5.83274000e+09
2285.000000 5.82488000e+09
2295.000000 4.98987000e+09
2305.000000 5.57838000e+09
2315.000000 5.39968000e+09
2325.000000 5.36316000e+09
2335.000000 5.18894000e+09
2345.000000 5.26199000e+09
2355.000000 5.21591000e+09
2365.000000 5.17485000e+09
2375.000000 5.03152000e+09
2385.000000 4.99379000e+09
2395.000000 4.92997000e+09
2405.000000 4.84347000e+09
2415.000000 4.81332000e+09
2425.000000 4.79792000e+09
2435.000000 4.63749000e+09
2445.000000 4.67003000e+09
2455.000000 4.68088000e+09
2465.000000 4.58234000e+09
2475.000000 4.49575000e+09
2485.000000 4.34239000e+09
2495.000000 3.32283000e+09
2505.000000 4.14257000e+09
2513.000000 4.02275000e+09
2518.000000 4.20626000e+09
2525.000000 4.18403000e+09
2535.000000 4.15074000e+09
2545.000000 3.96230000e+09
2555.000000 4.03621000e+09
2565.000000 3.96970000e+09
2575.000000 3.99585000e+09
2585.000000 3.92846000e+09
2595.000000 3.89550000e+09
2605.000000 3.85860000e+09
2615.000000 3.78530000e+09
2625.000000 3.77094000e+09
2635.000000 3.74118000e+09
2645.000000 3.67956000e+09
2655.000000 3.67461000e+09
2665.000000 3.46079000e+09
2675.000000 3.50041000e+09
2685.000000 3.50239000e+09
2695.000000 3.34558000e+09
2705.000000 3.22461000e+09
2715.000000 3.25993000e+09
2725.000000 3.30089000e+09
2735.000000 3.26471000e+09
2745.000000 3.18782000e+09
2755.000000 3.17469000e+09
2765.000000 3.14004000e+09
2775.000000 3.18345000e+09
2785.000000 3.11988000e+09
2795.000000 2.98856000e+09
2805.000000 3.02292000e+09
2815.000000 3.04251000e+09
2825.000000 3.00614000e+09
2835.000000 2.86587000e+09
2845.000000 2.90975000e+09
2855.000000 2.84531000e+09
2865.000000 2.85784000e+09
2875.000000 2.82569000e+09
2885.000000 2.78771000e+09
2895.000000 2.73478000e+09
2910.000000 2.67427000e+09
2930.000000 2.66412000e+09
2950.000000 2.57561000e+09
2970.000000 2.53609000e+09
2990.000000 2.47455000e+09
3010.000000 2.35965000e+09
3030.000000 2.36598000e+09
3050.000000 2.33615000e+09
3070.000000 2.30913000e+09
3090.000000 2.19415000e+09
3110.000000 2.20458000e+09
3130.000000 2.13939000e+09
3150.000000 2.11211000e+09
3170.000000 2.04660000e+09
3190.000000 2.01613000e+09
3210.000000 1.98626000e+09
3230.000000 1.93046000e+09
3250.000000 1.90917000e+09
3270.000000 1.85819000e+09
3290.000000 1.82297000e+09
3310.000000 1.78797000e+09
3330.000000 1.74437000e+09
3350.000000 1.71733000e+09
3370.000000 1.67850000e+09
3390.000000 1.65845000e+09
3410.000000 1.62662000e+09
3430.000000 1.59348000e+09
3450.000000 1.55708000e+09
3470.000000 1.52817000e+09
3490.000000 1.49558000e+09
3510.000000 1.46862000e+09
3530.000000 1.45339000e+09
3550.000000 1.42393000e+09
3570.000000 1.40137000e+09
3590.000000 1.35564000e+09
3610.000000 1.33331000e+09
3630.000000 1.31643000e+09
3640.000000 1.31464000e+09
3650.000000 1.29201000e+09
3670.000000 1.27836000e+09
3690.000000 1.25164000e+09
3710.000000 1.19978000e+09
3730.000000 1.15643000e+09
3750.000000 1.19750000e+09
3770.000000 1.18080000e+09
3790.000000 1.22798000e+09
3810.000000 1.26687000e+09
3830.000000 1.12087000e+09
3850.000000 1.26404000e+09
3870.000000 1.23431000e+09
3890.000000 1.06082000e+09
3910.000000 1.24403000e+09
3930.000000 1.19744000e+09
3950.000000 1.17856000e+09
3970.000000 9.82715000e+08
3990.000000 1.14582000e+09
4010.000000 1.13733000e+09
4030.000000 1.07970000e+09
4050.000000 1.09175000e+09
4070.000000 1.03056000e+09
4090.000000 9.73978000e+08
4110.000000 8.87579000e+08
4130.000000 9.92131000e+08
4150.000000 9.85370000e+08
4170.000000 9.84411000e+08
4190.000000 9.74864000e+08
4210.000000 9.67027000e+08
4230.000000 9.43229000e+08
4250.000000 9.11263000e+08
4270.000000 8.86299000e+08
4290.000000 8.71443000e+08
4310.000000 8.37517000e+08
4330.000000 7.83382000e+08
4350.000000 7.31161000e+08
4370.000000 7.98145000e+08
4390.000000 8.06684000e+08
4410.000000 7.96497000e+08
4430.000000 7.92124000e+08
4450.000000 7.77924000e+08
4470.000000 7.49748000e+08
4490.000000 7.57548000e+08
4510.000000 7.50344000e+08
4530.000000 7.39804000e+08
4550.000000 7.31003000e+08
4570.000000 7.18053000e+08
4590.000000 7.05139000e+08
4610.000000 6.84144000e+08
4630.000000 6.73923000e+08
4650.000000 6.47962000e+08
4670.000000 6.55725000e+08
4690.000000 6.52114000e+08
4710.000000 6.24749000e+08
4730.000000 6.29648000e+08
4750.000000 6.19230000e+08
4770.000000 6.22162000e+08
4790.000000 6.09703000e+08
4810.000000 5.95444000e+08
4830.000000 5.84854000e+08
4850.000000 5.54175000e+08
4870.000000 4.99121000e+08
4890.000000 5.60980000e+08
4910.000000 5.54966000e+08
4930.000000 5.37064000e+08
4950.000000 5.35793000e+08
4970.000000 5.34845000e+08
4990.000000 5.25044000e+08
5010.000000 4.99037000e+08
5030.000000 5.07643000e+08
5050.000000 4.96363000e+08
5070.000000 4.95781000e+08
5090.000000 4.86614000e+08
5110.000000 4.77590000e+08
5130.000000 4.64611000e+08
5150.000000 4.61592000e+08
5170.000000 4.59169000e+08
5190.000000 4.53861000e+08
5210.000000 4.46025000e+08
5230.000000 4.40307000e+08
5250.000000 4.34607000e+08
5270.000000 4.26540000e+08
5290.000000 4.22971000e+08
5310.000000 4.16357000e+08
5330.000000 4.11262000e+08
5350.000000 4.04890000e+08
5370.000000 4.00521000e+08
5390.000000 3.94493000e+08
5410.000000 3.89999000e+08
5430.000000 3.84065000e+08
5450.000000 3.78575000e+08
5470.000000 3.73495000e+08
5490.000000 3.68479000e+08
5510.000000 3.65064000e+08
5530.000000 3.58387000e+08
5550.000000 3.55748000e+08
5570.000000 3.50466000e+08
5590.000000 3.46431000e+08
5610.000000 3.41524000e+08
5630.000000 3.37616000e+08
5650.000000 3.30757000e+08
5670.000000 3.24479000e+08
5690.000000 3.18688000e+08
5710.000000 3.17846000e+08
5730.000000 3.14724000e+08
5750.000000 3.09177000e+08
5770.000000 3.07920000e+08
5790.000000 3.03291000e+08
5810.000000 2.99655000e+08
5830.000000 2.94566000e+08
5850.000000 2.91751000e+08
5870.000000 2.80954000e+08
5890.000000 2.81145000e+08
5910.000000 2.79321000e+08
5930.000000 2.75233000e+08
5950.000000 2.71577000e+08
5970.000000 2.71473000e+08
5990.000000 2.65463000e+08
6010.000000 2.64064000e+08
6030.000000 2.59653000e+08
6050.000000 2.56879000e+08
6070.000000 2.54770000e+08
6090.000000 2.51829000e+08
6110.000000 2.48680000e+08
6130.000000 2.46067000e+08
6150.000000 2.41003000e+08
6170.000000 2.38731000e+08
6190.000000 2.36847000e+08
6210.000000 2.34552000e+08
6230.000000 2.32039000e+08
6250.000000 2.28145000e+08
6270.000000 2.25868000e+08
6290.000000 2.23681000e+08
6310.000000 2.20667000e+08
6330.000000 2.18673000e+08
6350.000000 2.15083000e+08
6370.000000 2.13530000e+08
6390.000000 2.10886000e+08
6410.000000 2.08545000e+08
6430.000000 2.06448000e+08
6450.000000 2.03911000e+08
6470.000000 2.00411000e+08
6490.000000 1.98346000e+08
6510.000000 1.96551000e+08
6530.000000 1.93485000e+08
6550.000000 1.87344000e+08
6570.000000 1.66262000e+08
6590.000000 1.85224000e+08
6610.000000 1.85415000e+08
6630.000000 1.83827000e+08
6650.000000 1.81641000e+08
6670.000000 1.78267000e+08
6690.000000 1.76420000e+08
6710.000000 1.75997000e+08
6730.000000 1.73256000e+08
6750.000000 1.72264000e+08
6770.000000 1.70409000e+08
6790.000000 1.66326000e+08
6810.000000 1.66179000e+08
6830.000000 1.64344000e+08
6850.000000 1.62976000e+08
6870.000000 1.61174000e+08
6890.000000 1.59105000e+08
6910.000000 1.57010000e+08
6930.000000 1.56058000e+08
6950.000000 1.54451000e+08
6970.000000 1.52837000e+08
6990.000000 1.51116000e+08
7010.000000 1.49472000e+08
7030.000000 1.47808000e+08
7050.000000 1.46288000e+08
7070.000000 1.42386000e+08
7090.000000 1.42948000e+08
7110.000000 1.39589000e+08
7130.000000 1.38362000e+08
7150.000000 1.38452000e+08
7170.000000 1.37373000e+08
7190.000000 1.36048000e+08
7210.000000 1.34635000e+08
7230.000000 1.30706000e+08
7250.000000 1.31433000e+08
7270.000000 1.30462000e+08
7290.000000 1.28095000e+08
7310.000000 1.27762000e+08
7330.000000 1.26343000e+08
7350.000000 1.25203000e+08
7370.000000 1.23977000e+08
7390.000000 1.22720000e+08
7410.000000 1.21482000e+08
7430.000000 1.20181000e+08
7450.000000 1.19000000e+08
7470.000000 1.16859000e+08
7490.000000 1.16464000e+08
7510.000000 1.15370000e+08
7530.000000 1.14060000e+08
7550.000000 1.13206000e+08
7570.000000 1.12089000e+08
7590.000000 1.10930000e+08
7610.000000 1.09580000e+08
7630.000000 1.08715000e+08
7650.000000 1.07677000e+08
7670.000000 1.06662000e+08
7690.000000 1.05598000e+08
7710.000000 1.04506000e+08
7730.000000 1.03430000e+08
7750.000000 1.02590000e+08
7770.000000 1.01008000e+08
7790.000000 1.00632000e+08
7810.000000 9.95988000e+07
7830.000000 9.87035000e+07
7850.000000 9.77060000e+07
7870.000000 9.65410000e+07
7890.000000 9.53199000e+07
7910.000000 9.47241000e+07
7930.000000 9.37617000e+07
7950.000000 9.28971000e+07
7970.000000 9.20874000e+07
7990.000000 9.11254000e+07
8010.000000 9.03128000e+07
8030.000000 8.94720000e+07
8050.000000 8.87547000e+07
8070.000000 8.79625000e+07
8090.000000 8.70503000e+07
8110.000000 8.56249000e+07
8130.000000 8.55746000e+07
8150.000000 8.47184000e+07
8170.000000 8.40896000e+07
8190.000000 8.26404000e+07
8210.000000 8.19532000e+07
8230.000000 8.08601000e+07
8250.000000 8.08892000e+07
8270.000000 7.90883000e+07
8290.000000 7.92773000e+07
8310.000000 7.86779000e+07
8330.000000 7.80237000e+07
8350.000000 7.69263000e+07
8370.000000 7.63548000e+07
8390.000000 7.59109000e+07
8410.000000 7.51082000e+07
8430.000000 7.44819000e+07
8450.000000 7.30956000e+07
8470.000000 7.30449000e+07
8490.000000 7.23092000e+07
8510.000000 7.13662000e+07
8530.000000 7.11666000e+07
8550.000000 6.95302000e+07
8570.000000 7.05910000e+07
8590.000000 6.78988000e+07
8610.000000 6.76346000e+07
8630.000000 6.93347000e+07
8650.000000 6.74032000e+07
8670.000000 6.34440000e+07
8690.000000 6.74676000e+07
8710.000000 6.75901000e+07
8730.000000 6.57731000e+07
8750.000000 5.99126000e+07
8770.000000 6.39010000e+07
8790.000000 6.55365000e+07
8810.000000 6.52539000e+07
8830.000000 6.42966000e+07
8850.000000 6.07933000e+07
8870.000000 5.64350000e+07
8890.000000 6.22829000e+07
8910.000000 6.25019000e+07
8930.000000 6.19860000e+07
8950.000000 6.16763000e+07
8970.000000 6.10458000e+07
8990.000000 5.94600000e+07
9010.000000 5.32516000e+07
9030.000000 5.59174000e+07
9050.000000 5.87018000e+07
9070.000000 5.80310000e+07
9090.000000 5.79492000e+07
9110.000000 5.77495000e+07
9130.000000 5.72979000e+07
9150.000000 5.68182000e+07
9170.000000 5.61361000e+07
9190.000000 5.55574000e+07
9210.000000 5.33178000e+07
9230.000000 4.71039000e+07
9250.000000 5.23337000e+07
9270.000000 5.32831000e+07
9290.000000 5.34686000e+07
9310.000000 5.28653000e+07
9330.000000 5.24615000e+07
9350.000000 5.22373000e+07
9370.000000 5.18429000e+07
9390.000000 5.14471000e+07
9410.000000 5.09181000e+07
9430.000000 5.05710000e+07
9450.000000 5.01293000e+07
9470.000000 4.95062000e+07
9490.000000 4.92057000e+07
9510.000000 4.82616000e+07
9530.000000 4.64042000e+07
9550.000000 4.14267000e+07
9570.000000 4.65642000e+07
9590.000000 4.72222000e+07
9610.000000 4.67403000e+07
9630.000000 4.62661000e+07
9650.000000 4.63658000e+07
9670.000000 4.59848000e+07
9690.000000 4.55745000e+07
9710.000000 4.49395000e+07
9730.000000 4.48822000e+07
9750.000000 4.45279000e+07
9770.000000 4.42195000e+07
9790.000000 4.38503000e+07
9810.000000 4.34290000e+07
9830.000000 4.31706000e+07
9850.000000 4.28052000e+07
9870.000000 4.24153000e+07
9890.000000 4.19743000e+07
9910.000000 4.14522000e+07
9930.000000 4.15184000e+07
9950.000000 4.11766000e+07
9970.000000 4.07918000e+07
9990.000000 4.04852000e+07
10025.000000 3.84636000e+07
10075.000000 3.71327000e+07
10125.000000 3.83029000e+07
10175.000000 3.78219000e+07
10225.000000 3.71034000e+07
10275.000000 3.64220000e+07
10325.000000 3.56142000e+07
10375.000000 3.50968000e+07
10425.000000 3.44570000e+07
10475.000000 3.38267000e+07
10525.000000 3.31802000e+07
10575.000000 3.26055000e+07
10625.000000 3.20190000e+07
10675.000000 3.13822000e+07
10725.000000 3.08862000e+07
10775.000000 3.03300000e+07
10825.000000 2.94499000e+07
10875.000000 2.92017000e+07
10925.000000 2.65526000e+07
10975.000000 2.77093000e+07
11025.000000 2.75698000e+07
11075.000000 2.72695000e+07
11125.000000 2.68070000e+07
11175.000000 2.63549000e+07
11225.000000 2.58937000e+07
11275.000000 2.54216000e+07
11325.000000 2.49506000e+07
11375.000000 2.45969000e+07
11425.000000 2.41576000e+07
11475.000000 2.37858000e+07
11525.000000 2.33958000e+07
11575.000000 2.29754000e+07
11625.000000 2.26112000e+07
11675.000000 2.22178000e+07
11725.000000 2.18906000e+07
11775.000000 2.15174000e+07
11825.000000 2.11752000e+07
11875.000000 2.08383000e+07
11925.000000 2.05047000e+07
11975.000000 1.99766000e+07
12025.000000 1.98488000e+07
12075.000000 1.95362000e+07
12125.000000 1.92209000e+07
12175.000000 1.89180000e+07
12225.000000 1.86204000e+07
12275.000000 1.83312000e+07
12325.000000 1.80362000e+07
12375.000000 1.77574000e+07
12425.000000 1.74884000e+07
12475.000000 1.71897000e+07
12525.000000 1.68930000e+07
12575.000000 1.66675000e+07
12625.000000 1.64185000e+07
12675.000000 1.61858000e+07
12725.000000 1.59374000e+07
12775.000000 1.54274000e+07
12825.000000 1.42890000e+07
12875.000000 1.51484000e+07
12925.000000 1.50024000e+07
12975.000000 1.46692000e+07
13025.000000 1.45471000e+07
13075.000000 1.43492000e+07
