# Kurucz ODFNEW /NOVER, alpha: 0.0 (2003)
# teff = 6500 K (value for the effective temperature for the model. Temperatures are given in K)
# logg = 0.5 log(cm/s2) (value for Log(G) for the model.)
# lh = 1.25  (l/Hp where l is the  mixing length of the convective element and Hp is the pressure scale height)
# meta = -2.5  (value for the Metallicity for the model.)
# vtur = 2 km/s (Microturbulence velocity)
# alpha = 0  (Alpha)
#
# column 1: WAVELENGTH (ANGSTROM), Wavelength in Angstrom
# column 2: FLUX (ERG/CM2/S/A), Flux in erg/cm2/s/A
405.000000 4.91672000e-23
414.000000 2.95522000e-22
422.000000 1.30177000e-21
430.000000 5.38851000e-21
441.000000 3.48020000e-20
451.000000 1.74812000e-19
460.000000 3.72421000e-21
470.000000 1.51938000e-20
480.000000 5.82181000e-20
490.000000 2.10535000e-19
500.000000 7.20126000e-19
506.000000 2.70309000e-16
512.000000 7.91689000e-16
520.000000 2.05543000e-15
530.000000 6.60423000e-15
540.000000 8.97898000e-17
550.000000 2.44170000e-16
560.000000 6.35238000e-16
570.000000 1.59365000e-15
580.000000 3.82049000e-15
590.000000 9.06445000e-15
600.000000 2.06207000e-14
610.000000 4.55548000e-14
620.000000 9.78683000e-14
630.000000 2.04748000e-13
640.000000 4.17925000e-13
650.000000 8.32808000e-13
658.000000 1.42203000e-12
665.000000 2.24491000e-12
675.000000 4.23252000e-12
685.000000 7.81873000e-12
695.000000 1.41652000e-11
705.000000 2.51881000e-11
716.000000 4.64768000e-11
726.000000 7.96736000e-11
735.000000 1.27665000e-10
745.000000 2.12412000e-10
755.000000 3.48142000e-10
765.000000 5.62437000e-10
775.000000 8.96122000e-10
785.000000 1.40898000e-09
795.000000 2.18691000e-09
805.000000 3.35358000e-09
815.000000 5.08180000e-09
825.000000 7.61457000e-09
835.000000 1.12874000e-08
845.000000 1.65565000e-08
855.000000 2.40398000e-08
865.000000 3.45646000e-08
875.000000 4.92301000e-08
885.000000 6.94897000e-08
895.000000 9.72317000e-08
905.000000 1.34882000e-07
915.000000 4.11267000e-03
925.000000 1.80914000e-02
935.000000 2.20813000e-02
945.000000 3.48999000e-02
955.000000 5.38725000e-02
965.000000 5.61600000e-02
975.000000 4.34341000e-02
985.000000 1.28769000e-01
995.000000 1.57008000e-01
1005.000000 1.79673000e-01
1015.000000 1.35992000e-01
1025.000000 2.23813000e-01
1035.000000 3.03240000e-01
1045.000000 5.36896000e-01
1055.000000 7.50328000e-01
1065.000000 9.49409000e-01
1075.000000 1.20368000e+00
1085.000000 1.49024000e+00
1095.000000 1.77056000e+00
1105.000000 3.49601000e+00
1115.000000 5.94204000e+00
1125.000000 6.28009000e+00
1135.000000 6.80539000e+00
1145.000000 6.66778000e+00
1155.000000 5.88184000e+00
1165.000000 5.43960000e+00
1175.000000 4.35171000e+00
1185.000000 2.90658000e+01
1195.000000 2.95970000e+00
1205.000000 1.80207000e+00
1215.000000 8.59915000e-01
1225.000000 2.26549000e+00
1235.000000 5.54414000e+00
1245.000000 5.72304000e+00
1255.000000 1.06937000e+01
1265.000000 1.72063000e+01
1275.000000 2.49426000e+01
1285.000000 3.47361000e+01
1295.000000 4.60268000e+01
1305.000000 5.80195000e+01
1315.000000 7.56215000e+01
1325.000000 9.73290000e+01
1335.000000 1.21206000e+02
1345.000000 1.55457000e+02
1355.000000 1.89257000e+02
1365.000000 2.37131000e+02
1375.000000 2.91839000e+02
1385.000000 3.58165000e+02
1395.000000 4.36853000e+02
1405.000000 5.26766000e+02
1415.000000 6.37169000e+02
1425.000000 7.62485000e+02
1435.000000 9.07327000e+02
1442.000000 1.03859000e+03
1447.000000 1.13245000e+03
1455.000000 1.31743000e+03
1465.000000 1.56412000e+03
1475.000000 1.72863000e+03
1485.000000 1.98613000e+03
1495.000000 2.30687000e+03
1505.000000 2.63941000e+03
1512.000000 2.91082000e+03
1517.000000 3.13591000e+03
1525.000000 3.41800000e+03
1535.000000 3.86351000e+03
1545.000000 4.42712000e+03
1555.000000 4.82234000e+03
1565.000000 5.09930000e+03
1575.000000 5.91088000e+03
1585.000000 6.74648000e+03
1595.000000 7.65505000e+03
1605.000000 8.33623000e+03
1615.000000 9.44732000e+03
1625.000000 1.12269000e+04
1635.000000 1.61685000e+04
1645.000000 2.92958000e+04
1655.000000 2.88273000e+04
1665.000000 6.68260000e+04
1672.000000 5.04173000e+04
1677.000000 9.43415000e+04
1685.000000 1.22155000e+05
1695.000000 1.40109000e+05
1705.000000 1.51727000e+05
1715.000000 1.87697000e+05
1725.000000 2.03201000e+05
1735.000000 2.39086000e+05
1745.000000 2.45311000e+05
1755.000000 2.90263000e+05
1765.000000 2.67706000e+05
1775.000000 3.11834000e+05
1785.000000 3.34634000e+05
1795.000000 3.94756000e+05
1805.000000 3.80496000e+05
1815.000000 4.17393000e+05
1825.000000 3.99451000e+05
1835.000000 4.43900000e+05
1845.000000 4.25876000e+05
1855.000000 4.65943000e+05
1865.000000 4.98728000e+05
1875.000000 5.29556000e+05
1885.000000 5.59842000e+05
1895.000000 5.92283000e+05
1905.000000 5.82427000e+05
1915.000000 6.49461000e+05
1925.000000 6.94621000e+05
1935.000000 6.60253000e+05
1945.000000 7.67953000e+05
1955.000000 7.91077000e+05
1967.000000 8.51979000e+05
1976.000000 8.51665000e+05
1984.000000 8.71379000e+05
1995.000000 8.87126000e+05
2005.000000 8.89807000e+05
2015.000000 9.16710000e+05
2025.000000 8.93861000e+05
2035.000000 9.97037000e+05
2045.000000 1.06541000e+06
2055.000000 1.05569000e+06
2065.000000 1.06422000e+06
2074.000000 1.19172000e+06
2078.000000 1.21122000e+06
2085.000000 1.21774000e+06
2095.000000 1.21181000e+06
2105.000000 1.22234000e+06
2115.000000 1.26480000e+06
2125.000000 1.31382000e+06
2135.000000 1.16617000e+06
2145.000000 1.32579000e+06
2155.000000 1.36113000e+06
2165.000000 1.33903000e+06
2175.000000 1.36807000e+06
2185.000000 1.43883000e+06
2195.000000 1.56704000e+06
2205.000000 1.54503000e+06
2215.000000 1.46631000e+06
2225.000000 1.52408000e+06
2235.000000 1.71696000e+06
2245.000000 1.60378000e+06
2255.000000 1.58226000e+06
2265.000000 1.57779000e+06
2275.000000 1.74512000e+06
2285.000000 1.80384000e+06
2295.000000 1.74023000e+06
2305.000000 1.81819000e+06
2315.000000 1.85236000e+06
2325.000000 1.86594000e+06
2335.000000 1.78946000e+06
2345.000000 1.60995000e+06
2355.000000 1.97629000e+06
2365.000000 1.72690000e+06
2375.000000 1.94949000e+06
2385.000000 1.59945000e+06
2395.000000 1.85770000e+06
2405.000000 1.83121000e+06
2415.000000 1.92543000e+06
2425.000000 2.20145000e+06
2435.000000 2.19103000e+06
2445.000000 2.30013000e+06
2455.000000 2.28468000e+06
2465.000000 2.29508000e+06
2475.000000 2.23352000e+06
2485.000000 2.33777000e+06
2495.000000 2.33396000e+06
2505.000000 2.57190000e+06
2513.000000 2.37342000e+06
2518.000000 2.41784000e+06
2525.000000 2.30199000e+06
2535.000000 2.29266000e+06
2545.000000 2.35814000e+06
2555.000000 2.53114000e+06
2565.000000 2.54654000e+06
2575.000000 2.72043000e+06
2585.000000 2.72446000e+06
2595.000000 2.68957000e+06
2605.000000 2.61306000e+06
2615.000000 2.57592000e+06
2625.000000 2.80859000e+06
2635.000000 2.90679000e+06
2645.000000 3.28323000e+06
2655.000000 3.30857000e+06
2665.000000 3.14736000e+06
2675.000000 3.26212000e+06
2685.000000 3.33967000e+06
2695.000000 3.22618000e+06
2705.000000 3.29747000e+06
2715.000000 3.17954000e+06
2725.000000 3.24320000e+06
2735.000000 3.43488000e+06
2745.000000 2.95713000e+06
2755.000000 3.15231000e+06
2765.000000 3.34444000e+06
2775.000000 3.56812000e+06
2785.000000 3.55167000e+06
2795.000000 2.48828000e+06
2805.000000 2.83418000e+06
2815.000000 3.81164000e+06
2825.000000 3.83148000e+06
2835.000000 3.77975000e+06
2845.000000 3.76877000e+06
2855.000000 3.64383000e+06
2865.000000 3.80914000e+06
2875.000000 3.79791000e+06
2885.000000 3.92697000e+06
2895.000000 3.89890000e+06
2910.000000 4.17040000e+06
2930.000000 4.15144000e+06
2950.000000 4.17240000e+06
2970.000000 4.28411000e+06
2990.000000 4.37490000e+06
3010.000000 4.47081000e+06
3030.000000 4.54411000e+06
3050.000000 4.58960000e+06
3070.000000 4.60994000e+06
3090.000000 4.74852000e+06
3110.000000 4.73361000e+06
3130.000000 4.76867000e+06
3150.000000 4.89739000e+06
3170.000000 4.95425000e+06
3190.000000 4.86345000e+06
3210.000000 4.99571000e+06
3230.000000 4.96329000e+06
3250.000000 5.09392000e+06
3270.000000 5.18576000e+06
3290.000000 5.30180000e+06
3310.000000 5.37237000e+06
3330.000000 5.34132000e+06
3350.000000 5.31399000e+06
3370.000000 5.38412000e+06
3390.000000 5.42503000e+06
3410.000000 5.56925000e+06
3430.000000 5.62937000e+06
3450.000000 5.64532000e+06
3470.000000 5.64489000e+06
3490.000000 5.68925000e+06
3510.000000 5.80226000e+06
3530.000000 5.87456000e+06
3550.000000 5.94068000e+06
3570.000000 5.88110000e+06
3590.000000 5.91602000e+06
3610.000000 5.97553000e+06
3630.000000 6.04224000e+06
3640.000000 6.02501000e+06
3650.000000 6.11533000e+06
3670.000000 6.23486000e+06
3690.000000 7.10540000e+06
3710.000000 9.67244000e+06
3730.000000 1.39818000e+07
3750.000000 1.90646000e+07
3770.000000 1.96381000e+07
3790.000000 2.23476000e+07
3810.000000 2.47084000e+07
3830.000000 2.05440000e+07
3850.000000 2.58608000e+07
3870.000000 2.69375000e+07
3890.000000 1.94874000e+07
3910.000000 2.65000000e+07
3930.000000 2.44796000e+07
3950.000000 2.64972000e+07
3970.000000 1.83762000e+07
3990.000000 2.60396000e+07
4010.000000 2.63803000e+07
4030.000000 2.61400000e+07
4050.000000 2.59513000e+07
4070.000000 2.54103000e+07
4090.000000 2.35972000e+07
4110.000000 1.94526000e+07
4130.000000 2.49756000e+07
4150.000000 2.49892000e+07
4170.000000 2.46937000e+07
4190.000000 2.45272000e+07
4210.000000 2.42161000e+07
4230.000000 2.39560000e+07
4250.000000 2.38020000e+07
4270.000000 2.36395000e+07
4290.000000 2.34093000e+07
4310.000000 2.27241000e+07
4330.000000 2.06862000e+07
4350.000000 1.83128000e+07
4370.000000 2.26883000e+07
4390.000000 2.24039000e+07
4410.000000 2.21972000e+07
4430.000000 2.23658000e+07
4450.000000 2.20815000e+07
4470.000000 2.19202000e+07
4490.000000 2.17926000e+07
4510.000000 2.15553000e+07
4530.000000 2.13250000e+07
4550.000000 2.09869000e+07
4570.000000 2.10616000e+07
4590.000000 2.08784000e+07
4610.000000 2.09140000e+07
4630.000000 2.06282000e+07
4650.000000 2.05818000e+07
4670.000000 2.04163000e+07
4690.000000 2.02648000e+07
4710.000000 2.00115000e+07
4730.000000 1.99656000e+07
4750.000000 1.98295000e+07
4770.000000 1.96636000e+07
4790.000000 1.95096000e+07
4810.000000 1.93330000e+07
4830.000000 1.90796000e+07
4850.000000 1.75052000e+07
4870.000000 1.49052000e+07
4890.000000 1.85560000e+07
4910.000000 1.85926000e+07
4930.000000 1.83258000e+07
4950.000000 1.83472000e+07
4970.000000 1.82501000e+07
4990.000000 1.80860000e+07
5010.000000 1.78368000e+07
5030.000000 1.78307000e+07
5050.000000 1.76913000e+07
5070.000000 1.75827000e+07
5090.000000 1.74463000e+07
5110.000000 1.73215000e+07
5130.000000 1.71753000e+07
5150.000000 1.70407000e+07
5170.000000 1.67174000e+07
5190.000000 1.66350000e+07
5210.000000 1.66435000e+07
5230.000000 1.64545000e+07
5250.000000 1.64592000e+07
5270.000000 1.62111000e+07
5290.000000 1.62207000e+07
5310.000000 1.60573000e+07
5330.000000 1.59304000e+07
5350.000000 1.58865000e+07
5370.000000 1.57449000e+07
5390.000000 1.56425000e+07
5410.000000 1.55232000e+07
5430.000000 1.54078000e+07
5450.000000 1.53140000e+07
5470.000000 1.52236000e+07
5490.000000 1.51241000e+07
5510.000000 1.50170000e+07
5530.000000 1.48950000e+07
5550.000000 1.48172000e+07
5570.000000 1.47074000e+07
5590.000000 1.46023000e+07
5610.000000 1.45044000e+07
5630.000000 1.44122000e+07
5650.000000 1.43033000e+07
5670.000000 1.42061000e+07
5690.000000 1.41168000e+07
5710.000000 1.40193000e+07
5730.000000 1.39262000e+07
5750.000000 1.38306000e+07
5770.000000 1.37371000e+07
5790.000000 1.36435000e+07
5810.000000 1.35509000e+07
5830.000000 1.34592000e+07
5850.000000 1.33662000e+07
5870.000000 1.32786000e+07
5890.000000 1.31212000e+07
5910.000000 1.31005000e+07
5930.000000 1.30123000e+07
5950.000000 1.29260000e+07
5970.000000 1.28396000e+07
5990.000000 1.27529000e+07
6010.000000 1.26682000e+07
6030.000000 1.25843000e+07
6050.000000 1.25012000e+07
6070.000000 1.24190000e+07
6090.000000 1.23365000e+07
6110.000000 1.22549000e+07
6130.000000 1.21680000e+07
6150.000000 1.20761000e+07
6170.000000 1.20098000e+07
6190.000000 1.19362000e+07
6210.000000 1.18585000e+07
6230.000000 1.17786000e+07
6250.000000 1.16850000e+07
6270.000000 1.16288000e+07
6290.000000 1.15530000e+07
6310.000000 1.14742000e+07
6330.000000 1.14028000e+07
6350.000000 1.13273000e+07
6370.000000 1.12545000e+07
6390.000000 1.11841000e+07
6410.000000 1.11071000e+07
6430.000000 1.10372000e+07
6450.000000 1.09571000e+07
6470.000000 1.08985000e+07
6490.000000 1.08126000e+07
6510.000000 1.07258000e+07
6530.000000 1.06055000e+07
6550.000000 9.99636000e+06
6570.000000 8.22383000e+06
6590.000000 1.03187000e+07
6610.000000 1.03770000e+07
6630.000000 1.03436000e+07
6650.000000 1.02909000e+07
6670.000000 1.02259000e+07
6690.000000 1.01623000e+07
6710.000000 1.00985000e+07
6730.000000 1.00352000e+07
6750.000000 9.97170000e+06
6770.000000 9.90958000e+06
6790.000000 9.84721000e+06
6810.000000 9.78620000e+06
6830.000000 9.72413000e+06
6850.000000 9.66422000e+06
6870.000000 9.60404000e+06
6890.000000 9.54439000e+06
6910.000000 9.48528000e+06
6930.000000 9.42669000e+06
6950.000000 9.36783000e+06
6970.000000 9.31027000e+06
6990.000000 9.25244000e+06
7010.000000 9.19436000e+06
7030.000000 9.13830000e+06
7050.000000 9.08274000e+06
7070.000000 9.02690000e+06
7090.000000 8.97155000e+06
7110.000000 8.91295000e+06
7130.000000 8.86080000e+06
7150.000000 8.80687000e+06
7170.000000 8.75341000e+06
7190.000000 8.69968000e+06
7210.000000 8.64641000e+06
7230.000000 8.59360000e+06
7250.000000 8.54266000e+06
7270.000000 8.49074000e+06
7290.000000 8.43854000e+06
7310.000000 8.38679000e+06
7330.000000 8.33618000e+06
7350.000000 8.28669000e+06
7370.000000 8.23761000e+06
7390.000000 8.18757000e+06
7410.000000 8.13657000e+06
7430.000000 8.08873000e+06
7450.000000 8.03993000e+06
7470.000000 7.99086000e+06
7490.000000 7.94354000e+06
7510.000000 7.89594000e+06
7530.000000 7.85007000e+06
7550.000000 7.80391000e+06
7570.000000 7.75681000e+06
7590.000000 7.71075000e+06
7610.000000 7.66507000e+06
7630.000000 7.61976000e+06
7650.000000 7.57418000e+06
7670.000000 7.52897000e+06
7690.000000 7.48540000e+06
7710.000000 7.43901000e+06
7730.000000 7.39678000e+06
7750.000000 7.35301000e+06
7770.000000 7.29461000e+06
7790.000000 7.26713000e+06
7810.000000 7.22502000e+06
7830.000000 7.18201000e+06
7850.000000 7.13935000e+06
7870.000000 7.09764000e+06
7890.000000 7.05565000e+06
7910.000000 7.01520000e+06
7930.000000 6.97386000e+06
7950.000000 6.93345000e+06
7970.000000 6.89396000e+06
7990.000000 6.85358000e+06
8010.000000 6.81412000e+06
8030.000000 6.77437000e+06
8050.000000 6.73494000e+06
8070.000000 6.69639000e+06
8090.000000 6.65757000e+06
8110.000000 6.61962000e+06
8130.000000 6.58139000e+06
8150.000000 6.54346000e+06
8170.000000 6.50582000e+06
8190.000000 6.46453000e+06
8210.000000 6.43978000e+06
8230.000000 6.40463000e+06
8250.000000 6.36752000e+06
8270.000000 6.33070000e+06
8290.000000 6.28923000e+06
8310.000000 6.23172000e+06
8330.000000 6.17522000e+06
8350.000000 6.18458000e+06
8370.000000 6.05289000e+06
8390.000000 6.09203000e+06
8410.000000 6.06150000e+06
8430.000000 6.17537000e+06
8450.000000 6.13087000e+06
8470.000000 5.96227000e+06
8490.000000 6.30373000e+06
8510.000000 5.87514000e+06
8530.000000 6.34519000e+06
8550.000000 5.75382000e+06
8570.000000 6.39843000e+06
8590.000000 6.18079000e+06
8610.000000 6.01744000e+06
8630.000000 6.46051000e+06
8650.000000 6.38384000e+06
8670.000000 5.62571000e+06
8690.000000 6.38358000e+06
8710.000000 6.39700000e+06
8730.000000 6.32077000e+06
8750.000000 5.58876000e+06
8770.000000 6.18830000e+06
8790.000000 6.25525000e+06
8810.000000 6.23125000e+06
8830.000000 6.17841000e+06
8850.000000 6.00814000e+06
8870.000000 5.43138000e+06
8890.000000 6.05001000e+06
8910.000000 6.04993000e+06
8930.000000 6.01955000e+06
8950.000000 5.99362000e+06
8970.000000 5.95475000e+06
8990.000000 5.88959000e+06
9010.000000 5.29221000e+06
9030.000000 5.63332000e+06
9050.000000 5.80348000e+06
9070.000000 5.76921000e+06
9090.000000 5.71422000e+06
9110.000000 5.71685000e+06
9130.000000 5.69589000e+06
9150.000000 5.66427000e+06
9170.000000 5.63197000e+06
9190.000000 5.59098000e+06
9210.000000 5.49922000e+06
9230.000000 4.87092000e+06
9250.000000 5.41037000e+06
9270.000000 5.45939000e+06
9290.000000 5.44638000e+06
9310.000000 5.41649000e+06
9330.000000 5.38637000e+06
9350.000000 5.35689000e+06
9370.000000 5.32718000e+06
9390.000000 5.29767000e+06
9410.000000 5.24582000e+06
9430.000000 5.23842000e+06
9450.000000 5.21079000e+06
9470.000000 5.18250000e+06
9490.000000 5.15398000e+06
9510.000000 5.11400000e+06
9530.000000 5.01623000e+06
9550.000000 4.47189000e+06
9570.000000 4.98508000e+06
9590.000000 5.00732000e+06
9610.000000 4.98487000e+06
9630.000000 4.95241000e+06
9650.000000 4.93352000e+06
9670.000000 4.89581000e+06
9690.000000 4.88043000e+06
9710.000000 4.85476000e+06
9730.000000 4.82845000e+06
9750.000000 4.80193000e+06
9770.000000 4.77676000e+06
9790.000000 4.75137000e+06
9810.000000 4.72575000e+06
9830.000000 4.70030000e+06
9850.000000 4.67463000e+06
9870.000000 4.64991000e+06
9890.000000 4.62342000e+06
9910.000000 4.60055000e+06
9930.000000 4.57593000e+06
9950.000000 4.55222000e+06
9970.000000 4.52829000e+06
9990.000000 4.50414000e+06
10025.000000 4.38053000e+06
10075.000000 4.22248000e+06
10125.000000 4.34514000e+06
10175.000000 4.28981000e+06
10225.000000 4.23426000e+06
10275.000000 4.17959000e+06
10325.000000 4.12437000e+06
10375.000000 4.07281000e+06
10425.000000 4.02067000e+06
10475.000000 3.96624000e+06
10525.000000 3.91844000e+06
10575.000000 3.86867000e+06
10625.000000 3.81900000e+06
10675.000000 3.75322000e+06
10725.000000 3.71831000e+06
10775.000000 3.67642000e+06
10825.000000 3.62935000e+06
10875.000000 3.58395000e+06
10925.000000 3.34385000e+06
10975.000000 3.46733000e+06
11025.000000 3.45455000e+06
11075.000000 3.41237000e+06
11125.000000 3.37020000e+06
11175.000000 3.32895000e+06
11225.000000 3.28859000e+06
11275.000000 3.24734000e+06
11325.000000 3.20698000e+06
11375.000000 3.17011000e+06
11425.000000 3.13146000e+06
11475.000000 3.09450000e+06
11525.000000 3.05750000e+06
11575.000000 3.02074000e+06
11625.000000 2.98338000e+06
11675.000000 2.94572000e+06
11725.000000 2.91407000e+06
11775.000000 2.87226000e+06
11825.000000 2.84209000e+06
11875.000000 2.80966000e+06
11925.000000 2.77926000e+06
11975.000000 2.74270000e+06
12025.000000 2.71421000e+06
12075.000000 2.68248000e+06
12125.000000 2.65143000e+06
12175.000000 2.62106000e+06
12225.000000 2.59084000e+06
12275.000000 2.56052000e+06
12325.000000 2.53136000e+06
12375.000000 2.50234000e+06
12425.000000 2.47394000e+06
12475.000000 2.44568000e+06
12525.000000 2.41778000e+06
12575.000000 2.38978000e+06
12625.000000 2.36276000e+06
12675.000000 2.33663000e+06
12725.000000 2.31032000e+06
12775.000000 2.27703000e+06
12825.000000 2.11511000e+06
12875.000000 2.22953000e+06
12925.000000 2.20859000e+06
12975.000000 2.18402000e+06
13025.000000 2.15982000e+06
13075.000000 2.13591000e+06
13125.000000 2.11221000e+06
13175.000000 2.08882000e+06
13225.000000 2.06602000e+06
13275.000000 2.04330000e+06
13325.000000 2.02093000e+06
13375.000000 1.99886000e+06
13425.000000 1.97705000e+06
13475.000000 1.95554000e+06
13525.000000 1.93421000e+06
13575.000000 1.91324000e+06
13625.000000 1.89269000e+06
13675.000000 1.87227000e+06
13725.000000 1.85105000e+06
13775.000000 1.83202000e+06
13825.000000 1.81241000e+06
13875.000000 1.79316000e+06
13925.000000 1.77390000e+06
13975.000000 1.75506000e+06
14025.000000 1.73636000e+06
14075.000000 1.71794000e+06
14125.000000 1.69970000e+06
14175.000000 1.68173000e+06
14225.000000 1.66390000e+06
14275.000000 1.64633000e+06
14325.000000 1.62907000e+06
14375.000000 1.61194000e+06
14425.000000 1.59279000e+06
14475.000000 1.57829000e+06
14525.000000 1.56036000e+06
14570.000000 1.54699000e+06
14620.000000 1.53191000e+06
14675.000000 1.51528000e+06
14725.000000 1.49981000e+06
14775.000000 1.48401000e+06
14825.000000 1.46848000e+06
14875.000000 1.45120000e+06
14925.000000 1.43583000e+06
14975.000000 1.42334000e+06
15025.000000 1.39811000e+06
15075.000000 1.38907000e+06
15125.000000 1.37311000e+06
15175.000000 1.35979000e+06
15225.000000 1.36797000e+06
15275.000000 1.32475000e+06
