# Kurucz ODFNEW /NOVER, alpha: 0.0 (2003)
# teff = 24000 K (value for the effective temperature for the model. Temperatures are given in K)
# logg = 3.5 log(cm/s2) (value for Log(G) for the model.)
# lh = 1.25  (l/Hp where l is the  mixing length of the convective element and Hp is the pressure scale height)
# meta = 0.2  (value for the Metallicity for the model.)
# vtur = 2 km/s (Microturbulence velocity)
# alpha = 0  (Alpha)
#
# column 1: WAVELENGTH (ANGSTROM), Wavelength in Angstrom
# column 2: FLUX (ERG/CM2/S/A), Flux in erg/cm2/s/A
147.200000 1.45246000e-15
151.000000 6.56191000e-15
155.200000 3.20877000e-14
158.800000 1.17720000e-13
162.000000 3.57881000e-13
166.000000 1.35942000e-12
170.300000 5.34787000e-12
173.400000 1.38601000e-11
176.800000 3.79028000e-11
180.200000 1.00099000e-10
181.700000 1.51947000e-10
186.100000 4.99710000e-10
191.000000 1.77331000e-09
193.900000 3.64763000e-09
198.400000 1.07432000e-08
201.800000 2.35798000e-08
205.000000 4.83164000e-08
210.500000 1.58105000e-07
216.200000 5.08252000e-07
219.800000 1.03134000e-06
223.000000 1.89914000e-06
226.800000 3.84286000e-06
230.000000 2.69764000e-04
234.000000 6.30194000e-04
240.000000 1.52654000e-03
246.500000 3.83505000e-03
252.400000 8.57825000e-03
256.800000 1.44708000e-02
260.000000 2.43877000e-02
264.000000 3.94664000e-02
268.500000 6.73849000e-02
273.500000 1.18812000e-01
278.500000 2.05534000e-01
284.000000 3.97323000e-01
290.000000 7.22102000e-01
296.000000 1.29084000e+00
301.000000 2.03128000e+00
308.000000 3.96828000e+00
318.000000 9.80642000e+00
328.000000 2.10524000e+01
338.000000 4.60871000e+01
348.000000 9.30345000e+01
357.000000 4.20362000e+02
366.000000 8.36980000e+02
375.000000 1.29394000e+03
385.000000 2.20662000e+03
395.000000 4.12501000e+03
405.000000 6.41215000e+03
414.000000 9.71629000e+03
422.000000 1.39345000e+04
430.000000 2.03157000e+04
441.000000 3.12299000e+04
451.000000 4.33329000e+04
460.000000 5.83201000e+04
470.000000 8.40981000e+04
480.000000 1.16332000e+05
490.000000 1.60624000e+05
500.000000 2.13545000e+05
506.000000 1.17129000e+06
512.000000 1.19166000e+07
520.000000 1.33276000e+07
530.000000 1.52167000e+07
540.000000 1.62035000e+07
550.000000 2.50074000e+07
560.000000 3.02260000e+07
570.000000 3.59824000e+07
580.000000 3.39392000e+07
590.000000 4.54846000e+07
600.000000 5.07496000e+07
610.000000 6.07212000e+07
620.000000 6.75741000e+07
630.000000 7.10433000e+07
640.000000 6.42197000e+07
650.000000 4.46939000e+07
658.000000 7.34588000e+07
665.000000 9.25329000e+07
675.000000 9.82039000e+07
685.000000 9.78625000e+07
695.000000 1.33822000e+08
705.000000 1.33448000e+08
716.000000 1.53093000e+08
726.000000 1.56560000e+08
735.000000 1.62986000e+08
745.000000 1.88200000e+08
755.000000 2.00583000e+08
765.000000 2.15348000e+08
775.000000 2.30576000e+08
785.000000 2.47279000e+08
795.000000 2.55987000e+08
805.000000 2.64288000e+08
815.000000 2.70632000e+08
825.000000 2.98372000e+08
835.000000 2.49188000e+08
845.000000 3.03452000e+08
855.000000 3.07387000e+08
865.000000 3.29338000e+08
875.000000 3.52483000e+08
885.000000 3.83697000e+08
895.000000 4.01705000e+08
905.000000 3.92334000e+08
915.000000 6.41213000e+08
925.000000 5.73751000e+09
935.000000 1.16963000e+10
945.000000 1.80479000e+10
955.000000 2.10380000e+10
965.000000 2.13300000e+10
975.000000 3.58537000e+09
985.000000 1.45263000e+10
995.000000 1.67355000e+10
1005.000000 2.11657000e+10
1015.000000 2.20551000e+10
1025.000000 1.48612000e+10
1035.000000 1.70048000e+10
1045.000000 2.65526000e+10
1055.000000 2.40817000e+10
1065.000000 1.89789000e+10
1075.000000 2.22988000e+10
1085.000000 1.96668000e+10
1095.000000 2.25458000e+10
1105.000000 2.01094000e+10
1115.000000 1.90018000e+10
1125.000000 1.44941000e+10
1135.000000 2.06320000e+10
1145.000000 1.89419000e+10
1155.000000 1.92727000e+10
1165.000000 1.88503000e+10
1175.000000 9.73050000e+09
1185.000000 1.76514000e+10
1195.000000 1.64252000e+10
1205.000000 9.97927000e+09
1215.000000 1.06484000e+10
1225.000000 1.59132000e+10
1235.000000 1.80801000e+10
1245.000000 1.72260000e+10
1255.000000 1.70870000e+10
1265.000000 1.75119000e+10
1275.000000 1.82297000e+10
1285.000000 1.80974000e+10
1295.000000 1.18768000e+10
1305.000000 1.32824000e+10
1315.000000 1.76445000e+10
1325.000000 1.63717000e+10
1335.000000 1.56228000e+10
1345.000000 1.61783000e+10
1355.000000 1.58105000e+10
1365.000000 1.43352000e+10
1375.000000 1.38369000e+10
1385.000000 1.32138000e+10
1395.000000 8.54503000e+09
1405.000000 9.67575000e+09
1415.000000 1.15375000e+10
1425.000000 1.14567000e+10
1435.000000 1.20359000e+10
1442.000000 1.23326000e+10
1447.000000 1.20966000e+10
1455.000000 1.16212000e+10
1465.000000 1.04913000e+10
1475.000000 1.09684000e+10
1485.000000 1.08723000e+10
1495.000000 1.05974000e+10
1505.000000 9.46869000e+09
1512.000000 8.31158000e+09
1517.000000 8.64552000e+09
1525.000000 8.99534000e+09
1535.000000 7.37670000e+09
1545.000000 7.00943000e+09
1555.000000 6.89277000e+09
1565.000000 7.65633000e+09
1575.000000 8.27578000e+09
1585.000000 8.40682000e+09
1595.000000 8.22755000e+09
1605.000000 8.45717000e+09
1615.000000 8.25801000e+09
1625.000000 8.09662000e+09
1635.000000 8.73268000e+09
1645.000000 8.76201000e+09
1655.000000 8.63485000e+09
1665.000000 8.83163000e+09
1672.000000 8.29602000e+09
1677.000000 9.34011000e+09
1685.000000 8.97073000e+09
1695.000000 8.35865000e+09
1705.000000 8.20491000e+09
1715.000000 7.62995000e+09
1725.000000 7.55731000e+09
1735.000000 7.94614000e+09
1745.000000 7.73706000e+09
1755.000000 7.80007000e+09
1765.000000 7.75741000e+09
1775.000000 7.13324000e+09
1785.000000 7.35457000e+09
1795.000000 7.62678000e+09
1805.000000 7.73631000e+09
1815.000000 6.69352000e+09
1825.000000 7.06705000e+09
1835.000000 6.84747000e+09
1845.000000 6.16995000e+09
1855.000000 6.27002000e+09
1865.000000 6.36077000e+09
1875.000000 6.74413000e+09
1885.000000 5.89539000e+09
1895.000000 5.45053000e+09
1905.000000 6.05151000e+09
1915.000000 5.57653000e+09
1925.000000 5.25472000e+09
1935.000000 5.70212000e+09
1945.000000 5.81382000e+09
1955.000000 5.14633000e+09
1967.000000 5.73757000e+09
1976.000000 5.97844000e+09
1984.000000 5.53716000e+09
1995.000000 5.42714000e+09
2005.000000 5.74246000e+09
2015.000000 5.64209000e+09
2025.000000 5.82877000e+09
2035.000000 5.21889000e+09
2045.000000 5.39129000e+09
2055.000000 5.10781000e+09
2065.000000 5.05607000e+09
2074.000000 5.45405000e+09
2078.000000 4.76565000e+09
2085.000000 5.18555000e+09
2095.000000 4.88939000e+09
2105.000000 5.08374000e+09
2115.000000 5.13793000e+09
2125.000000 5.16419000e+09
2135.000000 5.09477000e+09
2145.000000 4.76489000e+09
2155.000000 5.03269000e+09
2165.000000 5.03726000e+09
2175.000000 4.98444000e+09
2185.000000 4.75577000e+09
2195.000000 4.87455000e+09
2205.000000 4.87723000e+09
2215.000000 4.77716000e+09
2225.000000 4.64376000e+09
2235.000000 4.56904000e+09
2245.000000 4.63158000e+09
2255.000000 4.45754000e+09
2265.000000 4.54134000e+09
2275.000000 4.46831000e+09
2285.000000 4.47994000e+09
2295.000000 3.95804000e+09
2305.000000 4.30716000e+09
2315.000000 4.16234000e+09
2325.000000 4.12089000e+09
2335.000000 3.97733000e+09
2345.000000 4.02699000e+09
2355.000000 4.01637000e+09
2365.000000 3.98153000e+09
2375.000000 3.89191000e+09
2385.000000 3.86238000e+09
2395.000000 3.82126000e+09
2405.000000 3.74416000e+09
2415.000000 3.72264000e+09
2425.000000 3.71609000e+09
2435.000000 3.59598000e+09
2445.000000 3.62265000e+09
2455.000000 3.63333000e+09
2465.000000 3.55474000e+09
2475.000000 3.49329000e+09
2485.000000 3.40746000e+09
2495.000000 2.77157000e+09
2505.000000 3.28129000e+09
2513.000000 3.16146000e+09
2518.000000 3.30340000e+09
2525.000000 3.26225000e+09
2535.000000 3.22653000e+09
2545.000000 3.09333000e+09
2555.000000 3.15694000e+09
2565.000000 3.10947000e+09
2575.000000 3.12951000e+09
2585.000000 3.07428000e+09
2595.000000 3.04896000e+09
2605.000000 3.02892000e+09
2615.000000 2.97572000e+09
2625.000000 2.95987000e+09
2635.000000 2.93653000e+09
2645.000000 2.90257000e+09
2655.000000 2.89619000e+09
2665.000000 2.75685000e+09
2675.000000 2.78371000e+09
2685.000000 2.77676000e+09
2695.000000 2.66786000e+09
2705.000000 2.59961000e+09
2715.000000 2.61551000e+09
2725.000000 2.62379000e+09
2735.000000 2.60328000e+09
2745.000000 2.53335000e+09
2755.000000 2.52721000e+09
2765.000000 2.50334000e+09
2775.000000 2.52589000e+09
2785.000000 2.48034000e+09
2795.000000 2.38792000e+09
2805.000000 2.41407000e+09
2815.000000 2.41796000e+09
2825.000000 2.38912000e+09
2835.000000 2.28942000e+09
2845.000000 2.32023000e+09
2855.000000 2.27414000e+09
2865.000000 2.28280000e+09
2875.000000 2.25829000e+09
2885.000000 2.23443000e+09
2895.000000 2.19196000e+09
2910.000000 2.14989000e+09
2930.000000 2.12770000e+09
2950.000000 2.06142000e+09
2970.000000 2.03332000e+09
2990.000000 1.98881000e+09
3010.000000 1.90766000e+09
3030.000000 1.91054000e+09
3050.000000 1.88168000e+09
3070.000000 1.85401000e+09
3090.000000 1.77402000e+09
3110.000000 1.77250000e+09
3130.000000 1.72754000e+09
3150.000000 1.70207000e+09
3170.000000 1.65502000e+09
3190.000000 1.62515000e+09
3210.000000 1.60291000e+09
3230.000000 1.56287000e+09
3250.000000 1.54244000e+09
3270.000000 1.50552000e+09
3290.000000 1.47624000e+09
3310.000000 1.45020000e+09
3330.000000 1.41840000e+09
3350.000000 1.39490000e+09
3370.000000 1.36641000e+09
3390.000000 1.34683000e+09
3410.000000 1.32256000e+09
3430.000000 1.29287000e+09
3450.000000 1.26494000e+09
3470.000000 1.24283000e+09
3490.000000 1.21796000e+09
3510.000000 1.19895000e+09
3530.000000 1.18456000e+09
3550.000000 1.16210000e+09
3570.000000 1.14480000e+09
3590.000000 1.11024000e+09
3610.000000 1.09040000e+09
3630.000000 1.07742000e+09
3640.000000 1.07603000e+09
3650.000000 1.05006000e+09
3670.000000 1.03879000e+09
3690.000000 1.01176000e+09
3710.000000 9.79916000e+08
3730.000000 9.54922000e+08
3750.000000 1.01910000e+09
3770.000000 1.01179000e+09
3790.000000 1.04080000e+09
3810.000000 1.07262000e+09
3830.000000 9.57586000e+08
3850.000000 1.06938000e+09
3870.000000 1.04445000e+09
3890.000000 9.13162000e+08
3910.000000 1.04149000e+09
3930.000000 1.00248000e+09
3950.000000 9.95155000e+08
3970.000000 8.46254000e+08
3990.000000 9.63896000e+08
4010.000000 9.53743000e+08
4030.000000 9.11106000e+08
4050.000000 9.19861000e+08
4070.000000 8.78207000e+08
4090.000000 8.38425000e+08
4110.000000 7.65654000e+08
4130.000000 8.39645000e+08
4150.000000 8.33584000e+08
4170.000000 8.29160000e+08
4190.000000 8.20556000e+08
4210.000000 8.13245000e+08
4230.000000 7.94751000e+08
4250.000000 7.73085000e+08
4270.000000 7.52141000e+08
4290.000000 7.42831000e+08
4310.000000 7.20195000e+08
4330.000000 6.80443000e+08
4350.000000 6.32033000e+08
4370.000000 6.85917000e+08
4390.000000 6.85252000e+08
4410.000000 6.77908000e+08
4430.000000 6.71321000e+08
4450.000000 6.61058000e+08
4470.000000 6.37772000e+08
4490.000000 6.41988000e+08
4510.000000 6.36325000e+08
4530.000000 6.25946000e+08
4550.000000 6.17834000e+08
4570.000000 6.07117000e+08
4590.000000 5.97099000e+08
4610.000000 5.82233000e+08
4630.000000 5.74314000e+08
4650.000000 5.55394000e+08
4670.000000 5.57988000e+08
4690.000000 5.54199000e+08
4710.000000 5.33098000e+08
4730.000000 5.34139000e+08
4750.000000 5.25559000e+08
4770.000000 5.26361000e+08
4790.000000 5.16638000e+08
4810.000000 5.06016000e+08
4830.000000 4.97765000e+08
4850.000000 4.76820000e+08
4870.000000 4.32025000e+08
4890.000000 4.77873000e+08
4910.000000 4.72316000e+08
4930.000000 4.57642000e+08
4950.000000 4.56565000e+08
4970.000000 4.54255000e+08
4990.000000 4.46445000e+08
5010.000000 4.27173000e+08
5030.000000 4.32866000e+08
5050.000000 4.22989000e+08
5070.000000 4.21754000e+08
5090.000000 4.14985000e+08
5110.000000 4.08122000e+08
5130.000000 3.98447000e+08
5150.000000 3.94960000e+08
5170.000000 3.92319000e+08
5190.000000 3.87455000e+08
5210.000000 3.80836000e+08
5230.000000 3.76345000e+08
5250.000000 3.71611000e+08
5270.000000 3.65377000e+08
5290.000000 3.61650000e+08
5310.000000 3.56232000e+08
5330.000000 3.51853000e+08
5350.000000 3.46635000e+08
5370.000000 3.42855000e+08
5390.000000 3.37878000e+08
5410.000000 3.33981000e+08
5430.000000 3.28932000e+08
5450.000000 3.24417000e+08
5470.000000 3.20160000e+08
5490.000000 3.16057000e+08
5510.000000 3.12786000e+08
5530.000000 3.07731000e+08
5550.000000 3.04869000e+08
5570.000000 3.00510000e+08
5590.000000 2.97086000e+08
5610.000000 2.92960000e+08
5630.000000 2.89599000e+08
5650.000000 2.84177000e+08
5670.000000 2.79199000e+08
5690.000000 2.74832000e+08
5710.000000 2.73695000e+08
5730.000000 2.70698000e+08
5750.000000 2.66357000e+08
5770.000000 2.64683000e+08
5790.000000 2.61015000e+08
5810.000000 2.57893000e+08
5830.000000 2.53943000e+08
5850.000000 2.51329000e+08
5870.000000 2.42381000e+08
5890.000000 2.42845000e+08
5910.000000 2.41247000e+08
5930.000000 2.37737000e+08
5950.000000 2.34631000e+08
5970.000000 2.33875000e+08
5990.000000 2.29481000e+08
6010.000000 2.27810000e+08
6030.000000 2.24405000e+08
6050.000000 2.21998000e+08
6070.000000 2.19924000e+08
6090.000000 2.17344000e+08
6110.000000 2.14743000e+08
6130.000000 2.12412000e+08
6150.000000 2.08582000e+08
6170.000000 2.06579000e+08
6190.000000 2.04695000e+08
6210.000000 2.02578000e+08
6230.000000 2.00348000e+08
6250.000000 1.97399000e+08
6270.000000 1.95346000e+08
6290.000000 1.93316000e+08
6310.000000 1.90872000e+08
6330.000000 1.89000000e+08
6350.000000 1.86083000e+08
6370.000000 1.84517000e+08
6390.000000 1.82395000e+08
6410.000000 1.80397000e+08
6430.000000 1.78538000e+08
6450.000000 1.76418000e+08
6470.000000 1.73763000e+08
6490.000000 1.71880000e+08
6510.000000 1.70390000e+08
6530.000000 1.68023000e+08
6550.000000 1.63433000e+08
6570.000000 1.46250000e+08
6590.000000 1.60969000e+08
6610.000000 1.60842000e+08
6630.000000 1.59376000e+08
6650.000000 1.57532000e+08
6670.000000 1.54743000e+08
6690.000000 1.53121000e+08
6710.000000 1.52644000e+08
6730.000000 1.50524000e+08
6750.000000 1.49427000e+08
6770.000000 1.47822000e+08
6790.000000 1.44795000e+08
6810.000000 1.44344000e+08
6830.000000 1.42797000e+08
6850.000000 1.41499000e+08
6870.000000 1.39966000e+08
6890.000000 1.38297000e+08
6910.000000 1.36669000e+08
6930.000000 1.35552000e+08
6950.000000 1.34165000e+08
6970.000000 1.32768000e+08
6990.000000 1.31315000e+08
7010.000000 1.29938000e+08
7030.000000 1.28560000e+08
7050.000000 1.27225000e+08
7070.000000 1.23936000e+08
7090.000000 1.24609000e+08
7110.000000 1.22054000e+08
7130.000000 1.20948000e+08
7150.000000 1.20736000e+08
7170.000000 1.19558000e+08
7190.000000 1.18384000e+08
7210.000000 1.17162000e+08
7230.000000 1.14065000e+08
7250.000000 1.14533000e+08
7270.000000 1.13597000e+08
7290.000000 1.11571000e+08
7310.000000 1.11286000e+08
7330.000000 1.10118000e+08
7350.000000 1.09094000e+08
7370.000000 1.08025000e+08
7390.000000 1.06944000e+08
7410.000000 1.05880000e+08
7430.000000 1.04772000e+08
7450.000000 1.03762000e+08
7470.000000 1.02201000e+08
7490.000000 1.01663000e+08
7510.000000 1.00655000e+08
7530.000000 9.96091000e+07
7550.000000 9.87715000e+07
7570.000000 9.78098000e+07
7590.000000 9.68372000e+07
7610.000000 9.57630000e+07
7630.000000 9.49445000e+07
7650.000000 9.40431000e+07
7670.000000 9.31435000e+07
7690.000000 9.22392000e+07
7710.000000 9.13176000e+07
7730.000000 9.04170000e+07
7750.000000 8.96248000e+07
7770.000000 8.83153000e+07
7790.000000 8.79307000e+07
7810.000000 8.70362000e+07
7830.000000 8.62726000e+07
7850.000000 8.54423000e+07
7870.000000 8.45403000e+07
7890.000000 8.35313000e+07
7910.000000 8.29468000e+07
7930.000000 8.20976000e+07
7950.000000 8.12678000e+07
7970.000000 8.05521000e+07
7990.000000 7.97362000e+07
8010.000000 7.90567000e+07
8030.000000 7.83537000e+07
8050.000000 7.77033000e+07
8070.000000 7.70294000e+07
8090.000000 7.62115000e+07
8110.000000 7.52003000e+07
8130.000000 7.49675000e+07
8150.000000 7.41747000e+07
8170.000000 7.36596000e+07
8190.000000 7.26319000e+07
8210.000000 7.18146000e+07
8230.000000 7.10544000e+07
8250.000000 7.08265000e+07
8270.000000 6.94763000e+07
8290.000000 6.94485000e+07
8310.000000 6.88800000e+07
8330.000000 6.82891000e+07
8350.000000 6.73626000e+07
8370.000000 6.68582000e+07
8390.000000 6.64167000e+07
8410.000000 6.57550000e+07
8430.000000 6.51359000e+07
8450.000000 6.40312000e+07
8470.000000 6.37449000e+07
8490.000000 6.34554000e+07
8510.000000 6.22836000e+07
8530.000000 6.25821000e+07
8550.000000 6.04035000e+07
8570.000000 6.22865000e+07
8590.000000 5.95053000e+07
8610.000000 5.91123000e+07
8630.000000 6.12464000e+07
8650.000000 5.95889000e+07
8670.000000 5.53149000e+07
8690.000000 5.97600000e+07
8710.000000 5.98086000e+07
8730.000000 5.82299000e+07
8750.000000 5.27384000e+07
8770.000000 5.67399000e+07
8790.000000 5.79350000e+07
8810.000000 5.75412000e+07
8830.000000 5.68750000e+07
8850.000000 5.40786000e+07
8870.000000 5.00857000e+07
8890.000000 5.52090000e+07
8910.000000 5.51465000e+07
8930.000000 5.46871000e+07
8950.000000 5.44289000e+07
8970.000000 5.38821000e+07
8990.000000 5.26777000e+07
9010.000000 4.74925000e+07
9030.000000 4.99482000e+07
9050.000000 5.19264000e+07
9070.000000 5.12809000e+07
9090.000000 5.11512000e+07
9110.000000 5.08996000e+07
9130.000000 5.05142000e+07
9150.000000 5.00956000e+07
9170.000000 4.95503000e+07
9190.000000 4.91073000e+07
9210.000000 4.74242000e+07
9230.000000 4.23078000e+07
9250.000000 4.67332000e+07
9270.000000 4.71893000e+07
9290.000000 4.72570000e+07
9310.000000 4.66891000e+07
9330.000000 4.63593000e+07
9350.000000 4.61138000e+07
9370.000000 4.57712000e+07
9390.000000 4.54141000e+07
9410.000000 4.49660000e+07
9430.000000 4.46738000e+07
9450.000000 4.42993000e+07
9470.000000 4.37385000e+07
9490.000000 4.35627000e+07
9510.000000 4.27548000e+07
9530.000000 4.14154000e+07
9550.000000 3.73258000e+07
9570.000000 4.15129000e+07
9590.000000 4.17987000e+07
9610.000000 4.13842000e+07
9630.000000 4.09566000e+07
9650.000000 4.09569000e+07
9670.000000 4.06305000e+07
9690.000000 4.02744000e+07
9710.000000 3.98214000e+07
9730.000000 3.96821000e+07
9750.000000 3.93618000e+07
9770.000000 3.90800000e+07
9790.000000 3.87656000e+07
9810.000000 3.84237000e+07
9830.000000 3.81708000e+07
9850.000000 3.78673000e+07
9870.000000 3.75411000e+07
9890.000000 3.71992000e+07
9910.000000 3.67618000e+07
9930.000000 3.67297000e+07
9950.000000 3.64383000e+07
9970.000000 3.61244000e+07
9990.000000 3.58851000e+07
10025.000000 3.43286000e+07
10075.000000 3.31897000e+07
10125.000000 3.39780000e+07
10175.000000 3.34797000e+07
10225.000000 3.28490000e+07
10275.000000 3.22549000e+07
10325.000000 3.15535000e+07
10375.000000 3.10901000e+07
10425.000000 3.05275000e+07
10475.000000 2.99741000e+07
10525.000000 2.94199000e+07
10575.000000 2.89059000e+07
10625.000000 2.83909000e+07
10675.000000 2.78316000e+07
10725.000000 2.73942000e+07
10775.000000 2.69096000e+07
10825.000000 2.61391000e+07
10875.000000 2.59516000e+07
10925.000000 2.38640000e+07
10975.000000 2.47527000e+07
11025.000000 2.45138000e+07
11075.000000 2.42214000e+07
11125.000000 2.38142000e+07
11175.000000 2.34115000e+07
11225.000000 2.30043000e+07
11275.000000 2.25980000e+07
11325.000000 2.22018000e+07
11375.000000 2.18711000e+07
11425.000000 2.14922000e+07
11475.000000 2.11534000e+07
11525.000000 2.08057000e+07
11575.000000 2.04459000e+07
11625.000000 2.01201000e+07
11675.000000 1.97829000e+07
11725.000000 1.94780000e+07
11775.000000 1.91543000e+07
11825.000000 1.88515000e+07
11875.000000 1.85515000e+07
11925.000000 1.82558000e+07
11975.000000 1.78228000e+07
12025.000000 1.76781000e+07
12075.000000 1.74007000e+07
12125.000000 1.71245000e+07
12175.000000 1.68566000e+07
12225.000000 1.65937000e+07
12275.000000 1.63363000e+07
12325.000000 1.60805000e+07
12375.000000 1.58330000e+07
12425.000000 1.55921000e+07
12475.000000 1.53366000e+07
12525.000000 1.50780000e+07
12575.000000 1.48752000e+07
12625.000000 1.46541000e+07
12675.000000 1.44411000e+07
12725.000000 1.42243000e+07
12775.000000 1.38147000e+07
12825.000000 1.29292000e+07
12875.000000 1.35551000e+07
12925.000000 1.33949000e+07
12975.000000 1.31149000e+07
13025.000000 1.29977000e+07
13075.000000 1.28145000e+07
