# Kurucz ODFNEW /NOVER, alpha: 0.0 (2003)
# teff = 20000 K (value for the effective temperature for the model. Temperatures are given in K)
# logg = 4.5 log(cm/s2) (value for Log(G) for the model.)
# lh = 1.25  (l/Hp where l is the  mixing length of the convective element and Hp is the pressure scale height)
# meta = -2.5  (value for the Metallicity for the model.)
# vtur = 2 km/s (Microturbulence velocity)
# alpha = 0  (Alpha)
#
# column 1: WAVELENGTH (ANGSTROM), Wavelength in Angstrom
# column 2: FLUX (ERG/CM2/S/A), Flux in erg/cm2/s/A
147.200000 5.43522000e-21
151.000000 3.80662000e-20
155.200000 2.94132000e-19
158.800000 1.56100000e-18
162.000000 6.48195000e-18
166.000000 3.56591000e-17
170.300000 2.04406000e-16
173.400000 6.82779000e-16
176.800000 2.44273000e-15
180.200000 8.33428000e-15
181.700000 1.41164000e-14
186.100000 6.30700000e-14
191.000000 3.07871000e-13
193.900000 7.57242000e-13
198.400000 2.90501000e-12
201.800000 7.70920000e-12
205.000000 1.87500000e-11
210.500000 8.09432000e-11
216.200000 3.40280000e-10
219.800000 8.10273000e-10
223.000000 1.70967000e-09
226.800000 4.03519000e-09
230.000000 9.08566000e-09
234.000000 2.15913000e-08
240.000000 7.23046000e-08
246.500000 2.49658000e-07
252.400000 7.26661000e-07
256.800000 1.55562000e-06
260.000000 2.67049000e-06
264.000000 5.13468000e-06
268.500000 1.04513000e-05
273.500000 2.23709000e-05
278.500000 4.65584000e-05
284.000000 1.01034000e-04
290.000000 2.27077000e-04
296.000000 4.92927000e-04
301.000000 9.17655000e-04
308.000000 2.11096000e-03
318.000000 6.50198000e-03
328.000000 1.86040000e-02
338.000000 4.98166000e-02
348.000000 1.25601000e-01
357.000000 2.75294000e-01
366.000000 5.79004000e-01
375.000000 1.17170000e+00
385.000000 2.45951000e+00
395.000000 4.95754000e+00
405.000000 9.62420000e+00
414.000000 1.69708000e+01
422.000000 2.74798000e+01
430.000000 4.36326000e+01
441.000000 7.99694000e+01
451.000000 1.34850000e+02
460.000000 2.11243000e+02
470.000000 3.40165000e+02
480.000000 5.35826000e+02
490.000000 8.26875000e+02
500.000000 1.25151000e+03
506.000000 8.61118000e+03
512.000000 2.40802000e+04
520.000000 3.12362000e+04
530.000000 4.64910000e+04
540.000000 5.45302000e+04
550.000000 7.96064000e+04
560.000000 1.01755000e+05
570.000000 1.29287000e+05
580.000000 1.40490000e+05
590.000000 1.92358000e+05
600.000000 2.49667000e+05
610.000000 3.06638000e+05
620.000000 3.72623000e+05
630.000000 4.50215000e+05
640.000000 5.38118000e+05
650.000000 6.43641000e+05
658.000000 7.37825000e+05
665.000000 8.28136000e+05
675.000000 9.70546000e+05
685.000000 1.13013000e+06
695.000000 1.32153000e+06
705.000000 1.52799000e+06
716.000000 1.78232000e+06
726.000000 2.04105000e+06
735.000000 2.29939000e+06
745.000000 2.61438000e+06
755.000000 2.95997000e+06
765.000000 3.33673000e+06
775.000000 3.75064000e+06
785.000000 4.19961000e+06
795.000000 4.68527000e+06
805.000000 5.21140000e+06
815.000000 5.77664000e+06
825.000000 6.38800000e+06
835.000000 6.98643000e+06
845.000000 7.73798000e+06
855.000000 8.47277000e+06
865.000000 9.27896000e+06
875.000000 1.01216000e+07
885.000000 1.10192000e+07
895.000000 1.19637000e+07
905.000000 1.28659000e+07
915.000000 2.22998000e+07
925.000000 8.77601000e+07
935.000000 2.66487000e+08
945.000000 1.64103000e+09
955.000000 4.48469000e+09
965.000000 6.49954000e+09
975.000000 1.88019000e+09
985.000000 1.08741000e+10
995.000000 1.20661000e+10
1005.000000 1.21561000e+10
1015.000000 8.61571000e+09
1025.000000 9.17561000e+08
1035.000000 7.08145000e+09
1045.000000 1.16466000e+10
1055.000000 1.19227000e+10
1065.000000 1.13495000e+10
1075.000000 1.16139000e+10
1085.000000 1.09199000e+10
1095.000000 1.12831000e+10
1105.000000 1.07879000e+10
1115.000000 1.06538000e+10
1125.000000 1.01783000e+10
1135.000000 1.02392000e+10
1145.000000 9.86547000e+09
1155.000000 9.88910000e+09
1165.000000 9.69147000e+09
1175.000000 8.81448000e+09
1185.000000 9.10525000e+09
1195.000000 8.04731000e+09
1205.000000 5.47130000e+09
1215.000000 7.06286000e+08
1225.000000 4.74532000e+09
1235.000000 7.58016000e+09
1245.000000 7.98070000e+09
1255.000000 7.92411000e+09
1265.000000 7.78873000e+09
1275.000000 7.80677000e+09
1285.000000 7.67524000e+09
1295.000000 7.26288000e+09
1305.000000 7.14957000e+09
1315.000000 7.26760000e+09
1325.000000 7.04544000e+09
1335.000000 6.78979000e+09
1345.000000 6.86475000e+09
1355.000000 6.75847000e+09
1365.000000 6.61957000e+09
1375.000000 6.50351000e+09
1385.000000 6.39658000e+09
1395.000000 6.21286000e+09
1405.000000 6.13561000e+09
1415.000000 6.06030000e+09
1425.000000 5.96849000e+09
1435.000000 5.86821000e+09
1442.000000 5.80359000e+09
1447.000000 5.75239000e+09
1455.000000 5.67152000e+09
1465.000000 5.57101000e+09
1475.000000 5.47962000e+09
1485.000000 5.38301000e+09
1495.000000 5.29472000e+09
1505.000000 5.19315000e+09
1512.000000 5.13150000e+09
1517.000000 5.09757000e+09
1525.000000 5.02203000e+09
1535.000000 4.90197000e+09
1545.000000 4.85892000e+09
1555.000000 4.76095000e+09
1565.000000 4.70569000e+09
1575.000000 4.64202000e+09
1585.000000 4.56863000e+09
1595.000000 4.50249000e+09
1605.000000 4.40342000e+09
1615.000000 4.33259000e+09
1625.000000 4.28756000e+09
1635.000000 4.22541000e+09
1645.000000 4.14733000e+09
1655.000000 4.08979000e+09
1665.000000 4.04272000e+09
1672.000000 3.93832000e+09
1677.000000 3.96873000e+09
1685.000000 3.92211000e+09
1695.000000 3.85866000e+09
1705.000000 3.79487000e+09
1715.000000 3.73370000e+09
1725.000000 3.67674000e+09
1735.000000 3.63410000e+09
1745.000000 3.57661000e+09
1755.000000 3.53340000e+09
1765.000000 3.44063000e+09
1775.000000 3.42481000e+09
1785.000000 3.37803000e+09
1795.000000 3.33582000e+09
1805.000000 3.28948000e+09
1815.000000 3.23949000e+09
1825.000000 3.19707000e+09
1835.000000 3.15158000e+09
1845.000000 3.09538000e+09
1855.000000 3.01491000e+09
1865.000000 2.98245000e+09
1875.000000 2.97697000e+09
1885.000000 2.91727000e+09
1895.000000 2.85792000e+09
1905.000000 2.85249000e+09
1915.000000 2.78816000e+09
1925.000000 2.75246000e+09
1935.000000 2.72831000e+09
1945.000000 2.70570000e+09
1955.000000 2.64902000e+09
1967.000000 2.62935000e+09
1976.000000 2.60478000e+09
1984.000000 2.56697000e+09
1995.000000 2.51536000e+09
2005.000000 2.50439000e+09
2015.000000 2.47644000e+09
2025.000000 2.44763000e+09
2035.000000 2.41281000e+09
2045.000000 2.38207000e+09
2055.000000 2.33093000e+09
2065.000000 2.31044000e+09
2074.000000 2.30111000e+09
2078.000000 2.26801000e+09
2085.000000 2.26537000e+09
2095.000000 2.22972000e+09
2105.000000 2.21071000e+09
2115.000000 2.18581000e+09
2125.000000 2.16128000e+09
2135.000000 2.13406000e+09
2145.000000 2.10709000e+09
2155.000000 2.08287000e+09
2165.000000 2.05676000e+09
2175.000000 2.03184000e+09
2185.000000 2.00839000e+09
2195.000000 1.98544000e+09
2205.000000 1.96104000e+09
2215.000000 1.93716000e+09
2225.000000 1.91362000e+09
2235.000000 1.89276000e+09
2245.000000 1.87071000e+09
2255.000000 1.84808000e+09
2265.000000 1.82761000e+09
2275.000000 1.80597000e+09
2285.000000 1.78594000e+09
2295.000000 1.76140000e+09
2305.000000 1.74459000e+09
2315.000000 1.72407000e+09
2325.000000 1.70516000e+09
2335.000000 1.68340000e+09
2345.000000 1.66016000e+09
2355.000000 1.64711000e+09
2365.000000 1.62567000e+09
2375.000000 1.60967000e+09
2385.000000 1.58706000e+09
2395.000000 1.57134000e+09
2405.000000 1.55491000e+09
2415.000000 1.53761000e+09
2425.000000 1.52380000e+09
2435.000000 1.50623000e+09
2445.000000 1.48971000e+09
2455.000000 1.47472000e+09
2465.000000 1.45770000e+09
2475.000000 1.44256000e+09
2485.000000 1.42701000e+09
2495.000000 1.40687000e+09
2505.000000 1.39681000e+09
2513.000000 1.38280000e+09
2518.000000 1.37755000e+09
2525.000000 1.36632000e+09
2535.000000 1.35040000e+09
2545.000000 1.33736000e+09
2555.000000 1.32490000e+09
2565.000000 1.30995000e+09
2575.000000 1.29746000e+09
2585.000000 1.28361000e+09
2595.000000 1.26999000e+09
2605.000000 1.26303000e+09
2615.000000 1.25113000e+09
2625.000000 1.23888000e+09
2635.000000 1.22472000e+09
2645.000000 1.21370000e+09
2655.000000 1.19982000e+09
2665.000000 1.18495000e+09
2675.000000 1.17231000e+09
2685.000000 1.16673000e+09
2695.000000 1.14746000e+09
2705.000000 1.14321000e+09
2715.000000 1.13148000e+09
2725.000000 1.11208000e+09
2735.000000 1.10915000e+09
2745.000000 1.09474000e+09
2755.000000 1.08442000e+09
2765.000000 1.06812000e+09
2775.000000 1.06601000e+09
2785.000000 1.05536000e+09
2795.000000 1.03528000e+09
2805.000000 1.03074000e+09
2815.000000 1.02495000e+09
2825.000000 1.00548000e+09
2835.000000 9.99803000e+08
2845.000000 9.95300000e+08
2855.000000 9.85844000e+08
2865.000000 9.76496000e+08
2875.000000 9.67071000e+08
2885.000000 9.57889000e+08
2895.000000 9.48811000e+08
2910.000000 9.35362000e+08
2930.000000 9.17589000e+08
2950.000000 8.94973000e+08
2970.000000 8.83900000e+08
2990.000000 8.67521000e+08
3010.000000 8.51665000e+08
3030.000000 8.36151000e+08
3050.000000 8.20928000e+08
3070.000000 8.06110000e+08
3090.000000 7.91644000e+08
3110.000000 7.77483000e+08
3130.000000 7.64272000e+08
3150.000000 7.50725000e+08
3170.000000 7.37496000e+08
3190.000000 7.19614000e+08
3210.000000 7.11735000e+08
3230.000000 6.99301000e+08
3250.000000 6.87190000e+08
3270.000000 6.75921000e+08
3290.000000 6.63795000e+08
3310.000000 6.53115000e+08
3330.000000 6.42100000e+08
3350.000000 6.30596000e+08
3370.000000 6.20778000e+08
3390.000000 6.10426000e+08
3410.000000 6.00339000e+08
3430.000000 5.89195000e+08
3450.000000 5.78332000e+08
3470.000000 5.69933000e+08
3490.000000 5.60667000e+08
3510.000000 5.52216000e+08
3530.000000 5.43890000e+08
3550.000000 5.35089000e+08
3570.000000 5.28371000e+08
3590.000000 5.17794000e+08
3610.000000 5.10685000e+08
3630.000000 5.01585000e+08
3640.000000 4.99885000e+08
3650.000000 4.95991000e+08
3670.000000 4.90180000e+08
3690.000000 4.80703000e+08
3710.000000 4.64750000e+08
3730.000000 4.44047000e+08
3750.000000 4.71471000e+08
3770.000000 4.76554000e+08
3790.000000 5.19927000e+08
3810.000000 5.55566000e+08
3830.000000 4.70421000e+08
3850.000000 5.85484000e+08
3870.000000 6.07797000e+08
3890.000000 4.38046000e+08
3910.000000 6.00279000e+08
3930.000000 6.03576000e+08
3950.000000 5.83547000e+08
3970.000000 4.10363000e+08
3990.000000 5.57092000e+08
4010.000000 5.66403000e+08
4030.000000 5.28923000e+08
4050.000000 5.56395000e+08
4070.000000 5.42958000e+08
4090.000000 4.73882000e+08
4110.000000 3.98873000e+08
4130.000000 5.07418000e+08
4150.000000 5.07570000e+08
4170.000000 5.04988000e+08
4190.000000 4.99020000e+08
4210.000000 4.91038000e+08
4230.000000 4.83184000e+08
4250.000000 4.75456000e+08
4270.000000 4.67087000e+08
4290.000000 4.58464000e+08
4310.000000 4.46147000e+08
4330.000000 3.81072000e+08
4350.000000 3.41679000e+08
4370.000000 4.23248000e+08
4390.000000 4.09431000e+08
4410.000000 4.18201000e+08
4430.000000 4.10594000e+08
4450.000000 4.06074000e+08
4470.000000 3.78164000e+08
4490.000000 3.93322000e+08
4510.000000 3.88248000e+08
4530.000000 3.82404000e+08
4550.000000 3.76666000e+08
4570.000000 3.71049000e+08
4590.000000 3.65534000e+08
4610.000000 3.60118000e+08
4630.000000 3.54799000e+08
4650.000000 3.49576000e+08
4670.000000 3.44463000e+08
4690.000000 3.39442000e+08
4710.000000 3.30061000e+08
4730.000000 3.29617000e+08
4750.000000 3.24810000e+08
4770.000000 3.20221000e+08
4790.000000 3.15089000e+08
4810.000000 3.09543000e+08
4830.000000 3.01592000e+08
4850.000000 2.64611000e+08
4870.000000 2.30960000e+08
4890.000000 2.86469000e+08
4910.000000 2.87390000e+08
4930.000000 2.77034000e+08
4950.000000 2.81596000e+08
4970.000000 2.77855000e+08
4990.000000 2.74028000e+08
5010.000000 2.66711000e+08
5030.000000 2.66515000e+08
5050.000000 2.61277000e+08
5070.000000 2.59322000e+08
5090.000000 2.55805000e+08
5110.000000 2.52349000e+08
5130.000000 2.48940000e+08
5150.000000 2.45604000e+08
5170.000000 2.42312000e+08
5190.000000 2.39091000e+08
5210.000000 2.35899000e+08
5230.000000 2.32790000e+08
5250.000000 2.29721000e+08
5270.000000 2.26692000e+08
5290.000000 2.23729000e+08
5310.000000 2.20805000e+08
5330.000000 2.17931000e+08
5350.000000 2.15107000e+08
5370.000000 2.12318000e+08
5390.000000 2.09592000e+08
5410.000000 2.06899000e+08
5430.000000 2.04241000e+08
5450.000000 2.01641000e+08
5470.000000 1.99074000e+08
5490.000000 1.96551000e+08
5510.000000 1.94060000e+08
5530.000000 1.91624000e+08
5550.000000 1.89218000e+08
5570.000000 1.86854000e+08
5590.000000 1.84518000e+08
5610.000000 1.82223000e+08
5630.000000 1.79968000e+08
5650.000000 1.77741000e+08
5670.000000 1.75551000e+08
5690.000000 1.73400000e+08
5710.000000 1.71275000e+08
5730.000000 1.69186000e+08
5750.000000 1.67134000e+08
5770.000000 1.65106000e+08
5790.000000 1.63113000e+08
5810.000000 1.61144000e+08
5830.000000 1.59209000e+08
5850.000000 1.57308000e+08
5870.000000 1.50541000e+08
5890.000000 1.53289000e+08
5910.000000 1.51757000e+08
5930.000000 1.49964000e+08
5950.000000 1.48191000e+08
5970.000000 1.46449000e+08
5990.000000 1.44738000e+08
6010.000000 1.43046000e+08
6030.000000 1.41384000e+08
6050.000000 1.39741000e+08
6070.000000 1.38126000e+08
6090.000000 1.36530000e+08
6110.000000 1.34961000e+08
6130.000000 1.33410000e+08
6150.000000 1.31886000e+08
6170.000000 1.30390000e+08
6190.000000 1.28909000e+08
6210.000000 1.27445000e+08
6230.000000 1.26007000e+08
6250.000000 1.24585000e+08
6270.000000 1.23187000e+08
6290.000000 1.21805000e+08
6310.000000 1.20448000e+08
6330.000000 1.19105000e+08
6350.000000 1.17767000e+08
6370.000000 1.16472000e+08
6390.000000 1.15190000e+08
6410.000000 1.13923000e+08
6430.000000 1.12668000e+08
6450.000000 1.11436000e+08
6470.000000 1.10218000e+08
6490.000000 1.08922000e+08
6510.000000 1.07409000e+08
6530.000000 1.05427000e+08
6550.000000 9.79352000e+07
6570.000000 8.52642000e+07
6590.000000 1.00836000e+08
6610.000000 1.01546000e+08
6630.000000 1.00805000e+08
6650.000000 1.00030000e+08
6670.000000 9.79572000e+07
6690.000000 9.69515000e+07
6710.000000 9.68848000e+07
6730.000000 9.58690000e+07
6750.000000 9.48552000e+07
6770.000000 9.38599000e+07
6790.000000 9.28829000e+07
6810.000000 9.19157000e+07
6830.000000 9.09583000e+07
6850.000000 9.00184000e+07
6870.000000 8.90880000e+07
6890.000000 8.81668000e+07
6910.000000 8.72627000e+07
6930.000000 8.63675000e+07
6950.000000 8.54812000e+07
6970.000000 8.46113000e+07
6990.000000 8.37500000e+07
7010.000000 8.28972000e+07
7030.000000 8.20603000e+07
7050.000000 8.12315000e+07
7070.000000 7.92727000e+07
7090.000000 7.96056000e+07
7110.000000 7.88081000e+07
7130.000000 7.80183000e+07
7150.000000 7.72434000e+07
7170.000000 7.64687000e+07
7190.000000 7.57159000e+07
7210.000000 7.49703000e+07
7230.000000 7.42174000e+07
7250.000000 7.35003000e+07
7270.000000 7.27757000e+07
7290.000000 7.16043000e+07
7310.000000 7.13540000e+07
7330.000000 7.06636000e+07
7350.000000 6.99797000e+07
7370.000000 6.93015000e+07
7390.000000 6.86310000e+07
7410.000000 6.79694000e+07
7430.000000 6.73153000e+07
7450.000000 6.66747000e+07
7470.000000 6.60360000e+07
7490.000000 6.54051000e+07
7510.000000 6.47686000e+07
7530.000000 6.41666000e+07
7550.000000 6.35581000e+07
7570.000000 6.29571000e+07
7590.000000 6.23628000e+07
7610.000000 6.17759000e+07
7630.000000 6.11962000e+07
7650.000000 6.06230000e+07
7670.000000 6.00563000e+07
7690.000000 5.94965000e+07
7710.000000 5.89429000e+07
7730.000000 5.83962000e+07
7750.000000 5.78556000e+07
7770.000000 5.73173000e+07
7790.000000 5.67936000e+07
7810.000000 5.62542000e+07
7830.000000 5.57558000e+07
7850.000000 5.52795000e+07
7870.000000 5.47745000e+07
7890.000000 5.42708000e+07
7910.000000 5.37836000e+07
7930.000000 5.32958000e+07
7950.000000 5.28133000e+07
7970.000000 5.23256000e+07
7990.000000 5.18651000e+07
8010.000000 5.13998000e+07
8030.000000 5.09390000e+07
8050.000000 5.04839000e+07
8070.000000 5.00332000e+07
8090.000000 4.95513000e+07
8110.000000 4.91165000e+07
8130.000000 4.87041000e+07
8150.000000 4.82328000e+07
8170.000000 4.78485000e+07
8190.000000 4.73966000e+07
8210.000000 4.69341000e+07
8230.000000 4.66078000e+07
8250.000000 4.62210000e+07
8270.000000 4.56964000e+07
8290.000000 4.54203000e+07
8310.000000 4.50491000e+07
8330.000000 4.46512000e+07
8350.000000 4.41388000e+07
8370.000000 4.38523000e+07
8390.000000 4.35203000e+07
8410.000000 4.31272000e+07
8430.000000 4.27208000e+07
8450.000000 4.21912000e+07
8470.000000 4.18976000e+07
8490.000000 4.15395000e+07
8510.000000 4.10266000e+07
8530.000000 4.08619000e+07
8550.000000 3.98371000e+07
8570.000000 4.05537000e+07
8590.000000 3.89467000e+07
8610.000000 3.86720000e+07
8630.000000 3.99740000e+07
8650.000000 3.86666000e+07
8670.000000 3.59785000e+07
8690.000000 3.89036000e+07
8710.000000 3.93950000e+07
8730.000000 3.79889000e+07
8750.000000 3.36846000e+07
8770.000000 3.65072000e+07
8790.000000 3.84330000e+07
8810.000000 3.84767000e+07
8830.000000 3.77382000e+07
8850.000000 3.46083000e+07
8870.000000 3.16828000e+07
8890.000000 3.59983000e+07
8910.000000 3.69516000e+07
8930.000000 3.68982000e+07
8950.000000 3.66832000e+07
8970.000000 3.61518000e+07
8990.000000 3.46542000e+07
9010.000000 3.00794000e+07
9030.000000 3.15532000e+07
9050.000000 3.44028000e+07
9070.000000 3.45539000e+07
9090.000000 3.46491000e+07
9110.000000 3.45194000e+07
9130.000000 3.42635000e+07
9150.000000 3.39510000e+07
9170.000000 3.34975000e+07
9190.000000 3.29049000e+07
9210.000000 3.08950000e+07
9230.000000 2.66992000e+07
9250.000000 3.01194000e+07
9270.000000 3.17677000e+07
9290.000000 3.19629000e+07
9310.000000 3.17344000e+07
9330.000000 3.16474000e+07
9350.000000 3.14355000e+07
9370.000000 3.12272000e+07
9390.000000 3.09806000e+07
9410.000000 3.07329000e+07
9430.000000 3.04701000e+07
9450.000000 3.01734000e+07
9470.000000 2.97285000e+07
9490.000000 2.95180000e+07
9510.000000 2.87120000e+07
9530.000000 2.68163000e+07
9550.000000 2.35780000e+07
9570.000000 2.69809000e+07
9590.000000 2.80892000e+07
9610.000000 2.81441000e+07
9630.000000 2.79827000e+07
9650.000000 2.79331000e+07
9670.000000 2.77690000e+07
9690.000000 2.75333000e+07
9710.000000 2.72837000e+07
9730.000000 2.71363000e+07
9750.000000 2.69295000e+07
9770.000000 2.67243000e+07
9790.000000 2.65213000e+07
9810.000000 2.63201000e+07
9830.000000 2.61211000e+07
9850.000000 2.59235000e+07
9870.000000 2.57280000e+07
9890.000000 2.55343000e+07
9910.000000 2.53404000e+07
9930.000000 2.51517000e+07
9950.000000 2.49046000e+07
9970.000000 2.46767000e+07
9990.000000 2.43964000e+07
10025.000000 2.26647000e+07
10075.000000 2.18376000e+07
10125.000000 2.32092000e+07
10175.000000 2.29490000e+07
10225.000000 2.25384000e+07
10275.000000 2.21387000e+07
10325.000000 2.16693000e+07
10375.000000 2.13510000e+07
10425.000000 2.09703000e+07
10475.000000 2.05979000e+07
10525.000000 2.02339000e+07
10575.000000 1.98780000e+07
10625.000000 1.95298000e+07
10675.000000 1.91612000e+07
10725.000000 1.88559000e+07
10775.000000 1.85297000e+07
10825.000000 1.79995000e+07
10875.000000 1.77277000e+07
10925.000000 1.57401000e+07
10975.000000 1.65475000e+07
11025.000000 1.68500000e+07
11075.000000 1.66914000e+07
11125.000000 1.64355000e+07
11175.000000 1.61612000e+07
11225.000000 1.58871000e+07
11275.000000 1.56292000e+07
11325.000000 1.53716000e+07
11375.000000 1.51192000e+07
11425.000000 1.48720000e+07
11475.000000 1.46296000e+07
11525.000000 1.43924000e+07
11575.000000 1.41600000e+07
11625.000000 1.39320000e+07
11675.000000 1.37090000e+07
11725.000000 1.34901000e+07
11775.000000 1.32758000e+07
11825.000000 1.30657000e+07
11875.000000 1.28597000e+07
11925.000000 1.26576000e+07
11975.000000 1.23595000e+07
12025.000000 1.22655000e+07
12075.000000 1.20753000e+07
12125.000000 1.18885000e+07
12175.000000 1.17054000e+07
12225.000000 1.15259000e+07
12275.000000 1.13500000e+07
12325.000000 1.11772000e+07
12375.000000 1.10079000e+07
12425.000000 1.08416000e+07
12475.000000 1.06784000e+07
12525.000000 1.05028000e+07
12575.000000 1.03613000e+07
12625.000000 1.02070000e+07
12675.000000 1.00540000e+07
12725.000000 9.86856000e+06
12775.000000 9.50384000e+06
12825.000000 8.61999000e+06
12875.000000 9.32610000e+06
12925.000000 9.31001000e+06
12975.000000 9.15224000e+06
13025.000000 9.07212000e+06
13075.000000 8.94182000e+06
