# Kurucz ODFNEW /NOVER, alpha: 0.0 (2003)
# teff = 22000 K (value for the effective temperature for the model. Temperatures are given in K)
# logg = 3 log(cm/s2) (value for Log(G) for the model.)
# lh = 1.25  (l/Hp where l is the  mixing length of the convective element and Hp is the pressure scale height)
# meta = -2.5  (value for the Metallicity for the model.)
# vtur = 2 km/s (Microturbulence velocity)
# alpha = 0  (Alpha)
#
# column 1: WAVELENGTH (ANGSTROM), Wavelength in Angstrom
# column 2: FLUX (ERG/CM2/S/A), Flux in erg/cm2/s/A
147.200000 8.70563000e-17
151.000000 5.12214000e-16
155.200000 3.27196000e-15
158.800000 1.47913000e-14
162.000000 5.33413000e-14
166.000000 2.46632000e-13
170.300000 1.17690000e-12
173.400000 3.45386000e-12
176.800000 1.07520000e-11
180.200000 3.20090000e-11
181.700000 5.11003000e-11
186.100000 1.92579000e-10
191.000000 7.82735000e-10
193.900000 1.73338000e-09
198.400000 5.67220000e-09
201.800000 1.33908000e-08
205.000000 2.92437000e-08
210.500000 1.05638000e-07
216.200000 3.71890000e-07
219.800000 7.94756000e-07
223.000000 1.52763000e-06
226.800000 3.23615000e-06
230.000000 1.05755000e-05
234.000000 2.39739000e-05
240.000000 6.64509000e-05
246.500000 1.89647000e-04
252.400000 4.70550000e-04
256.800000 8.72897000e-04
260.000000 1.41056000e-03
264.000000 2.44829000e-03
268.500000 4.45670000e-03
273.500000 8.46306000e-03
278.500000 1.57089000e-02
284.000000 3.01996000e-02
290.000000 5.97884000e-02
296.000000 1.14881000e-01
301.000000 1.93606000e-01
308.000000 3.84902000e-01
318.000000 1.01197000e+00
328.000000 2.45576000e+00
338.000000 5.63722000e+00
348.000000 1.22973000e+01
357.000000 2.38327000e+01
366.000000 4.46374000e+01
375.000000 8.08378000e+01
385.000000 1.51070000e+02
395.000000 2.72650000e+02
405.000000 4.76766000e+02
414.000000 7.68906000e+02
422.000000 1.15354000e+03
430.000000 1.70152000e+03
441.000000 2.83437000e+03
451.000000 4.39886000e+03
460.000000 6.41508000e+03
470.000000 9.57496000e+03
480.000000 1.40242000e+04
490.000000 2.01890000e+04
500.000000 2.85862000e+04
506.000000 1.89765000e+05
512.000000 5.31213000e+05
520.000000 6.59499000e+05
530.000000 9.26722000e+05
540.000000 1.00491000e+06
550.000000 1.43419000e+06
560.000000 1.72447000e+06
570.000000 2.09630000e+06
580.000000 2.10214000e+06
590.000000 2.77401000e+06
600.000000 3.47732000e+06
610.000000 4.10839000e+06
620.000000 4.76008000e+06
630.000000 5.53381000e+06
640.000000 6.27398000e+06
650.000000 7.24774000e+06
658.000000 8.12307000e+06
665.000000 8.87334000e+06
675.000000 9.88240000e+06
685.000000 1.10845000e+07
695.000000 1.27613000e+07
705.000000 1.41748000e+07
716.000000 1.59942000e+07
726.000000 1.77059000e+07
735.000000 1.95281000e+07
745.000000 2.16566000e+07
755.000000 2.38565000e+07
765.000000 2.61440000e+07
775.000000 2.86945000e+07
785.000000 3.13439000e+07
795.000000 3.40426000e+07
805.000000 3.69686000e+07
815.000000 3.99119000e+07
825.000000 4.32592000e+07
835.000000 4.59959000e+07
845.000000 4.99534000e+07
855.000000 5.34309000e+07
865.000000 5.74692000e+07
875.000000 6.16545000e+07
885.000000 6.58534000e+07
895.000000 7.01137000e+07
905.000000 7.38349000e+07
915.000000 1.73816000e+08
925.000000 3.03466000e+09
935.000000 6.76473000e+09
945.000000 1.20061000e+10
955.000000 1.33397000e+10
965.000000 1.53766000e+10
975.000000 8.51245000e+09
985.000000 1.50936000e+10
995.000000 1.44824000e+10
1005.000000 1.49819000e+10
1015.000000 1.43689000e+10
1025.000000 8.69082000e+09
1035.000000 1.35010000e+10
1045.000000 1.49502000e+10
1055.000000 1.45977000e+10
1065.000000 1.36423000e+10
1075.000000 1.40501000e+10
1085.000000 1.32861000e+10
1095.000000 1.38909000e+10
1105.000000 1.34333000e+10
1115.000000 1.33201000e+10
1125.000000 1.26798000e+10
1135.000000 1.30119000e+10
1145.000000 1.25962000e+10
1155.000000 1.27487000e+10
1165.000000 1.26057000e+10
1175.000000 1.12378000e+10
1185.000000 1.21814000e+10
1195.000000 1.16402000e+10
1205.000000 1.07216000e+10
1215.000000 6.03032000e+09
1225.000000 1.09804000e+10
1235.000000 1.12955000e+10
1245.000000 1.11022000e+10
1255.000000 1.10022000e+10
1265.000000 1.07760000e+10
1275.000000 1.07553000e+10
1285.000000 1.05853000e+10
1295.000000 9.94533000e+09
1305.000000 1.00187000e+10
1315.000000 1.01198000e+10
1325.000000 9.84641000e+09
1335.000000 9.52718000e+09
1345.000000 9.63614000e+09
1355.000000 9.55353000e+09
1365.000000 9.37342000e+09
1375.000000 9.22423000e+09
1385.000000 9.10820000e+09
1395.000000 8.73533000e+09
1405.000000 8.68719000e+09
1415.000000 8.68525000e+09
1425.000000 8.57009000e+09
1435.000000 8.47247000e+09
1442.000000 8.40364000e+09
1447.000000 8.33432000e+09
1455.000000 8.23172000e+09
1465.000000 8.09918000e+09
1475.000000 7.98368000e+09
1485.000000 7.86558000e+09
1495.000000 7.74705000e+09
1505.000000 7.59338000e+09
1512.000000 7.50544000e+09
1517.000000 7.47029000e+09
1525.000000 7.37657000e+09
1535.000000 7.15094000e+09
1545.000000 7.08124000e+09
1555.000000 6.93608000e+09
1565.000000 6.94432000e+09
1575.000000 6.87692000e+09
1585.000000 6.78232000e+09
1595.000000 6.69369000e+09
1605.000000 6.51505000e+09
1615.000000 6.42118000e+09
1625.000000 6.38377000e+09
1635.000000 6.31296000e+09
1645.000000 6.14122000e+09
1655.000000 6.14233000e+09
1665.000000 6.06700000e+09
1672.000000 5.98127000e+09
1677.000000 5.98932000e+09
1685.000000 5.91388000e+09
1695.000000 5.81034000e+09
1705.000000 5.71556000e+09
1715.000000 5.60594000e+09
1725.000000 5.54771000e+09
1735.000000 5.48507000e+09
1745.000000 5.40197000e+09
1755.000000 5.35123000e+09
1765.000000 5.21107000e+09
1775.000000 5.17105000e+09
1785.000000 5.12805000e+09
1795.000000 5.06628000e+09
1805.000000 5.01146000e+09
1815.000000 4.92013000e+09
1825.000000 4.86139000e+09
1835.000000 4.79747000e+09
1845.000000 4.66592000e+09
1855.000000 4.54929000e+09
1865.000000 4.53010000e+09
1875.000000 4.52895000e+09
1885.000000 4.37882000e+09
1895.000000 4.26779000e+09
1905.000000 4.31331000e+09
1915.000000 4.18979000e+09
1925.000000 4.12838000e+09
1935.000000 4.12687000e+09
1945.000000 4.10854000e+09
1955.000000 3.96391000e+09
1967.000000 3.98901000e+09
1976.000000 3.97727000e+09
1984.000000 3.88649000e+09
1995.000000 3.78242000e+09
2005.000000 3.80747000e+09
2015.000000 3.78499000e+09
2025.000000 3.75092000e+09
2035.000000 3.67576000e+09
2045.000000 3.62863000e+09
2055.000000 3.53569000e+09
2065.000000 3.49057000e+09
2074.000000 3.51771000e+09
2078.000000 3.44529000e+09
2085.000000 3.45001000e+09
2095.000000 3.37887000e+09
2105.000000 3.37312000e+09
2115.000000 3.34399000e+09
2125.000000 3.31493000e+09
2135.000000 3.27081000e+09
2145.000000 3.22024000e+09
2155.000000 3.19123000e+09
2165.000000 3.15434000e+09
2175.000000 3.11330000e+09
2185.000000 3.07761000e+09
2195.000000 3.04330000e+09
2205.000000 3.00599000e+09
2215.000000 2.97008000e+09
2225.000000 2.93256000e+09
2235.000000 2.89635000e+09
2245.000000 2.86545000e+09
2255.000000 2.82861000e+09
2265.000000 2.79781000e+09
2275.000000 2.76475000e+09
2285.000000 2.73303000e+09
2295.000000 2.67729000e+09
2305.000000 2.66829000e+09
2315.000000 2.63545000e+09
2325.000000 2.60530000e+09
2335.000000 2.57281000e+09
2345.000000 2.54447000e+09
2355.000000 2.51693000e+09
2365.000000 2.48714000e+09
2375.000000 2.45822000e+09
2385.000000 2.42904000e+09
2395.000000 2.40177000e+09
2405.000000 2.37467000e+09
2415.000000 2.34639000e+09
2425.000000 2.32202000e+09
2435.000000 2.29473000e+09
2445.000000 2.26938000e+09
2455.000000 2.24449000e+09
2465.000000 2.21894000e+09
2475.000000 2.19403000e+09
2485.000000 2.16921000e+09
2495.000000 2.11766000e+09
2505.000000 2.12096000e+09
2513.000000 2.09585000e+09
2518.000000 2.09015000e+09
2525.000000 2.07438000e+09
2535.000000 2.05125000e+09
2545.000000 2.02492000e+09
2555.000000 2.00656000e+09
2565.000000 1.98459000e+09
2575.000000 1.96381000e+09
2585.000000 1.94239000e+09
2595.000000 1.92135000e+09
2605.000000 1.91428000e+09
2615.000000 1.89345000e+09
2625.000000 1.87101000e+09
2635.000000 1.84598000e+09
2645.000000 1.82861000e+09
2655.000000 1.80759000e+09
2665.000000 1.78684000e+09
2675.000000 1.76687000e+09
2685.000000 1.75728000e+09
2695.000000 1.72762000e+09
2705.000000 1.72022000e+09
2715.000000 1.70210000e+09
2725.000000 1.67279000e+09
2735.000000 1.66627000e+09
2745.000000 1.64805000e+09
2755.000000 1.63125000e+09
2765.000000 1.60277000e+09
2775.000000 1.59838000e+09
2785.000000 1.58172000e+09
2795.000000 1.55837000e+09
2805.000000 1.54732000e+09
2815.000000 1.53355000e+09
2825.000000 1.50538000e+09
2835.000000 1.49647000e+09
2845.000000 1.48704000e+09
2855.000000 1.47193000e+09
2865.000000 1.45712000e+09
2875.000000 1.44236000e+09
2885.000000 1.42789000e+09
2895.000000 1.41351000e+09
2910.000000 1.39225000e+09
2930.000000 1.36462000e+09
2950.000000 1.32995000e+09
2970.000000 1.31150000e+09
2990.000000 1.28575000e+09
3010.000000 1.26070000e+09
3030.000000 1.23656000e+09
3050.000000 1.21278000e+09
3070.000000 1.18956000e+09
3090.000000 1.16652000e+09
3110.000000 1.14478000e+09
3130.000000 1.12443000e+09
3150.000000 1.10295000e+09
3170.000000 1.08199000e+09
3190.000000 1.05428000e+09
3210.000000 1.04225000e+09
3230.000000 1.02295000e+09
3250.000000 1.00405000e+09
3270.000000 9.86806000e+08
3290.000000 9.67570000e+08
3310.000000 9.51443000e+08
3330.000000 9.34341000e+08
3350.000000 9.16001000e+08
3370.000000 9.01312000e+08
3390.000000 8.85333000e+08
3410.000000 8.69729000e+08
3430.000000 8.50394000e+08
3450.000000 8.32619000e+08
3470.000000 8.20733000e+08
3490.000000 8.07333000e+08
3510.000000 7.97639000e+08
3530.000000 7.84333000e+08
3550.000000 7.71126000e+08
3570.000000 7.60884000e+08
3590.000000 7.44625000e+08
3610.000000 7.32639000e+08
3630.000000 7.19614000e+08
3640.000000 7.17457000e+08
3650.000000 7.09968000e+08
3670.000000 7.00097000e+08
3690.000000 6.75983000e+08
3710.000000 6.74818000e+08
3730.000000 6.76320000e+08
3750.000000 7.42154000e+08
3770.000000 7.41483000e+08
3790.000000 7.55185000e+08
3810.000000 7.79588000e+08
3830.000000 7.00456000e+08
3850.000000 7.81976000e+08
3870.000000 7.69034000e+08
3890.000000 6.72218000e+08
3910.000000 7.53479000e+08
3930.000000 7.37487000e+08
3950.000000 7.29072000e+08
3970.000000 6.24293000e+08
3990.000000 7.03973000e+08
4010.000000 6.91111000e+08
4030.000000 6.65225000e+08
4050.000000 6.73186000e+08
4070.000000 6.61788000e+08
4090.000000 6.36752000e+08
4110.000000 5.71960000e+08
4130.000000 6.25206000e+08
4150.000000 6.16045000e+08
4170.000000 6.09240000e+08
4190.000000 6.01056000e+08
4210.000000 5.91596000e+08
4230.000000 5.82267000e+08
4250.000000 5.73088000e+08
4270.000000 5.63682000e+08
4290.000000 5.55327000e+08
4310.000000 5.46372000e+08
4330.000000 5.19576000e+08
4350.000000 4.79211000e+08
4370.000000 5.21194000e+08
4390.000000 5.06272000e+08
4410.000000 5.05952000e+08
4430.000000 4.96537000e+08
4450.000000 4.90828000e+08
4470.000000 4.71305000e+08
4490.000000 4.76142000e+08
4510.000000 4.69076000e+08
4530.000000 4.62079000e+08
4550.000000 4.55151000e+08
4570.000000 4.48416000e+08
4590.000000 4.41834000e+08
4610.000000 4.35350000e+08
4630.000000 4.28978000e+08
4650.000000 4.22491000e+08
4670.000000 4.16548000e+08
4690.000000 4.10348000e+08
4710.000000 4.00502000e+08
4730.000000 3.98739000e+08
4750.000000 3.92934000e+08
4770.000000 3.87477000e+08
4790.000000 3.81966000e+08
4810.000000 3.76516000e+08
4830.000000 3.70950000e+08
4850.000000 3.56093000e+08
4870.000000 3.23550000e+08
4890.000000 3.55160000e+08
4910.000000 3.50819000e+08
4930.000000 3.40833000e+08
4950.000000 3.41159000e+08
4970.000000 3.36467000e+08
4990.000000 3.31838000e+08
5010.000000 3.24166000e+08
5030.000000 3.22814000e+08
5050.000000 3.16806000e+08
5070.000000 3.14091000e+08
5090.000000 3.09839000e+08
5110.000000 3.05673000e+08
5130.000000 3.01548000e+08
5150.000000 2.97506000e+08
5170.000000 2.93545000e+08
5190.000000 2.89637000e+08
5210.000000 2.85794000e+08
5230.000000 2.82014000e+08
5250.000000 2.78298000e+08
5270.000000 2.74643000e+08
5290.000000 2.71049000e+08
5310.000000 2.67515000e+08
5330.000000 2.64039000e+08
5350.000000 2.60608000e+08
5370.000000 2.57246000e+08
5390.000000 2.53927000e+08
5410.000000 2.50663000e+08
5430.000000 2.47465000e+08
5450.000000 2.44308000e+08
5470.000000 2.41203000e+08
5490.000000 2.38136000e+08
5510.000000 2.35132000e+08
5530.000000 2.32166000e+08
5550.000000 2.29248000e+08
5570.000000 2.26378000e+08
5590.000000 2.23556000e+08
5610.000000 2.20768000e+08
5630.000000 2.18025000e+08
5650.000000 2.15328000e+08
5670.000000 2.12663000e+08
5690.000000 2.10042000e+08
5710.000000 2.07487000e+08
5730.000000 2.04951000e+08
5750.000000 2.02445000e+08
5770.000000 1.99992000e+08
5790.000000 1.97568000e+08
5810.000000 1.95183000e+08
5830.000000 1.92827000e+08
5850.000000 1.90520000e+08
5870.000000 1.83888000e+08
5890.000000 1.85953000e+08
5910.000000 1.83780000e+08
5930.000000 1.81600000e+08
5950.000000 1.79455000e+08
5970.000000 1.77335000e+08
5990.000000 1.75250000e+08
6010.000000 1.73199000e+08
6030.000000 1.71171000e+08
6050.000000 1.69177000e+08
6070.000000 1.67215000e+08
6090.000000 1.65276000e+08
6110.000000 1.63368000e+08
6130.000000 1.61482000e+08
6150.000000 1.59626000e+08
6170.000000 1.57801000e+08
6190.000000 1.55997000e+08
6210.000000 1.54222000e+08
6230.000000 1.52476000e+08
6250.000000 1.50750000e+08
6270.000000 1.49042000e+08
6290.000000 1.47362000e+08
6310.000000 1.45711000e+08
6330.000000 1.44077000e+08
6350.000000 1.42470000e+08
6370.000000 1.40880000e+08
6390.000000 1.39326000e+08
6410.000000 1.37780000e+08
6430.000000 1.36259000e+08
6450.000000 1.34763000e+08
6470.000000 1.33274000e+08
6490.000000 1.31819000e+08
6510.000000 1.30379000e+08
6530.000000 1.28884000e+08
6550.000000 1.25639000e+08
6570.000000 1.13835000e+08
6590.000000 1.24448000e+08
6610.000000 1.23472000e+08
6630.000000 1.22146000e+08
6650.000000 1.20918000e+08
6670.000000 1.18754000e+08
6690.000000 1.17507000e+08
6710.000000 1.17092000e+08
6730.000000 1.15848000e+08
6750.000000 1.14625000e+08
6770.000000 1.13414000e+08
6790.000000 1.12224000e+08
6810.000000 1.11046000e+08
6830.000000 1.09888000e+08
6850.000000 1.08733000e+08
6870.000000 1.07606000e+08
6890.000000 1.06483000e+08
6910.000000 1.05386000e+08
6930.000000 1.04292000e+08
6950.000000 1.03225000e+08
6970.000000 1.02160000e+08
6990.000000 1.01106000e+08
7010.000000 1.00078000e+08
7030.000000 9.90593000e+07
7050.000000 9.80508000e+07
7070.000000 9.56051000e+07
7090.000000 9.60783000e+07
7110.000000 9.51063000e+07
7130.000000 9.41510000e+07
7150.000000 9.32050000e+07
7170.000000 9.22534000e+07
7190.000000 9.13474000e+07
7210.000000 9.04355000e+07
7230.000000 8.94890000e+07
7250.000000 8.86519000e+07
7270.000000 8.77728000e+07
7290.000000 8.62356000e+07
7310.000000 8.60323000e+07
7330.000000 8.52058000e+07
7350.000000 8.43732000e+07
7370.000000 8.35483000e+07
7390.000000 8.27310000e+07
7410.000000 8.19283000e+07
7430.000000 8.11329000e+07
7450.000000 8.03585000e+07
7470.000000 7.95845000e+07
7490.000000 7.88176000e+07
7510.000000 7.80309000e+07
7530.000000 7.73114000e+07
7550.000000 7.65719000e+07
7570.000000 7.58391000e+07
7590.000000 7.51195000e+07
7610.000000 7.44064000e+07
7630.000000 7.36998000e+07
7650.000000 7.30059000e+07
7670.000000 7.23183000e+07
7690.000000 7.16305000e+07
7710.000000 7.09551000e+07
7730.000000 7.02984000e+07
7750.000000 6.96350000e+07
7770.000000 6.89899000e+07
7790.000000 6.83567000e+07
7810.000000 6.76674000e+07
7830.000000 6.70948000e+07
7850.000000 6.65455000e+07
7870.000000 6.59340000e+07
7890.000000 6.52855000e+07
7910.000000 6.46788000e+07
7930.000000 6.39875000e+07
7950.000000 6.33858000e+07
7970.000000 6.27656000e+07
7990.000000 6.22393000e+07
8010.000000 6.16588000e+07
8030.000000 6.11300000e+07
8050.000000 6.06174000e+07
8070.000000 6.01148000e+07
8090.000000 5.94496000e+07
8110.000000 5.89677000e+07
8130.000000 5.85297000e+07
8150.000000 5.78855000e+07
8170.000000 5.75065000e+07
8190.000000 5.69452000e+07
8210.000000 5.63048000e+07
8230.000000 5.59869000e+07
8250.000000 5.54944000e+07
8270.000000 5.47174000e+07
8290.000000 5.44378000e+07
8310.000000 5.39791000e+07
8330.000000 5.34949000e+07
8350.000000 5.27818000e+07
8370.000000 5.23739000e+07
8390.000000 5.19843000e+07
8410.000000 5.14881000e+07
8430.000000 5.10039000e+07
8450.000000 5.03555000e+07
8470.000000 4.97341000e+07
8490.000000 5.00138000e+07
8510.000000 4.86273000e+07
8530.000000 4.94454000e+07
8550.000000 4.70731000e+07
8570.000000 4.93973000e+07
8590.000000 4.69078000e+07
8610.000000 4.65153000e+07
8630.000000 4.86531000e+07
8650.000000 4.74078000e+07
8670.000000 4.36190000e+07
8690.000000 4.76608000e+07
8710.000000 4.76061000e+07
8730.000000 4.63259000e+07
8750.000000 4.19201000e+07
8770.000000 4.53062000e+07
8790.000000 4.60891000e+07
8810.000000 4.57093000e+07
8830.000000 4.52816000e+07
8850.000000 4.32008000e+07
8870.000000 4.00322000e+07
8890.000000 4.39875000e+07
8910.000000 4.38552000e+07
8930.000000 4.34596000e+07
8950.000000 4.32200000e+07
8970.000000 4.28603000e+07
8990.000000 4.19758000e+07
9010.000000 3.80896000e+07
9030.000000 4.00459000e+07
9050.000000 4.13405000e+07
9070.000000 4.08200000e+07
9090.000000 4.06725000e+07
9110.000000 4.04646000e+07
9130.000000 4.01605000e+07
9150.000000 3.98353000e+07
9170.000000 3.94108000e+07
9190.000000 3.91355000e+07
9210.000000 3.79252000e+07
9230.000000 3.42512000e+07
9250.000000 3.75891000e+07
9270.000000 3.78725000e+07
9290.000000 3.76467000e+07
9310.000000 3.71983000e+07
9330.000000 3.70489000e+07
9350.000000 3.67277000e+07
9370.000000 3.64647000e+07
9390.000000 3.61762000e+07
9410.000000 3.58898000e+07
9430.000000 3.56077000e+07
9450.000000 3.53276000e+07
9470.000000 3.48643000e+07
9490.000000 3.47753000e+07
9510.000000 3.41685000e+07
9530.000000 3.32300000e+07
9550.000000 3.02164000e+07
9570.000000 3.33012000e+07
9590.000000 3.33906000e+07
9610.000000 3.30854000e+07
9630.000000 3.27811000e+07
9650.000000 3.26733000e+07
9670.000000 3.24218000e+07
9690.000000 3.21417000e+07
9710.000000 3.18312000e+07
9730.000000 3.16818000e+07
9750.000000 3.14398000e+07
9770.000000 3.11999000e+07
9790.000000 3.09625000e+07
9810.000000 3.07276000e+07
9830.000000 3.04947000e+07
9850.000000 3.02638000e+07
9870.000000 3.00353000e+07
9890.000000 2.98088000e+07
9910.000000 2.95808000e+07
9930.000000 2.93624000e+07
9950.000000 2.91425000e+07
9970.000000 2.89241000e+07
9990.000000 2.87080000e+07
10025.000000 2.76233000e+07
10075.000000 2.67797000e+07
10125.000000 2.72490000e+07
10175.000000 2.68032000e+07
10225.000000 2.63032000e+07
10275.000000 2.58390000e+07
10325.000000 2.52911000e+07
10375.000000 2.49178000e+07
10425.000000 2.44727000e+07
10475.000000 2.40374000e+07
10525.000000 2.36120000e+07
10575.000000 2.31955000e+07
10625.000000 2.27885000e+07
10675.000000 2.23517000e+07
10725.000000 2.20007000e+07
10775.000000 2.16195000e+07
10825.000000 2.10167000e+07
10875.000000 2.08733000e+07
10925.000000 1.93804000e+07
10975.000000 1.99880000e+07
11025.000000 1.97343000e+07
11075.000000 1.94941000e+07
11125.000000 1.91704000e+07
11175.000000 1.88497000e+07
11225.000000 1.85242000e+07
11275.000000 1.82275000e+07
11325.000000 1.79260000e+07
11375.000000 1.76307000e+07
11425.000000 1.73416000e+07
11475.000000 1.70584000e+07
11525.000000 1.67808000e+07
11575.000000 1.65090000e+07
11625.000000 1.62427000e+07
11675.000000 1.59815000e+07
11725.000000 1.57257000e+07
11775.000000 1.54750000e+07
11825.000000 1.52294000e+07
11875.000000 1.49884000e+07
11925.000000 1.47525000e+07
11975.000000 1.44284000e+07
12025.000000 1.42940000e+07
12075.000000 1.40715000e+07
12125.000000 1.38532000e+07
12175.000000 1.36393000e+07
12225.000000 1.34294000e+07
12275.000000 1.32234000e+07
12325.000000 1.30216000e+07
12375.000000 1.28234000e+07
12425.000000 1.26291000e+07
12475.000000 1.24385000e+07
12525.000000 1.22284000e+07
12575.000000 1.20678000e+07
12625.000000 1.18875000e+07
12675.000000 1.17109000e+07
12725.000000 1.15372000e+07
12775.000000 1.12407000e+07
12825.000000 1.06049000e+07
12875.000000 1.10149000e+07
12925.000000 1.08746000e+07
12975.000000 1.06607000e+07
13025.000000 1.05610000e+07
13075.000000 1.04086000e+07
