# Kurucz ODFNEW /NOVER, alpha: 0.0 (2003)
# teff = 9500 K (value for the effective temperature for the model. Temperatures are given in K)
# logg = 2 log(cm/s2) (value for Log(G) for the model.)
# lh = 1.25  (l/Hp where l is the  mixing length of the convective element and Hp is the pressure scale height)
# meta = 0.5  (value for the Metallicity for the model.)
# vtur = 2 km/s (Microturbulence velocity)
# alpha = 0  (Alpha)
#
# column 1: WAVELENGTH (ANGSTROM), Wavelength in Angstrom
# column 2: FLUX (ERG/CM2/S/A), Flux in erg/cm2/s/A
308.000000 4.44344000e-23
318.000000 4.97642000e-22
328.000000 4.52458000e-21
338.000000 3.59173000e-20
348.000000 2.54911000e-19
357.000000 1.39304000e-18
366.000000 6.86829000e-18
375.000000 3.12903000e-17
385.000000 1.56634000e-16
395.000000 7.21176000e-16
405.000000 3.10548000e-15
414.000000 1.09004000e-14
422.000000 3.18757000e-14
430.000000 8.89583000e-14
441.000000 3.50402000e-13
451.000000 1.14376000e-12
460.000000 3.17995000e-12
470.000000 9.45951000e-12
480.000000 2.70382000e-11
490.000000 7.40797000e-11
500.000000 1.94799000e-10
506.000000 6.27519000e-10
512.000000 1.28480000e-09
520.000000 2.53387000e-09
530.000000 5.77902000e-09
540.000000 1.26571000e-08
550.000000 2.74807000e-08
560.000000 5.76266000e-08
570.000000 1.17622000e-07
580.000000 2.31021000e-07
590.000000 4.54629000e-07
600.000000 8.65557000e-07
610.000000 1.62163000e-06
620.000000 2.96444000e-06
630.000000 5.32319000e-06
640.000000 9.35017000e-06
650.000000 1.62613000e-05
658.000000 2.49524000e-05
665.000000 3.58972000e-05
675.000000 5.98467000e-05
685.000000 9.83041000e-05
695.000000 1.59380000e-04
705.000000 2.53192000e-04
716.000000 4.18869000e-04
726.000000 6.51219000e-04
735.000000 9.57959000e-04
745.000000 1.45397000e-03
755.000000 2.18394000e-03
765.000000 3.24667000e-03
775.000000 4.77923000e-03
785.000000 6.97062000e-03
795.000000 1.00139000e-02
805.000000 1.43198000e-02
815.000000 2.03269000e-02
825.000000 2.85160000e-02
835.000000 3.96087000e-02
845.000000 5.48666000e-02
855.000000 7.52093000e-02
865.000000 1.02341000e-01
875.000000 1.37903000e-01
885.000000 1.85174000e-01
895.000000 2.46404000e-01
905.000000 3.24939000e-01
915.000000 6.92645000e+01
925.000000 3.48852000e+02
935.000000 4.21535000e+02
945.000000 5.54996000e+02
955.000000 8.53070000e+02
965.000000 1.09181000e+03
975.000000 1.14791000e+03
985.000000 1.45873000e+03
995.000000 1.57362000e+03
1005.000000 2.04574000e+03
1015.000000 2.48902000e+03
1025.000000 2.64421000e+03
1035.000000 3.28090000e+03
1045.000000 4.11150000e+03
1055.000000 4.88011000e+03
1065.000000 5.23597000e+03
1075.000000 6.37257000e+03
1085.000000 7.38146000e+03
1095.000000 7.82318000e+03
1105.000000 1.69111000e+04
1115.000000 5.67204000e+04
1125.000000 8.43814000e+04
1135.000000 1.53397000e+05
1145.000000 1.55209000e+05
1155.000000 1.95746000e+05
1165.000000 2.35421000e+05
1175.000000 1.98286000e+05
1185.000000 1.82550000e+05
1195.000000 2.74865000e+04
1205.000000 3.86971000e+04
1215.000000 6.29548000e+03
1225.000000 3.96707000e+04
1235.000000 1.10851000e+05
1245.000000 9.22340000e+05
1255.000000 4.88018000e+06
1265.000000 2.25231000e+06
1275.000000 1.17455000e+07
1285.000000 2.19865000e+07
1295.000000 1.42892000e+07
1305.000000 2.56186000e+06
1315.000000 1.63700000e+07
1325.000000 2.60634000e+07
1335.000000 1.32678000e+07
1345.000000 3.32138000e+07
1355.000000 3.48593000e+07
1365.000000 2.65640000e+07
1375.000000 3.08198000e+07
1385.000000 3.08713000e+07
1395.000000 3.27747000e+07
1405.000000 3.48232000e+07
1415.000000 3.20937000e+07
1425.000000 4.11826000e+07
1435.000000 3.56235000e+07
1442.000000 4.16649000e+07
1447.000000 4.89271000e+07
1455.000000 4.80347000e+07
1465.000000 4.40180000e+07
1475.000000 4.25643000e+07
1485.000000 5.22020000e+07
1495.000000 5.82887000e+07
1505.000000 5.81404000e+07
1512.000000 4.37414000e+07
1517.000000 5.39878000e+07
1525.000000 4.41489000e+07
1535.000000 3.90716000e+07
1545.000000 6.66932000e+07
1555.000000 5.32027000e+07
1565.000000 4.44051000e+07
1575.000000 5.13559000e+07
1585.000000 6.22388000e+07
1595.000000 7.13869000e+07
1605.000000 6.21144000e+07
1615.000000 6.07005000e+07
1625.000000 5.21333000e+07
1635.000000 5.60255000e+07
1645.000000 6.02984000e+07
1655.000000 5.03347000e+07
1665.000000 5.69791000e+07
1672.000000 1.78906000e+07
1677.000000 5.57419000e+07
1685.000000 7.08617000e+07
1695.000000 6.81529000e+07
1705.000000 5.77064000e+07
1715.000000 5.55585000e+07
1725.000000 5.55417000e+07
1735.000000 6.66924000e+07
1745.000000 6.37008000e+07
1755.000000 7.98501000e+07
1765.000000 5.90122000e+07
1775.000000 7.12057000e+07
1785.000000 6.53164000e+07
1795.000000 8.73194000e+07
1805.000000 8.17628000e+07
1815.000000 7.98534000e+07
1825.000000 7.54607000e+07
1835.000000 7.03946000e+07
1845.000000 6.28704000e+07
1855.000000 6.42143000e+07
1865.000000 6.74939000e+07
1875.000000 7.65530000e+07
1885.000000 7.19398000e+07
1895.000000 7.28695000e+07
1905.000000 6.88334000e+07
1915.000000 7.08099000e+07
1925.000000 7.68032000e+07
1935.000000 7.45505000e+07
1945.000000 7.87532000e+07
1955.000000 7.77741000e+07
1967.000000 8.76496000e+07
1976.000000 9.00370000e+07
1984.000000 8.29296000e+07
1995.000000 7.91439000e+07
2005.000000 7.91071000e+07
2015.000000 7.10337000e+07
2025.000000 7.63863000e+07
2035.000000 7.53336000e+07
2045.000000 8.31169000e+07
2055.000000 7.32116000e+07
2065.000000 7.25669000e+07
2074.000000 8.49426000e+07
2078.000000 8.46194000e+07
2085.000000 8.34793000e+07
2095.000000 7.81248000e+07
2105.000000 7.42716000e+07
2115.000000 7.34615000e+07
2125.000000 7.68005000e+07
2135.000000 6.00002000e+07
2145.000000 6.95730000e+07
2155.000000 7.56919000e+07
2165.000000 6.88577000e+07
2175.000000 6.71907000e+07
2185.000000 6.60184000e+07
2195.000000 7.35737000e+07
2205.000000 6.80659000e+07
2215.000000 5.79842000e+07
2225.000000 5.40778000e+07
2235.000000 6.56890000e+07
2245.000000 5.81431000e+07
2255.000000 5.14920000e+07
2265.000000 5.55758000e+07
2275.000000 6.02097000e+07
2285.000000 6.38674000e+07
2295.000000 5.95826000e+07
2305.000000 5.56334000e+07
2315.000000 5.06114000e+07
2325.000000 4.96884000e+07
2335.000000 4.07835000e+07
2345.000000 3.51948000e+07
2355.000000 4.83429000e+07
2365.000000 3.44734000e+07
2375.000000 4.13902000e+07
2385.000000 3.08094000e+07
2395.000000 3.85207000e+07
2405.000000 3.56361000e+07
2415.000000 3.99304000e+07
2425.000000 4.98037000e+07
2435.000000 4.65204000e+07
2445.000000 5.17141000e+07
2455.000000 4.95734000e+07
2465.000000 4.78694000e+07
2475.000000 4.66359000e+07
2485.000000 5.06507000e+07
2495.000000 4.78883000e+07
2505.000000 5.77153000e+07
2513.000000 4.61208000e+07
2518.000000 5.02926000e+07
2525.000000 4.24283000e+07
2535.000000 4.39813000e+07
2545.000000 4.27377000e+07
2555.000000 4.90797000e+07
2565.000000 4.48361000e+07
2575.000000 5.14753000e+07
2585.000000 4.88272000e+07
2595.000000 4.52208000e+07
2605.000000 4.15134000e+07
2615.000000 4.04555000e+07
2625.000000 4.74713000e+07
2635.000000 4.96835000e+07
2645.000000 6.32242000e+07
2655.000000 6.23266000e+07
2665.000000 5.19199000e+07
2675.000000 5.69651000e+07
2685.000000 5.31240000e+07
2695.000000 5.29484000e+07
2705.000000 5.57549000e+07
2715.000000 5.09108000e+07
2725.000000 5.23217000e+07
2735.000000 5.76610000e+07
2745.000000 3.98252000e+07
2755.000000 4.20059000e+07
2765.000000 4.52501000e+07
2775.000000 5.35989000e+07
2785.000000 5.07958000e+07
2795.000000 2.71860000e+07
2805.000000 3.43824000e+07
2815.000000 5.42448000e+07
2825.000000 5.98707000e+07
2835.000000 5.45228000e+07
2845.000000 5.23528000e+07
2855.000000 4.93939000e+07
2865.000000 5.66134000e+07
2875.000000 5.32395000e+07
2885.000000 5.43873000e+07
2895.000000 5.02185000e+07
2910.000000 6.02902000e+07
2930.000000 5.65386000e+07
2950.000000 5.63417000e+07
2970.000000 5.90961000e+07
2990.000000 5.99937000e+07
3010.000000 6.21680000e+07
3030.000000 6.06237000e+07
3050.000000 5.91225000e+07
3070.000000 5.86465000e+07
3090.000000 6.06122000e+07
3110.000000 5.76423000e+07
3130.000000 5.69311000e+07
3150.000000 5.90276000e+07
3170.000000 5.82851000e+07
3190.000000 5.50910000e+07
3210.000000 5.71048000e+07
3230.000000 5.54862000e+07
3250.000000 5.64532000e+07
3270.000000 5.61946000e+07
3290.000000 5.68047000e+07
3310.000000 5.73617000e+07
3330.000000 5.54992000e+07
3350.000000 5.46606000e+07
3370.000000 5.42094000e+07
3390.000000 5.40732000e+07
3410.000000 5.55921000e+07
3430.000000 5.53107000e+07
3450.000000 5.47441000e+07
3470.000000 5.36048000e+07
3490.000000 5.29149000e+07
3510.000000 5.41361000e+07
3530.000000 5.45825000e+07
3550.000000 5.47315000e+07
3570.000000 5.31209000e+07
3590.000000 5.28873000e+07
3610.000000 5.27163000e+07
3630.000000 5.24400000e+07
3640.000000 5.17741000e+07
3650.000000 5.37559000e+07
3670.000000 5.25115000e+07
3690.000000 5.40106000e+07
3710.000000 6.90365000e+07
3730.000000 9.02500000e+07
3750.000000 1.21362000e+08
3770.000000 1.21138000e+08
3790.000000 1.35594000e+08
3810.000000 1.46564000e+08
3830.000000 1.21687000e+08
3850.000000 1.46986000e+08
3870.000000 1.49895000e+08
3890.000000 1.18308000e+08
3910.000000 1.44678000e+08
3930.000000 1.39433000e+08
3950.000000 1.45008000e+08
3970.000000 1.09391000e+08
3990.000000 1.41897000e+08
4010.000000 1.39136000e+08
4030.000000 1.36610000e+08
4050.000000 1.36158000e+08
4070.000000 1.32926000e+08
4090.000000 1.29607000e+08
4110.000000 1.06736000e+08
4130.000000 1.27093000e+08
4150.000000 1.28835000e+08
4170.000000 1.25000000e+08
4190.000000 1.24393000e+08
4210.000000 1.23027000e+08
4230.000000 1.21507000e+08
4250.000000 1.18574000e+08
4270.000000 1.16631000e+08
4290.000000 1.16979000e+08
4310.000000 1.12965000e+08
4330.000000 1.05804000e+08
4350.000000 9.29296000e+07
4370.000000 1.11171000e+08
4390.000000 1.08032000e+08
4410.000000 1.07420000e+08
4430.000000 1.06882000e+08
4450.000000 1.06025000e+08
4470.000000 1.04508000e+08
4490.000000 1.02335000e+08
4510.000000 1.02181000e+08
4530.000000 1.00218000e+08
4550.000000 9.74956000e+07
4570.000000 9.92128000e+07
4590.000000 9.56607000e+07
4610.000000 9.79098000e+07
4630.000000 9.38093000e+07
4650.000000 9.54207000e+07
4670.000000 9.35359000e+07
4690.000000 9.26628000e+07
4710.000000 8.98413000e+07
4730.000000 9.06930000e+07
4750.000000 8.98123000e+07
4770.000000 8.92180000e+07
4790.000000 8.81002000e+07
4810.000000 8.64295000e+07
4830.000000 8.48287000e+07
4850.000000 7.89750000e+07
4870.000000 6.64128000e+07
4890.000000 8.22698000e+07
4910.000000 8.14822000e+07
4930.000000 7.97451000e+07
4950.000000 7.95664000e+07
4970.000000 7.92003000e+07
4990.000000 7.75666000e+07
5010.000000 7.46852000e+07
5030.000000 7.46285000e+07
5050.000000 7.35688000e+07
5070.000000 7.34746000e+07
5090.000000 7.26744000e+07
5110.000000 7.15151000e+07
5130.000000 7.08856000e+07
5150.000000 6.91103000e+07
5170.000000 6.81171000e+07
5190.000000 6.77484000e+07
5210.000000 6.70002000e+07
5230.000000 6.55247000e+07
5250.000000 6.60119000e+07
5270.000000 6.40332000e+07
5290.000000 6.51076000e+07
5310.000000 6.29198000e+07
5330.000000 6.30174000e+07
5350.000000 6.32763000e+07
5370.000000 6.23120000e+07
5390.000000 6.15496000e+07
5410.000000 6.04763000e+07
5430.000000 5.99690000e+07
5450.000000 5.98987000e+07
5470.000000 5.91455000e+07
5490.000000 5.86604000e+07
5510.000000 5.77129000e+07
5530.000000 5.73356000e+07
5550.000000 5.69671000e+07
5570.000000 5.62528000e+07
5590.000000 5.58510000e+07
5610.000000 5.55815000e+07
5630.000000 5.49045000e+07
5650.000000 5.38202000e+07
5670.000000 5.35138000e+07
5690.000000 5.32244000e+07
5710.000000 5.27170000e+07
5730.000000 5.21615000e+07
5750.000000 5.15542000e+07
5770.000000 5.10628000e+07
5790.000000 5.03050000e+07
5810.000000 4.98878000e+07
5830.000000 4.93389000e+07
5850.000000 4.90087000e+07
5870.000000 4.83298000e+07
5890.000000 4.75341000e+07
5910.000000 4.74211000e+07
5930.000000 4.70503000e+07
5950.000000 4.61472000e+07
5970.000000 4.59378000e+07
5990.000000 4.52998000e+07
6010.000000 4.50875000e+07
6030.000000 4.47049000e+07
6050.000000 4.41001000e+07
6070.000000 4.37189000e+07
6090.000000 4.32555000e+07
6110.000000 4.28668000e+07
6130.000000 4.23871000e+07
6150.000000 4.12313000e+07
6170.000000 4.15671000e+07
6190.000000 4.12252000e+07
6210.000000 4.08692000e+07
6230.000000 4.03151000e+07
6250.000000 3.92802000e+07
6270.000000 3.96902000e+07
6290.000000 3.92640000e+07
6310.000000 3.86275000e+07
6330.000000 3.84525000e+07
6350.000000 3.74623000e+07
6370.000000 3.72655000e+07
6390.000000 3.72660000e+07
6410.000000 3.68064000e+07
6430.000000 3.65751000e+07
6450.000000 3.57763000e+07
6470.000000 3.60144000e+07
6490.000000 3.52704000e+07
6510.000000 3.49945000e+07
6530.000000 3.46524000e+07
6550.000000 3.26278000e+07
6570.000000 2.67687000e+07
6590.000000 3.35306000e+07
6610.000000 3.35410000e+07
6630.000000 3.32541000e+07
6650.000000 3.30467000e+07
6670.000000 3.26634000e+07
6690.000000 3.23766000e+07
6710.000000 3.21421000e+07
6730.000000 3.17417000e+07
6750.000000 3.15208000e+07
6770.000000 3.12658000e+07
6790.000000 3.09348000e+07
6810.000000 3.06722000e+07
6830.000000 3.03111000e+07
6850.000000 3.00773000e+07
6870.000000 2.98131000e+07
6890.000000 2.95720000e+07
6910.000000 2.92685000e+07
6930.000000 2.89633000e+07
6950.000000 2.87703000e+07
6970.000000 2.84899000e+07
6990.000000 2.82886000e+07
7010.000000 2.78928000e+07
7030.000000 2.77762000e+07
7050.000000 2.74438000e+07
7070.000000 2.72412000e+07
7090.000000 2.70503000e+07
7110.000000 2.66137000e+07
7130.000000 2.64831000e+07
7150.000000 2.62924000e+07
7170.000000 2.60624000e+07
7190.000000 2.58323000e+07
7210.000000 2.56341000e+07
7230.000000 2.53080000e+07
7250.000000 2.51177000e+07
7270.000000 2.49476000e+07
7290.000000 2.47081000e+07
7310.000000 2.44356000e+07
7330.000000 2.42779000e+07
7350.000000 2.41278000e+07
7370.000000 2.39416000e+07
7390.000000 2.37114000e+07
7410.000000 2.34704000e+07
7430.000000 2.31456000e+07
7450.000000 2.30025000e+07
7470.000000 2.27141000e+07
7490.000000 2.26205000e+07
7510.000000 2.23833000e+07
7530.000000 2.23164000e+07
7550.000000 2.21501000e+07
7570.000000 2.19517000e+07
7590.000000 2.17616000e+07
7610.000000 2.16220000e+07
7630.000000 2.14195000e+07
7650.000000 2.11647000e+07
7670.000000 2.10295000e+07
7690.000000 2.08578000e+07
7710.000000 2.06338000e+07
7730.000000 2.05315000e+07
7750.000000 2.03592000e+07
7770.000000 1.97241000e+07
7790.000000 2.00253000e+07
7810.000000 1.98864000e+07
7830.000000 1.96897000e+07
7850.000000 1.94330000e+07
7870.000000 1.92547000e+07
7890.000000 1.90416000e+07
7910.000000 1.90297000e+07
7930.000000 1.89183000e+07
7950.000000 1.85961000e+07
7970.000000 1.86185000e+07
7990.000000 1.81478000e+07
8010.000000 1.83150000e+07
8030.000000 1.81573000e+07
8050.000000 1.80207000e+07
8070.000000 1.78632000e+07
8090.000000 1.77261000e+07
8110.000000 1.75649000e+07
8130.000000 1.74586000e+07
8150.000000 1.73231000e+07
8170.000000 1.71916000e+07
8190.000000 1.69252000e+07
8210.000000 1.67830000e+07
8230.000000 1.66036000e+07
8250.000000 1.66389000e+07
8270.000000 1.66329000e+07
8290.000000 1.64146000e+07
8310.000000 1.63199000e+07
8330.000000 1.60527000e+07
8350.000000 1.59948000e+07
8370.000000 1.56942000e+07
8390.000000 1.56403000e+07
8410.000000 1.54600000e+07
8430.000000 1.57308000e+07
8450.000000 1.53873000e+07
8470.000000 1.49188000e+07
8490.000000 1.62415000e+07
8510.000000 1.45817000e+07
8530.000000 1.64913000e+07
8550.000000 1.41828000e+07
8570.000000 1.66655000e+07
8590.000000 1.55842000e+07
8610.000000 1.51084000e+07
8630.000000 1.68645000e+07
8650.000000 1.65943000e+07
8670.000000 1.36390000e+07
8690.000000 1.64084000e+07
8710.000000 1.66386000e+07
8730.000000 1.63400000e+07
8750.000000 1.33893000e+07
8770.000000 1.59483000e+07
8790.000000 1.62327000e+07
8810.000000 1.60737000e+07
8830.000000 1.57391000e+07
8850.000000 1.52125000e+07
8870.000000 1.29433000e+07
8890.000000 1.55035000e+07
8910.000000 1.54202000e+07
8930.000000 1.52813000e+07
8950.000000 1.53010000e+07
8970.000000 1.51706000e+07
8990.000000 1.49321000e+07
9010.000000 1.26574000e+07
9030.000000 1.38946000e+07
9050.000000 1.46386000e+07
9070.000000 1.42898000e+07
9090.000000 1.41814000e+07
9110.000000 1.42481000e+07
9130.000000 1.42115000e+07
9150.000000 1.41850000e+07
9170.000000 1.40044000e+07
9190.000000 1.37642000e+07
9210.000000 1.34816000e+07
9230.000000 1.10353000e+07
9250.000000 1.31416000e+07
9270.000000 1.30810000e+07
9290.000000 1.33949000e+07
9310.000000 1.33478000e+07
9330.000000 1.32067000e+07
9350.000000 1.31679000e+07
9370.000000 1.30800000e+07
9390.000000 1.28821000e+07
9410.000000 1.25951000e+07
9430.000000 1.27472000e+07
9450.000000 1.26962000e+07
9470.000000 1.25788000e+07
9490.000000 1.25087000e+07
9510.000000 1.23670000e+07
9530.000000 1.20634000e+07
9550.000000 9.96653000e+06
9570.000000 1.19804000e+07
9590.000000 1.20550000e+07
9610.000000 1.19290000e+07
9630.000000 1.16675000e+07
9650.000000 1.18129000e+07
9670.000000 1.16429000e+07
9690.000000 1.16245000e+07
9710.000000 1.15899000e+07
9730.000000 1.14937000e+07
9750.000000 1.13979000e+07
9770.000000 1.13410000e+07
9790.000000 1.12495000e+07
9810.000000 1.11469000e+07
9830.000000 1.10447000e+07
9850.000000 1.09626000e+07
9870.000000 1.09039000e+07
9890.000000 1.07813000e+07
9910.000000 1.07677000e+07
9930.000000 1.06854000e+07
9950.000000 1.06083000e+07
9970.000000 1.05540000e+07
9990.000000 1.04793000e+07
10025.000000 1.00161000e+07
10075.000000 9.48044000e+06
10125.000000 9.85374000e+06
10175.000000 9.79789000e+06
10225.000000 9.67239000e+06
10275.000000 9.50926000e+06
10325.000000 9.33611000e+06
10375.000000 9.18194000e+06
10425.000000 9.04069000e+06
10475.000000 8.84610000e+06
10525.000000 8.68913000e+06
10575.000000 8.57987000e+06
10625.000000 8.45426000e+06
10675.000000 8.21061000e+06
10725.000000 8.14177000e+06
10775.000000 8.03069000e+06
10825.000000 7.90105000e+06
10875.000000 7.77378000e+06
10925.000000 6.99891000e+06
10975.000000 7.43009000e+06
11025.000000 7.43041000e+06
11075.000000 7.31617000e+06
11125.000000 7.19607000e+06
11175.000000 7.08506000e+06
11225.000000 6.97693000e+06
11275.000000 6.76643000e+06
11325.000000 6.68273000e+06
11375.000000 6.64856000e+06
11425.000000 6.54114000e+06
11475.000000 6.45623000e+06
11525.000000 6.35949000e+06
11575.000000 6.25996000e+06
11625.000000 6.12900000e+06
11675.000000 6.02411000e+06
11725.000000 5.97832000e+06
11775.000000 5.82929000e+06
11825.000000 5.78064000e+06
11875.000000 5.68451000e+06
11925.000000 5.63588000e+06
11975.000000 5.53165000e+06
12025.000000 5.46438000e+06
12075.000000 5.37968000e+06
12125.000000 5.30056000e+06
12175.000000 5.22992000e+06
12225.000000 5.15168000e+06
12275.000000 5.07029000e+06
12325.000000 5.00171000e+06
12375.000000 4.93210000e+06
12425.000000 4.86735000e+06
12475.000000 4.77515000e+06
12525.000000 4.72798000e+06
12575.000000 4.64114000e+06
12625.000000 4.58720000e+06
12675.000000 4.53232000e+06
12725.000000 4.47002000e+06
12775.000000 4.38823000e+06
12825.000000 3.97342000e+06
12875.000000 4.27533000e+06
12925.000000 4.22699000e+06
12975.000000 4.16941000e+06
13025.000000 4.11370000e+06
13075.000000 4.05695000e+06
13125.000000 4.00161000e+06
13175.000000 3.93092000e+06
13225.000000 3.89458000e+06
13275.000000 3.84221000e+06
13325.000000 3.79073000e+06
13375.000000 3.74011000e+06
13425.000000 3.68597000e+06
13475.000000 3.63667000e+06
13525.000000 3.58347000e+06
13575.000000 3.53893000e+06
13625.000000 3.49352000e+06
13675.000000 3.44163000e+06
13725.000000 3.39480000e+06
13775.000000 3.36107000e+06
13825.000000 3.31788000e+06
13875.000000 3.27718000e+06
13925.000000 3.23115000e+06
13975.000000 3.19168000e+06
14025.000000 3.15211000e+06
14075.000000 3.11207000e+06
14125.000000 3.07043000e+06
14175.000000 3.03325000e+06
14225.000000 2.99465000e+06
14275.000000 2.95725000e+06
14325.000000 2.91939000e+06
14375.000000 2.88289000e+06
14425.000000 2.82601000e+06
14475.000000 2.81065000e+06
14525.000000 2.76580000e+06
14570.000000 2.74572000e+06
14620.000000 2.71376000e+06
14675.000000 2.68208000e+06
14725.000000 2.64844000e+06
14775.000000 2.60949000e+06
