# Kurucz ODFNEW /NOVER, alpha: 0.0 (2003)
# teff = 30000 K (value for the effective temperature for the model. Temperatures are given in K)
# logg = 4 log(cm/s2) (value for Log(G) for the model.)
# lh = 1.25  (l/Hp where l is the  mixing length of the convective element and Hp is the pressure scale height)
# meta = -0.5  (value for the Metallicity for the model.)
# vtur = 2 km/s (Microturbulence velocity)
# alpha = 0  (Alpha)
#
# column 1: WAVELENGTH (ANGSTROM), Wavelength in Angstrom
# column 2: FLUX (ERG/CM2/S/A), Flux in erg/cm2/s/A
147.200000 6.45250000e-09
151.000000 2.07803000e-08
155.200000 7.10384000e-08
158.800000 1.93986000e-07
162.000000 4.57433000e-07
166.000000 1.27836000e-06
170.300000 3.66103000e-06
173.400000 7.58043000e-06
176.800000 1.63608000e-05
180.200000 3.43189000e-05
181.700000 4.71818000e-05
186.100000 1.16642000e-04
191.000000 3.04597000e-04
193.900000 5.25486000e-04
198.400000 1.18706000e-03
201.800000 2.14502000e-03
205.000000 3.67675000e-03
210.500000 8.94164000e-03
216.200000 2.14001000e-02
219.800000 3.62935000e-02
223.000000 5.72052000e-02
226.800000 9.67563000e-02
230.000000 6.10109000e+01
234.000000 1.45357000e+02
240.000000 2.58786000e+02
246.500000 4.89817000e+02
252.400000 8.54690000e+02
256.800000 1.13180000e+03
260.000000 1.89830000e+03
264.000000 2.76780000e+03
268.500000 4.13757000e+03
273.500000 6.04562000e+03
278.500000 8.40768000e+03
284.000000 1.59994000e+04
290.000000 2.40211000e+04
296.000000 3.42219000e+04
301.000000 4.46332000e+04
308.000000 7.77533000e+04
318.000000 1.70397000e+05
328.000000 2.71177000e+05
338.000000 4.70137000e+05
348.000000 7.51101000e+05
357.000000 1.50926000e+06
366.000000 2.50253000e+06
375.000000 3.29995000e+06
385.000000 4.84150000e+06
395.000000 7.24629000e+06
405.000000 9.52544000e+06
414.000000 1.25748000e+07
422.000000 1.49474000e+07
430.000000 1.84724000e+07
441.000000 2.41363000e+07
451.000000 2.99030000e+07
460.000000 3.51751000e+07
470.000000 4.37545000e+07
480.000000 5.31771000e+07
490.000000 6.37067000e+07
500.000000 7.75113000e+07
506.000000 2.91041000e+08
512.000000 1.53009000e+09
520.000000 1.47055000e+09
530.000000 1.42162000e+09
540.000000 1.32773000e+09
550.000000 1.62897000e+09
560.000000 1.87296000e+09
570.000000 1.98882000e+09
580.000000 1.83370000e+09
590.000000 2.04631000e+09
600.000000 1.94099000e+09
610.000000 2.18454000e+09
620.000000 2.43551000e+09
630.000000 2.44452000e+09
640.000000 2.38960000e+09
650.000000 2.44477000e+09
658.000000 2.43441000e+09
665.000000 2.64573000e+09
675.000000 2.74123000e+09
685.000000 2.53966000e+09
695.000000 3.04846000e+09
705.000000 2.83116000e+09
716.000000 3.26946000e+09
726.000000 3.25392000e+09
735.000000 3.30575000e+09
745.000000 3.43562000e+09
755.000000 3.47072000e+09
765.000000 3.58135000e+09
775.000000 3.69068000e+09
785.000000 3.85310000e+09
795.000000 3.88451000e+09
805.000000 3.87598000e+09
815.000000 3.89301000e+09
825.000000 4.08116000e+09
835.000000 3.66558000e+09
845.000000 4.07207000e+09
855.000000 4.10786000e+09
865.000000 4.23849000e+09
875.000000 4.33914000e+09
885.000000 4.46953000e+09
895.000000 4.55504000e+09
905.000000 4.51326000e+09
915.000000 5.56303000e+09
925.000000 2.54250000e+10
935.000000 4.30007000e+10
945.000000 6.20131000e+10
955.000000 6.71692000e+10
965.000000 7.60963000e+10
975.000000 3.22375000e+10
985.000000 6.58891000e+10
995.000000 6.10743000e+10
1005.000000 6.40946000e+10
1015.000000 6.48857000e+10
1025.000000 4.70811000e+10
1035.000000 6.06017000e+10
1045.000000 6.99003000e+10
1055.000000 6.67368000e+10
1065.000000 5.88266000e+10
1075.000000 6.13395000e+10
1085.000000 5.65434000e+10
1095.000000 6.02880000e+10
1105.000000 5.76282000e+10
1115.000000 5.65901000e+10
1125.000000 4.87601000e+10
1135.000000 5.46425000e+10
1145.000000 5.13158000e+10
1155.000000 5.07926000e+10
1165.000000 4.96523000e+10
1175.000000 3.54238000e+10
1185.000000 4.56939000e+10
1195.000000 4.44285000e+10
1205.000000 4.12060000e+10
1215.000000 3.06339000e+10
1225.000000 4.11493000e+10
1235.000000 4.33558000e+10
1245.000000 4.17653000e+10
1255.000000 4.15592000e+10
1265.000000 4.18794000e+10
1275.000000 4.19990000e+10
1285.000000 4.15350000e+10
1295.000000 3.79217000e+10
1305.000000 3.82520000e+10
1315.000000 3.96811000e+10
1325.000000 3.80522000e+10
1335.000000 3.68544000e+10
1345.000000 3.67540000e+10
1355.000000 3.61930000e+10
1365.000000 3.48114000e+10
1375.000000 3.40917000e+10
1385.000000 3.32457000e+10
1395.000000 2.75245000e+10
1405.000000 2.81990000e+10
1415.000000 3.09102000e+10
1425.000000 2.86857000e+10
1435.000000 2.96484000e+10
1442.000000 2.97417000e+10
1447.000000 2.93404000e+10
1455.000000 2.83353000e+10
1465.000000 2.75444000e+10
1475.000000 2.73626000e+10
1485.000000 2.71337000e+10
1495.000000 2.63303000e+10
1505.000000 2.53761000e+10
1512.000000 2.44628000e+10
1517.000000 2.45965000e+10
1525.000000 2.41123000e+10
1535.000000 2.14728000e+10
1545.000000 2.00973000e+10
1555.000000 1.95981000e+10
1565.000000 2.07836000e+10
1575.000000 2.15107000e+10
1585.000000 2.14636000e+10
1595.000000 2.12027000e+10
1605.000000 2.01042000e+10
1615.000000 1.93953000e+10
1625.000000 1.95796000e+10
1635.000000 1.97495000e+10
1645.000000 1.93013000e+10
1655.000000 1.95460000e+10
1665.000000 1.92290000e+10
1672.000000 1.82895000e+10
1677.000000 1.99930000e+10
1685.000000 1.92171000e+10
1695.000000 1.85832000e+10
1705.000000 1.81728000e+10
1715.000000 1.75145000e+10
1725.000000 1.70233000e+10
1735.000000 1.73958000e+10
1745.000000 1.70943000e+10
1755.000000 1.68646000e+10
1765.000000 1.65640000e+10
1775.000000 1.60933000e+10
1785.000000 1.61240000e+10
1795.000000 1.59016000e+10
1805.000000 1.58669000e+10
1815.000000 1.52225000e+10
1825.000000 1.51365000e+10
1835.000000 1.49775000e+10
1845.000000 1.39978000e+10
1855.000000 1.40334000e+10
1865.000000 1.40804000e+10
1875.000000 1.39692000e+10
1885.000000 1.30887000e+10
1895.000000 1.25660000e+10
1905.000000 1.30001000e+10
1915.000000 1.25545000e+10
1925.000000 1.19588000e+10
1935.000000 1.24422000e+10
1945.000000 1.25695000e+10
1955.000000 1.15827000e+10
1967.000000 1.19959000e+10
1976.000000 1.22892000e+10
1984.000000 1.16878000e+10
1995.000000 1.13766000e+10
2005.000000 1.15042000e+10
2015.000000 1.14905000e+10
2025.000000 1.15004000e+10
2035.000000 1.09565000e+10
2045.000000 1.08442000e+10
2055.000000 9.58366000e+09
2065.000000 9.37091000e+09
2074.000000 9.71278000e+09
2078.000000 9.44772000e+09
2085.000000 9.76742000e+09
2095.000000 9.84864000e+09
2105.000000 1.00393000e+10
2115.000000 1.00237000e+10
2125.000000 9.94628000e+09
2135.000000 9.79382000e+09
2145.000000 9.55451000e+09
2155.000000 9.58043000e+09
2165.000000 9.35389000e+09
2175.000000 9.31904000e+09
2185.000000 9.12346000e+09
2195.000000 9.12966000e+09
2205.000000 8.99512000e+09
2215.000000 8.79046000e+09
2225.000000 8.71619000e+09
2235.000000 8.56295000e+09
2245.000000 8.48459000e+09
2255.000000 8.27763000e+09
2265.000000 8.25244000e+09
2275.000000 8.14729000e+09
2285.000000 8.00831000e+09
2295.000000 7.48448000e+09
2305.000000 7.71749000e+09
2315.000000 7.65096000e+09
2325.000000 7.56159000e+09
2335.000000 7.43478000e+09
2345.000000 7.37973000e+09
2355.000000 7.27099000e+09
2365.000000 7.17529000e+09
2375.000000 7.05354000e+09
2385.000000 6.88524000e+09
2395.000000 6.83771000e+09
2405.000000 6.77706000e+09
2415.000000 6.67778000e+09
2425.000000 6.60616000e+09
2435.000000 6.48720000e+09
2445.000000 6.41912000e+09
2455.000000 6.34318000e+09
2465.000000 6.26082000e+09
2475.000000 6.16912000e+09
2485.000000 6.06314000e+09
2495.000000 5.21428000e+09
2505.000000 5.86561000e+09
2513.000000 5.65920000e+09
2518.000000 5.75113000e+09
2525.000000 5.77743000e+09
2535.000000 5.71247000e+09
2545.000000 5.58258000e+09
2555.000000 5.53233000e+09
2565.000000 5.48074000e+09
2575.000000 5.41399000e+09
2585.000000 5.34913000e+09
2595.000000 5.27945000e+09
2605.000000 5.23494000e+09
2615.000000 5.15835000e+09
2625.000000 5.10048000e+09
2635.000000 5.03536000e+09
2645.000000 4.96413000e+09
2655.000000 4.90334000e+09
2665.000000 4.81044000e+09
2675.000000 4.74796000e+09
2685.000000 4.72765000e+09
2695.000000 4.61561000e+09
2705.000000 4.57923000e+09
2715.000000 4.52920000e+09
2725.000000 4.46715000e+09
2735.000000 4.40055000e+09
2745.000000 4.37760000e+09
2755.000000 4.33039000e+09
2765.000000 4.25123000e+09
2775.000000 4.23791000e+09
2785.000000 4.17766000e+09
2795.000000 4.06700000e+09
2805.000000 4.06108000e+09
2815.000000 4.03784000e+09
2825.000000 3.96470000e+09
2835.000000 3.89501000e+09
2845.000000 3.89644000e+09
2855.000000 3.84082000e+09
2865.000000 3.79693000e+09
2875.000000 3.75429000e+09
2885.000000 3.71224000e+09
2895.000000 3.66727000e+09
2910.000000 3.59544000e+09
2930.000000 3.52353000e+09
2950.000000 3.41998000e+09
2970.000000 3.36109000e+09
2990.000000 3.27860000e+09
3010.000000 3.19377000e+09
3030.000000 3.13069000e+09
3050.000000 3.06871000e+09
3070.000000 3.00843000e+09
3090.000000 2.91635000e+09
3110.000000 2.87557000e+09
3130.000000 2.80856000e+09
3150.000000 2.74879000e+09
3170.000000 2.68846000e+09
3190.000000 2.62135000e+09
3210.000000 2.57288000e+09
3230.000000 2.52122000e+09
3250.000000 2.47384000e+09
3270.000000 2.41834000e+09
3290.000000 2.36839000e+09
3310.000000 2.32249000e+09
3330.000000 2.27045000e+09
3350.000000 2.22288000e+09
3370.000000 2.17972000e+09
3390.000000 2.14084000e+09
3410.000000 2.09794000e+09
3430.000000 2.05066000e+09
3450.000000 2.00324000e+09
3470.000000 1.96733000e+09
3490.000000 1.92777000e+09
3510.000000 1.89479000e+09
3530.000000 1.86171000e+09
3550.000000 1.82492000e+09
3570.000000 1.79626000e+09
3590.000000 1.75043000e+09
3610.000000 1.72077000e+09
3630.000000 1.68576000e+09
3640.000000 1.67799000e+09
3650.000000 1.63380000e+09
3670.000000 1.61039000e+09
3690.000000 1.57693000e+09
3710.000000 1.52522000e+09
3730.000000 1.47365000e+09
3750.000000 1.50378000e+09
3770.000000 1.48408000e+09
3790.000000 1.52579000e+09
3810.000000 1.56263000e+09
3830.000000 1.40741000e+09
3850.000000 1.56349000e+09
3870.000000 1.54177000e+09
3890.000000 1.33351000e+09
3910.000000 1.51423000e+09
3930.000000 1.47597000e+09
3950.000000 1.45278000e+09
3970.000000 1.23341000e+09
3990.000000 1.40433000e+09
4010.000000 1.38389000e+09
4030.000000 1.32665000e+09
4050.000000 1.34410000e+09
4070.000000 1.30004000e+09
4090.000000 1.23335000e+09
4110.000000 1.12110000e+09
4130.000000 1.23316000e+09
4150.000000 1.21903000e+09
4170.000000 1.20750000e+09
4190.000000 1.18653000e+09
4210.000000 1.16827000e+09
4230.000000 1.14982000e+09
4250.000000 1.12455000e+09
4270.000000 1.09883000e+09
4290.000000 1.08460000e+09
4310.000000 1.05993000e+09
4330.000000 9.96935000e+08
4350.000000 9.23383000e+08
4370.000000 1.00881000e+09
4390.000000 9.85156000e+08
4410.000000 9.80193000e+08
4430.000000 9.68483000e+08
4450.000000 9.52910000e+08
4470.000000 9.13877000e+08
4490.000000 9.22459000e+08
4510.000000 9.08647000e+08
4530.000000 8.95097000e+08
4550.000000 8.78019000e+08
4570.000000 8.65625000e+08
4590.000000 8.50766000e+08
4610.000000 8.36629000e+08
4630.000000 8.22317000e+08
4650.000000 7.94264000e+08
4670.000000 7.96596000e+08
4690.000000 7.81921000e+08
4710.000000 7.64001000e+08
4730.000000 7.63767000e+08
4750.000000 7.50988000e+08
4770.000000 7.42617000e+08
4790.000000 7.31010000e+08
4810.000000 7.18854000e+08
4830.000000 7.05097000e+08
4850.000000 6.70978000e+08
4870.000000 6.12154000e+08
4890.000000 6.73863000e+08
4910.000000 6.66149000e+08
4930.000000 6.45643000e+08
4950.000000 6.45156000e+08
4970.000000 6.38205000e+08
4990.000000 6.28606000e+08
5010.000000 6.10810000e+08
5030.000000 6.09803000e+08
5050.000000 5.98498000e+08
5070.000000 5.92803000e+08
5090.000000 5.83966000e+08
5110.000000 5.75408000e+08
5130.000000 5.66535000e+08
5150.000000 5.58521000e+08
5170.000000 5.50910000e+08
5190.000000 5.43428000e+08
5210.000000 5.35794000e+08
5230.000000 5.28164000e+08
5250.000000 5.20580000e+08
5270.000000 5.13164000e+08
5290.000000 5.06329000e+08
5310.000000 4.99236000e+08
5330.000000 4.92406000e+08
5350.000000 4.85559000e+08
5370.000000 4.78945000e+08
5390.000000 4.72181000e+08
5410.000000 4.64770000e+08
5430.000000 4.59590000e+08
5450.000000 4.53268000e+08
5470.000000 4.47139000e+08
5490.000000 4.41112000e+08
5510.000000 4.35272000e+08
5530.000000 4.29296000e+08
5550.000000 4.23737000e+08
5570.000000 4.18053000e+08
5590.000000 4.12414000e+08
5610.000000 4.07109000e+08
5630.000000 4.01773000e+08
5650.000000 3.96326000e+08
5670.000000 3.90652000e+08
5690.000000 3.83989000e+08
5710.000000 3.79270000e+08
5730.000000 3.74528000e+08
5750.000000 3.69226000e+08
5770.000000 3.65132000e+08
5790.000000 3.60389000e+08
5810.000000 3.55803000e+08
5830.000000 3.51027000e+08
5850.000000 3.46969000e+08
5870.000000 3.34932000e+08
5890.000000 3.37635000e+08
5910.000000 3.34351000e+08
5930.000000 3.30299000e+08
5950.000000 3.26252000e+08
5970.000000 3.22706000e+08
5990.000000 3.18371000e+08
6010.000000 3.14650000e+08
6030.000000 3.10618000e+08
6050.000000 3.06880000e+08
6070.000000 3.03235000e+08
6090.000000 2.99520000e+08
6110.000000 2.95857000e+08
6130.000000 2.92295000e+08
6150.000000 2.88455000e+08
6170.000000 2.85054000e+08
6190.000000 2.81760000e+08
6210.000000 2.78424000e+08
6230.000000 2.75086000e+08
6250.000000 2.71698000e+08
6270.000000 2.68521000e+08
6290.000000 2.65369000e+08
6310.000000 2.62166000e+08
6330.000000 2.59139000e+08
6350.000000 2.56005000e+08
6370.000000 2.53082000e+08
6390.000000 2.50088000e+08
6410.000000 2.47173000e+08
6430.000000 2.44317000e+08
6450.000000 2.41473000e+08
6470.000000 2.38434000e+08
6490.000000 2.35768000e+08
6510.000000 2.33166000e+08
6530.000000 2.29929000e+08
6550.000000 2.23179000e+08
6570.000000 2.01985000e+08
6590.000000 2.21051000e+08
6610.000000 2.20086000e+08
6630.000000 2.17697000e+08
6650.000000 2.15240000e+08
6670.000000 2.11207000e+08
6690.000000 2.08827000e+08
6710.000000 2.08103000e+08
6730.000000 2.05612000e+08
6750.000000 2.03527000e+08
6770.000000 2.01307000e+08
6790.000000 1.98734000e+08
6810.000000 1.96837000e+08
6830.000000 1.94660000e+08
6850.000000 1.92578000e+08
6870.000000 1.90460000e+08
6890.000000 1.88237000e+08
6910.000000 1.86171000e+08
6930.000000 1.84321000e+08
6950.000000 1.82334000e+08
6970.000000 1.80366000e+08
6990.000000 1.78426000e+08
7010.000000 1.76497000e+08
7030.000000 1.74556000e+08
7050.000000 1.72733000e+08
7070.000000 1.68637000e+08
7090.000000 1.69096000e+08
7110.000000 1.67252000e+08
7130.000000 1.65515000e+08
7150.000000 1.63794000e+08
7170.000000 1.62024000e+08
7190.000000 1.60373000e+08
7210.000000 1.58695000e+08
7230.000000 1.56168000e+08
7250.000000 1.55279000e+08
7270.000000 1.53791000e+08
7290.000000 1.51155000e+08
7310.000000 1.50611000e+08
7330.000000 1.49068000e+08
7350.000000 1.47547000e+08
7370.000000 1.46040000e+08
7390.000000 1.44547000e+08
7410.000000 1.43074000e+08
7430.000000 1.41623000e+08
7450.000000 1.40191000e+08
7470.000000 1.38611000e+08
7490.000000 1.37335000e+08
7510.000000 1.35956000e+08
7530.000000 1.34604000e+08
7550.000000 1.33284000e+08
7570.000000 1.31949000e+08
7590.000000 1.30581000e+08
7610.000000 1.29265000e+08
7630.000000 1.28044000e+08
7650.000000 1.26783000e+08
7670.000000 1.25540000e+08
7690.000000 1.24289000e+08
7710.000000 1.23075000e+08
7730.000000 1.21840000e+08
7750.000000 1.20685000e+08
7770.000000 1.19491000e+08
7790.000000 1.18356000e+08
7810.000000 1.17152000e+08
7830.000000 1.16075000e+08
7850.000000 1.15032000e+08
7870.000000 1.13864000e+08
7890.000000 1.12700000e+08
7910.000000 1.11734000e+08
7930.000000 1.10632000e+08
7950.000000 1.09605000e+08
7970.000000 1.08492000e+08
7990.000000 1.07507000e+08
8010.000000 1.06413000e+08
8030.000000 1.05399000e+08
8050.000000 1.04434000e+08
8070.000000 1.03477000e+08
8090.000000 1.02373000e+08
8110.000000 1.01273000e+08
8130.000000 1.00605000e+08
8150.000000 9.95499000e+07
8170.000000 9.87696000e+07
8190.000000 9.76419000e+07
8210.000000 9.64738000e+07
8230.000000 9.56662000e+07
8250.000000 9.49593000e+07
8270.000000 9.36083000e+07
8290.000000 9.31516000e+07
8310.000000 9.23492000e+07
8330.000000 9.14665000e+07
8350.000000 9.02886000e+07
8370.000000 8.96856000e+07
8390.000000 8.89909000e+07
8410.000000 8.81687000e+07
8430.000000 8.73161000e+07
8450.000000 8.60855000e+07
8470.000000 8.56636000e+07
8490.000000 8.48476000e+07
8510.000000 8.38771000e+07
8530.000000 8.34014000e+07
8550.000000 8.18109000e+07
8570.000000 8.26144000e+07
8590.000000 7.98867000e+07
8610.000000 7.95465000e+07
8630.000000 8.09435000e+07
8650.000000 7.89988000e+07
8670.000000 7.51164000e+07
8690.000000 7.88668000e+07
8710.000000 7.88626000e+07
8730.000000 7.68803000e+07
8750.000000 7.10527000e+07
8770.000000 7.48336000e+07
8790.000000 7.63853000e+07
8810.000000 7.58836000e+07
8830.000000 7.49991000e+07
8850.000000 7.13271000e+07
8870.000000 6.69166000e+07
8890.000000 7.25744000e+07
8910.000000 7.26950000e+07
8930.000000 7.21288000e+07
8950.000000 7.17033000e+07
8970.000000 7.09579000e+07
8990.000000 6.93280000e+07
9010.000000 6.30759000e+07
9030.000000 6.56012000e+07
9050.000000 6.82646000e+07
9070.000000 6.75517000e+07
9090.000000 6.74235000e+07
9110.000000 6.70597000e+07
9130.000000 6.65267000e+07
9150.000000 6.59707000e+07
9170.000000 6.52352000e+07
9190.000000 6.45769000e+07
9210.000000 6.22893000e+07
9230.000000 5.61957000e+07
9250.000000 6.13907000e+07
9270.000000 6.23930000e+07
9290.000000 6.21465000e+07
9310.000000 6.14712000e+07
9330.000000 6.11214000e+07
9350.000000 6.06059000e+07
9370.000000 6.01930000e+07
9390.000000 5.97104000e+07
9410.000000 5.92101000e+07
9430.000000 5.87305000e+07
9450.000000 5.82543000e+07
9470.000000 5.75044000e+07
9490.000000 5.72456000e+07
9510.000000 5.61470000e+07
9530.000000 5.42191000e+07
9550.000000 4.92089000e+07
9570.000000 5.43016000e+07
9590.000000 5.48086000e+07
9610.000000 5.44257000e+07
9630.000000 5.39195000e+07
9650.000000 5.37488000e+07
9670.000000 5.33213000e+07
9690.000000 5.28567000e+07
9710.000000 5.22116000e+07
9730.000000 5.20489000e+07
9750.000000 5.16493000e+07
9770.000000 5.12447000e+07
9790.000000 5.08390000e+07
9810.000000 5.04284000e+07
9830.000000 5.00479000e+07
9850.000000 4.96507000e+07
9870.000000 4.92564000e+07
9890.000000 4.88571000e+07
9910.000000 4.83724000e+07
9930.000000 4.81280000e+07
9950.000000 4.77559000e+07
9970.000000 4.73750000e+07
9990.000000 4.69817000e+07
10025.000000 4.48849000e+07
10075.000000 4.34866000e+07
10125.000000 4.44657000e+07
10175.000000 4.38078000e+07
10225.000000 4.29660000e+07
10275.000000 4.21813000e+07
10325.000000 4.12614000e+07
10375.000000 4.06301000e+07
10425.000000 3.98808000e+07
10475.000000 3.91508000e+07
10525.000000 3.84328000e+07
10575.000000 3.77367000e+07
10625.000000 3.70554000e+07
10675.000000 3.63322000e+07
10725.000000 3.57355000e+07
10775.000000 3.50963000e+07
10825.000000 3.41588000e+07
10875.000000 3.38040000e+07
10925.000000 3.11271000e+07
10975.000000 3.21774000e+07
11025.000000 3.19575000e+07
11075.000000 3.15375000e+07
11125.000000 3.10051000e+07
11175.000000 3.04719000e+07
11225.000000 2.99379000e+07
11275.000000 2.94379000e+07
11325.000000 2.89263000e+07
11375.000000 2.84440000e+07
11425.000000 2.79621000e+07
11475.000000 2.74958000e+07
11525.000000 2.70370000e+07
11575.000000 2.65821000e+07
11625.000000 2.61359000e+07
11675.000000 2.57003000e+07
11725.000000 2.52900000e+07
11775.000000 2.48752000e+07
11825.000000 2.44680000e+07
11875.000000 2.40714000e+07
11925.000000 2.36814000e+07
11975.000000 2.31136000e+07
12025.000000 2.29252000e+07
12075.000000 2.25585000e+07
12125.000000 2.21983000e+07
12175.000000 2.18463000e+07
12225.000000 2.15008000e+07
12275.000000 2.11625000e+07
12325.000000 2.08302000e+07
12375.000000 2.05043000e+07
12425.000000 2.01856000e+07
12475.000000 1.98702000e+07
12525.000000 1.95279000e+07
12575.000000 1.92619000e+07
12625.000000 1.89669000e+07
12675.000000 1.86794000e+07
12725.000000 1.83949000e+07
12775.000000 1.78636000e+07
12825.000000 1.67020000e+07
12875.000000 1.75016000e+07
12925.000000 1.73107000e+07
12975.000000 1.69569000e+07
13025.000000 1.67952000e+07
13075.000000 1.65500000e+07
