# Kurucz ODFNEW /NOVER, alpha: 0.0 (2003)
# teff = 7750 K (value for the effective temperature for the model. Temperatures are given in K)
# logg = 1 log(cm/s2) (value for Log(G) for the model.)
# lh = 1.25  (l/Hp where l is the  mixing length of the convective element and Hp is the pressure scale height)
# meta = 0  (value for the Metallicity for the model.)
# vtur = 2 km/s (Microturbulence velocity)
# alpha = 0  (Alpha)
#
# column 1: WAVELENGTH (ANGSTROM), Wavelength in Angstrom
# column 2: FLUX (ERG/CM2/S/A), Flux in erg/cm2/s/A
385.000000 4.82295000e-23
395.000000 3.94223000e-22
405.000000 2.70492000e-21
414.000000 1.40551000e-20
422.000000 5.71893000e-20
430.000000 2.20455000e-19
441.000000 1.29764000e-18
451.000000 6.01542000e-18
460.000000 2.25486000e-17
470.000000 9.20420000e-17
480.000000 3.53544000e-16
490.000000 1.28272000e-15
500.000000 4.41105000e-15
506.000000 8.59455000e-15
512.000000 1.78863000e-14
520.000000 4.42824000e-14
530.000000 1.34111000e-13
540.000000 3.83370000e-13
550.000000 1.05307000e-12
560.000000 2.78559000e-12
570.000000 7.10997000e-12
580.000000 1.72653000e-11
590.000000 4.19251000e-11
600.000000 9.71805000e-11
610.000000 2.18839000e-10
620.000000 4.79428000e-10
630.000000 1.02322000e-09
640.000000 2.12986000e-09
650.000000 4.32949000e-09
658.000000 7.51268000e-09
665.000000 1.20296000e-08
675.000000 2.31507000e-08
685.000000 4.36620000e-08
695.000000 8.07704000e-08
705.000000 1.44355000e-07
716.000000 2.77064000e-07
726.000000 2.44496000e-08
735.000000 3.80785000e-08
745.000000 6.14055000e-08
755.000000 9.76744000e-08
765.000000 1.53292000e-07
775.000000 2.37463000e-07
785.000000 3.63503000e-07
795.000000 5.44430000e-07
805.000000 8.17436000e-07
815.000000 1.21131000e-06
825.000000 1.77077000e-06
835.000000 2.56115000e-06
845.000000 3.67035000e-06
855.000000 5.20755000e-06
865.000000 7.32085000e-06
875.000000 1.01683000e-05
885.000000 1.40860000e-05
895.000000 1.92977000e-05
905.000000 2.60791000e-05
915.000000 1.88895000e-02
925.000000 6.00037000e-02
935.000000 7.71709000e-02
945.000000 1.03836000e-01
955.000000 1.49349000e-01
965.000000 1.97503000e-01
975.000000 2.47535000e-01
985.000000 3.21229000e-01
995.000000 3.92968000e-01
1005.000000 5.42626000e-01
1015.000000 6.90544000e-01
1025.000000 8.45093000e-01
1035.000000 1.07818000e+00
1045.000000 1.37406000e+00
1055.000000 1.71413000e+00
1065.000000 2.06027000e+00
1075.000000 2.59281000e+00
1085.000000 3.18834000e+00
1095.000000 3.79047000e+00
1105.000000 1.19058000e+01
1115.000000 3.90176000e+01
1125.000000 5.74043000e+01
1135.000000 7.78009000e+01
1145.000000 9.48472000e+01
1155.000000 1.02526000e+02
1165.000000 1.32414000e+02
1175.000000 1.44001000e+02
1185.000000 1.57235000e+02
1195.000000 5.34904000e+01
1205.000000 4.48254000e+01
1215.000000 1.06765000e+01
1225.000000 5.26549000e+01
1235.000000 1.47417000e+02
1245.000000 3.60439000e+02
1255.000000 8.14990000e+02
1265.000000 8.32596000e+02
1275.000000 1.67632000e+03
1285.000000 2.72230000e+03
1295.000000 3.58011000e+03
1305.000000 2.49947000e+03
1315.000000 5.18202000e+03
1325.000000 6.84910000e+03
1335.000000 7.13455000e+03
1345.000000 1.05883000e+04
1355.000000 1.12451000e+04
1365.000000 1.21629000e+04
1375.000000 1.38931000e+04
1385.000000 1.61867000e+04
1395.000000 1.93667000e+04
1405.000000 2.24928000e+04
1415.000000 2.23416000e+04
1425.000000 2.74074000e+04
1435.000000 2.72683000e+04
1442.000000 3.23398000e+04
1447.000000 3.73669000e+04
1455.000000 4.74136000e+04
1465.000000 4.90153000e+04
1475.000000 5.39616000e+04
1485.000000 6.33370000e+04
1495.000000 7.48141000e+04
1505.000000 8.29511000e+04
1512.000000 7.86451000e+04
1517.000000 9.22863000e+04
1525.000000 1.01816000e+05
1535.000000 6.70422000e+05
1545.000000 2.23321000e+06
1555.000000 1.75852000e+06
1565.000000 1.25352000e+06
1575.000000 2.22807000e+06
1585.000000 2.79703000e+06
1595.000000 4.00197000e+06
1605.000000 3.08883000e+06
1615.000000 2.59961000e+06
1625.000000 2.07837000e+06
1635.000000 2.28471000e+06
1645.000000 3.08801000e+06
1655.000000 1.73742000e+06
1665.000000 2.51663000e+06
1672.000000 4.26404000e+05
1677.000000 3.19807000e+06
1685.000000 4.96914000e+06
1695.000000 5.09295000e+06
1705.000000 4.05612000e+06
1715.000000 5.15392000e+06
1725.000000 5.62962000e+06
1735.000000 7.06471000e+06
1745.000000 6.12462000e+06
1755.000000 8.21471000e+06
1765.000000 6.18856000e+06
1775.000000 8.13048000e+06
1785.000000 6.69788000e+06
1795.000000 1.00596000e+07
1805.000000 8.50976000e+06
1815.000000 9.55665000e+06
1825.000000 8.09432000e+06
1835.000000 7.20583000e+06
1845.000000 6.77344000e+06
1855.000000 7.77605000e+06
1865.000000 8.45983000e+06
1875.000000 8.24103000e+06
1885.000000 8.50328000e+06
1895.000000 9.36016000e+06
1905.000000 8.29858000e+06
1915.000000 8.85573000e+06
1925.000000 9.27289000e+06
1935.000000 7.14395000e+06
1945.000000 9.98132000e+06
1955.000000 1.01367000e+07
1967.000000 1.11254000e+07
1976.000000 1.09635000e+07
1984.000000 1.05144000e+07
1995.000000 1.02209000e+07
2005.000000 9.56343000e+06
2015.000000 8.56863000e+06
2025.000000 8.32748000e+06
2035.000000 9.62923000e+06
2045.000000 1.08001000e+07
2055.000000 9.23753000e+06
2065.000000 8.77466000e+06
2074.000000 1.14084000e+07
2078.000000 1.19865000e+07
2085.000000 1.14018000e+07
2095.000000 1.06812000e+07
2105.000000 9.86752000e+06
2115.000000 9.90749000e+06
2125.000000 1.03509000e+07
2135.000000 7.54835000e+06
2145.000000 9.45790000e+06
2155.000000 9.97711000e+06
2165.000000 8.66348000e+06
2175.000000 8.76636000e+06
2185.000000 9.10294000e+06
2195.000000 1.02955000e+07
2205.000000 9.64831000e+06
2215.000000 7.85751000e+06
2225.000000 7.45328000e+06
2235.000000 9.85410000e+06
2245.000000 8.66174000e+06
2255.000000 7.28688000e+06
2265.000000 7.40869000e+06
2275.000000 8.71796000e+06
2285.000000 9.25801000e+06
2295.000000 8.37784000e+06
2305.000000 8.66197000e+06
2315.000000 7.96307000e+06
2325.000000 7.49887000e+06
2335.000000 5.04418000e+06
2345.000000 3.88148000e+06
2355.000000 6.71419000e+06
2365.000000 3.81368000e+06
2375.000000 5.38710000e+06
2385.000000 2.94861000e+06
2395.000000 4.08384000e+06
2405.000000 3.82388000e+06
2415.000000 5.08358000e+06
2425.000000 8.07448000e+06
2435.000000 7.71157000e+06
2445.000000 8.38531000e+06
2455.000000 8.27339000e+06
2465.000000 7.84741000e+06
2475.000000 7.47847000e+06
2485.000000 7.87290000e+06
2495.000000 7.52245000e+06
2505.000000 9.70247000e+06
2513.000000 7.32619000e+06
2518.000000 8.21870000e+06
2525.000000 6.63688000e+06
2535.000000 6.51251000e+06
2545.000000 6.57311000e+06
2555.000000 7.80175000e+06
2565.000000 6.73727000e+06
2575.000000 7.85716000e+06
2585.000000 7.08275000e+06
2595.000000 6.24449000e+06
2605.000000 5.42503000e+06
2615.000000 5.06067000e+06
2625.000000 6.64493000e+06
2635.000000 8.10243000e+06
2645.000000 1.18473000e+07
2655.000000 1.18796000e+07
2665.000000 9.58980000e+06
2675.000000 1.05601000e+07
2685.000000 1.01770000e+07
2695.000000 9.83031000e+06
2705.000000 1.03710000e+07
2715.000000 8.93165000e+06
2725.000000 9.10010000e+06
2735.000000 9.88532000e+06
2745.000000 5.69767000e+06
2755.000000 6.80295000e+06
2765.000000 7.85466000e+06
2775.000000 9.66746000e+06
2785.000000 7.85445000e+06
2795.000000 2.90064000e+06
2805.000000 3.81478000e+06
2815.000000 9.33049000e+06
2825.000000 1.14842000e+07
2835.000000 1.08361000e+07
2845.000000 1.04417000e+07
2855.000000 9.48869000e+06
2865.000000 1.13043000e+07
2875.000000 1.07655000e+07
2885.000000 1.11748000e+07
2895.000000 1.04136000e+07
2910.000000 1.27165000e+07
2930.000000 1.19638000e+07
2950.000000 1.18688000e+07
2970.000000 1.27716000e+07
2990.000000 1.30135000e+07
3010.000000 1.35999000e+07
3030.000000 1.34169000e+07
3050.000000 1.32958000e+07
3070.000000 1.33438000e+07
3090.000000 1.39958000e+07
3110.000000 1.33755000e+07
3130.000000 1.32697000e+07
3150.000000 1.40444000e+07
3170.000000 1.39544000e+07
3190.000000 1.29781000e+07
3210.000000 1.37605000e+07
3230.000000 1.31754000e+07
3250.000000 1.38711000e+07
3270.000000 1.40768000e+07
3290.000000 1.43186000e+07
3310.000000 1.47104000e+07
3330.000000 1.42937000e+07
3350.000000 1.40886000e+07
3370.000000 1.39355000e+07
3390.000000 1.42072000e+07
3410.000000 1.47201000e+07
3430.000000 1.49492000e+07
3450.000000 1.48505000e+07
3470.000000 1.45696000e+07
3490.000000 1.43716000e+07
3510.000000 1.49975000e+07
3530.000000 1.52153000e+07
3550.000000 1.55815000e+07
3570.000000 1.48869000e+07
3590.000000 1.49545000e+07
3610.000000 1.50561000e+07
3630.000000 1.52817000e+07
3640.000000 1.49619000e+07
3650.000000 1.56319000e+07
3670.000000 1.54981000e+07
3690.000000 1.71057000e+07
3710.000000 2.32027000e+07
3730.000000 3.60756000e+07
3750.000000 5.24139000e+07
3770.000000 5.30150000e+07
3790.000000 6.12299000e+07
3810.000000 6.66642000e+07
3830.000000 5.43461000e+07
3850.000000 6.75127000e+07
3870.000000 6.94880000e+07
3890.000000 5.36734000e+07
3910.000000 6.62155000e+07
3930.000000 4.96545000e+07
3950.000000 6.53907000e+07
3970.000000 4.48966000e+07
3990.000000 6.67271000e+07
4010.000000 6.64614000e+07
4030.000000 6.52235000e+07
4050.000000 6.47853000e+07
4070.000000 6.35657000e+07
4090.000000 6.29455000e+07
4110.000000 5.09447000e+07
4130.000000 6.21098000e+07
4150.000000 6.28688000e+07
4170.000000 6.06120000e+07
4190.000000 6.04532000e+07
4210.000000 5.98695000e+07
4230.000000 5.89068000e+07
4250.000000 5.85456000e+07
4270.000000 5.71120000e+07
4290.000000 5.75572000e+07
4310.000000 5.45987000e+07
4330.000000 5.19937000e+07
4350.000000 4.54604000e+07
4370.000000 5.56289000e+07
4390.000000 5.40265000e+07
4410.000000 5.26814000e+07
4430.000000 5.32895000e+07
4450.000000 5.32111000e+07
4470.000000 5.26681000e+07
4490.000000 5.21813000e+07
4510.000000 5.25529000e+07
4530.000000 5.08654000e+07
4550.000000 4.94821000e+07
4570.000000 5.10053000e+07
4590.000000 4.90436000e+07
4610.000000 5.06469000e+07
4630.000000 4.87517000e+07
4650.000000 4.94256000e+07
4670.000000 4.88080000e+07
4690.000000 4.78480000e+07
4710.000000 4.62521000e+07
4730.000000 4.74227000e+07
4750.000000 4.74583000e+07
4770.000000 4.65297000e+07
4790.000000 4.61140000e+07
4810.000000 4.55099000e+07
4830.000000 4.48334000e+07
4850.000000 4.08897000e+07
4870.000000 3.34018000e+07
4890.000000 4.32232000e+07
4910.000000 4.31234000e+07
4930.000000 4.20193000e+07
4950.000000 4.23647000e+07
4970.000000 4.24606000e+07
4990.000000 4.10860000e+07
5010.000000 3.95459000e+07
5030.000000 4.01389000e+07
5050.000000 3.97241000e+07
5070.000000 3.98260000e+07
5090.000000 3.93857000e+07
5110.000000 3.89929000e+07
5130.000000 3.80939000e+07
5150.000000 3.74364000e+07
5170.000000 3.65681000e+07
5190.000000 3.62574000e+07
5210.000000 3.62516000e+07
5230.000000 3.55879000e+07
5250.000000 3.60143000e+07
5270.000000 3.44230000e+07
5290.000000 3.53640000e+07
5310.000000 3.43753000e+07
5330.000000 3.38937000e+07
5350.000000 3.46055000e+07
5370.000000 3.40608000e+07
5390.000000 3.35803000e+07
5410.000000 3.30146000e+07
5430.000000 3.27117000e+07
5450.000000 3.29312000e+07
5470.000000 3.25423000e+07
5490.000000 3.23631000e+07
5510.000000 3.18941000e+07
5530.000000 3.15566000e+07
5550.000000 3.15987000e+07
5570.000000 3.11572000e+07
5590.000000 3.09118000e+07
5610.000000 3.07241000e+07
5630.000000 3.04693000e+07
5650.000000 2.99224000e+07
5670.000000 2.96285000e+07
5690.000000 2.96091000e+07
5710.000000 2.93639000e+07
5730.000000 2.91799000e+07
5750.000000 2.88348000e+07
5770.000000 2.85991000e+07
5790.000000 2.82524000e+07
5810.000000 2.80247000e+07
5830.000000 2.77374000e+07
5850.000000 2.75404000e+07
5870.000000 2.72787000e+07
5890.000000 2.66551000e+07
5910.000000 2.67511000e+07
5930.000000 2.65034000e+07
5950.000000 2.61798000e+07
5970.000000 2.60290000e+07
5990.000000 2.56444000e+07
6010.000000 2.54479000e+07
6030.000000 2.52970000e+07
6050.000000 2.50271000e+07
6070.000000 2.48645000e+07
6090.000000 2.45765000e+07
6110.000000 2.43110000e+07
6130.000000 2.40212000e+07
6150.000000 2.34131000e+07
6170.000000 2.35990000e+07
6190.000000 2.35136000e+07
6210.000000 2.33370000e+07
6230.000000 2.30078000e+07
6250.000000 2.23390000e+07
6270.000000 2.27353000e+07
6290.000000 2.25186000e+07
6310.000000 2.21140000e+07
6330.000000 2.20638000e+07
6350.000000 2.16961000e+07
6370.000000 2.15294000e+07
6390.000000 2.14678000e+07
6410.000000 2.11626000e+07
6430.000000 2.10666000e+07
6450.000000 2.06347000e+07
6470.000000 2.07944000e+07
6490.000000 2.03140000e+07
6510.000000 2.02383000e+07
6530.000000 2.00933000e+07
6550.000000 1.85965000e+07
6570.000000 1.46791000e+07
6590.000000 1.93621000e+07
6610.000000 1.94262000e+07
6630.000000 1.93846000e+07
6650.000000 1.92494000e+07
6670.000000 1.90563000e+07
6690.000000 1.89223000e+07
6710.000000 1.87720000e+07
6730.000000 1.85807000e+07
6750.000000 1.84295000e+07
6770.000000 1.83281000e+07
6790.000000 1.81460000e+07
6810.000000 1.80200000e+07
6830.000000 1.78064000e+07
6850.000000 1.76914000e+07
6870.000000 1.75702000e+07
6890.000000 1.74302000e+07
6910.000000 1.72766000e+07
6930.000000 1.71245000e+07
6950.000000 1.69956000e+07
6970.000000 1.68416000e+07
6990.000000 1.67238000e+07
7010.000000 1.64790000e+07
7030.000000 1.64311000e+07
7050.000000 1.63031000e+07
7070.000000 1.61862000e+07
7090.000000 1.60620000e+07
7110.000000 1.56893000e+07
7130.000000 1.57341000e+07
7150.000000 1.56329000e+07
7170.000000 1.55209000e+07
7190.000000 1.53618000e+07
7210.000000 1.52513000e+07
7230.000000 1.50878000e+07
7250.000000 1.50047000e+07
7270.000000 1.49180000e+07
7290.000000 1.47519000e+07
7310.000000 1.45895000e+07
7330.000000 1.45226000e+07
7350.000000 1.44304000e+07
7370.000000 1.43633000e+07
7390.000000 1.42146000e+07
7410.000000 1.40618000e+07
7430.000000 1.39084000e+07
7450.000000 1.38318000e+07
7470.000000 1.36491000e+07
7490.000000 1.36045000e+07
7510.000000 1.35061000e+07
7530.000000 1.34584000e+07
7550.000000 1.33951000e+07
7570.000000 1.32607000e+07
7590.000000 1.31830000e+07
7610.000000 1.30891000e+07
7630.000000 1.29863000e+07
7650.000000 1.28425000e+07
7670.000000 1.27436000e+07
7690.000000 1.26729000e+07
7710.000000 1.25217000e+07
7730.000000 1.24974000e+07
7750.000000 1.23984000e+07
7770.000000 1.20233000e+07
7790.000000 1.22274000e+07
7810.000000 1.21308000e+07
7830.000000 1.20069000e+07
7850.000000 1.18767000e+07
7870.000000 1.17884000e+07
7890.000000 1.16719000e+07
7910.000000 1.16328000e+07
7930.000000 1.15634000e+07
7950.000000 1.14242000e+07
7970.000000 1.14334000e+07
7990.000000 1.12045000e+07
8010.000000 1.12514000e+07
8030.000000 1.11574000e+07
8050.000000 1.10927000e+07
8070.000000 1.09991000e+07
8090.000000 1.09235000e+07
8110.000000 1.08542000e+07
8130.000000 1.07872000e+07
8150.000000 1.07082000e+07
8170.000000 1.06316000e+07
8190.000000 1.04292000e+07
8210.000000 1.03952000e+07
8230.000000 1.03236000e+07
8250.000000 1.02642000e+07
8270.000000 1.03011000e+07
8290.000000 1.01983000e+07
8310.000000 1.00887000e+07
8330.000000 9.87743000e+06
8350.000000 9.95120000e+06
8370.000000 9.67785000e+06
8390.000000 9.73345000e+06
8410.000000 9.69094000e+06
8430.000000 9.98004000e+06
8450.000000 9.76560000e+06
8470.000000 9.48008000e+06
8490.000000 1.03966000e+07
8510.000000 9.24187000e+06
8530.000000 1.06162000e+07
8550.000000 8.71962000e+06
8570.000000 1.08872000e+07
8590.000000 1.02188000e+07
8610.000000 9.91675000e+06
8630.000000 1.11835000e+07
8650.000000 1.10120000e+07
8670.000000 8.64080000e+06
8690.000000 1.08360000e+07
8710.000000 1.10679000e+07
8730.000000 1.08956000e+07
8750.000000 8.83878000e+06
8770.000000 1.06319000e+07
8790.000000 1.08152000e+07
8810.000000 1.06904000e+07
8830.000000 1.04763000e+07
8850.000000 1.00942000e+07
8870.000000 8.55719000e+06
8890.000000 1.03497000e+07
8910.000000 1.02895000e+07
8930.000000 1.02061000e+07
8950.000000 1.02320000e+07
8970.000000 1.01425000e+07
8990.000000 9.98551000e+06
9010.000000 8.40099000e+06
9030.000000 9.28230000e+06
9050.000000 9.82686000e+06
9070.000000 9.54132000e+06
9090.000000 9.41047000e+06
9110.000000 9.55713000e+06
9130.000000 9.55643000e+06
9150.000000 9.54125000e+06
9170.000000 9.43964000e+06
9190.000000 9.30403000e+06
9210.000000 9.08424000e+06
9230.000000 7.36187000e+06
9250.000000 8.80419000e+06
9270.000000 8.84076000e+06
9290.000000 9.05854000e+06
9310.000000 9.01271000e+06
9330.000000 8.93213000e+06
9350.000000 8.89180000e+06
9370.000000 8.84015000e+06
9390.000000 8.70640000e+06
9410.000000 8.46479000e+06
9430.000000 8.58948000e+06
9450.000000 8.56498000e+06
9470.000000 8.51539000e+06
9490.000000 8.47494000e+06
9510.000000 8.38518000e+06
9530.000000 8.16211000e+06
9550.000000 6.70907000e+06
9570.000000 8.10842000e+06
9590.000000 8.17172000e+06
9610.000000 8.06472000e+06
9630.000000 7.92117000e+06
9650.000000 8.00043000e+06
9670.000000 7.86947000e+06
9690.000000 7.86230000e+06
9710.000000 7.87150000e+06
9730.000000 7.80972000e+06
9750.000000 7.72659000e+06
9770.000000 7.71196000e+06
9790.000000 7.65690000e+06
9810.000000 7.59596000e+06
9830.000000 7.53662000e+06
9850.000000 7.44664000e+06
9870.000000 7.42036000e+06
9890.000000 7.33415000e+06
9910.000000 7.33066000e+06
9930.000000 7.26983000e+06
9950.000000 7.23340000e+06
9970.000000 7.21123000e+06
9990.000000 7.16049000e+06
10025.000000 6.84706000e+06
10075.000000 6.50648000e+06
10125.000000 6.77422000e+06
10175.000000 6.72163000e+06
10225.000000 6.63191000e+06
10275.000000 6.53184000e+06
10325.000000 6.39947000e+06
10375.000000 6.31554000e+06
10425.000000 6.22044000e+06
10475.000000 6.06163000e+06
10525.000000 5.98683000e+06
10575.000000 5.91418000e+06
10625.000000 5.82160000e+06
10675.000000 5.63860000e+06
10725.000000 5.61333000e+06
10775.000000 5.54156000e+06
10825.000000 5.45994000e+06
10875.000000 5.37672000e+06
10925.000000 4.85101000e+06
10975.000000 5.14908000e+06
11025.000000 5.16695000e+06
11075.000000 5.09276000e+06
11125.000000 5.00660000e+06
11175.000000 4.93655000e+06
11225.000000 4.86756000e+06
11275.000000 4.71691000e+06
11325.000000 4.65362000e+06
11375.000000 4.63754000e+06
11425.000000 4.55519000e+06
11475.000000 4.52045000e+06
11525.000000 4.45748000e+06
11575.000000 4.38841000e+06
11625.000000 4.28411000e+06
11675.000000 4.19996000e+06
11725.000000 4.20450000e+06
11775.000000 4.07594000e+06
11825.000000 4.05178000e+06
11875.000000 3.97552000e+06
11925.000000 3.97458000e+06
11975.000000 3.88655000e+06
12025.000000 3.85195000e+06
12075.000000 3.79092000e+06
12125.000000 3.74050000e+06
12175.000000 3.69891000e+06
12225.000000 3.64427000e+06
12275.000000 3.58713000e+06
12325.000000 3.54172000e+06
12375.000000 3.49766000e+06
12425.000000 3.45639000e+06
12475.000000 3.39799000e+06
12525.000000 3.35747000e+06
12575.000000 3.29128000e+06
12625.000000 3.25864000e+06
12675.000000 3.22782000e+06
12725.000000 3.18762000e+06
12775.000000 3.13132000e+06
12825.000000 2.83829000e+06
12875.000000 3.05332000e+06
12925.000000 3.01937000e+06
12975.000000 2.97981000e+06
13025.000000 2.94321000e+06
13075.000000 2.90554000e+06
13125.000000 2.86595000e+06
13175.000000 2.81841000e+06
13225.000000 2.79347000e+06
13275.000000 2.75751000e+06
13325.000000 2.72242000e+06
13375.000000 2.68758000e+06
13425.000000 2.65171000e+06
13475.000000 2.61816000e+06
13525.000000 2.57845000e+06
13575.000000 2.54702000e+06
13625.000000 2.51944000e+06
13675.000000 2.48432000e+06
13725.000000 2.43726000e+06
13775.000000 2.42238000e+06
13825.000000 2.39405000e+06
13875.000000 2.36919000e+06
13925.000000 2.33356000e+06
13975.000000 2.30879000e+06
14025.000000 2.28144000e+06
14075.000000 2.25461000e+06
14125.000000 2.22508000e+06
14175.000000 2.19872000e+06
14225.000000 2.17138000e+06
14275.000000 2.14492000e+06
14325.000000 2.11969000e+06
14375.000000 2.09567000e+06
14425.000000 2.03953000e+06
14475.000000 2.04434000e+06
14525.000000 2.00475000e+06
14570.000000 1.99789000e+06
14620.000000 1.97032000e+06
14675.000000 1.95226000e+06
14725.000000 1.92651000e+06
14775.000000 1.89779000e+06
14825.000000 1.88038000e+06
14875.000000 1.85057000e+06
14925.000000 1.83971000e+06
14975.000000 1.81602000e+06
15025.000000 1.78009000e+06
15075.000000 1.76350000e+06
15125.000000 1.74593000e+06
15175.000000 1.72806000e+06
