# Kurucz ODFNEW /NOVER, alpha: 0.0 (2003)
# teff = 32000 K (value for the effective temperature for the model. Temperatures are given in K)
# logg = 4 log(cm/s2) (value for Log(G) for the model.)
# lh = 1.25  (l/Hp where l is the  mixing length of the convective element and Hp is the pressure scale height)
# meta = 0  (value for the Metallicity for the model.)
# vtur = 2 km/s (Microturbulence velocity)
# alpha = 0  (Alpha)
#
# column 1: WAVELENGTH (ANGSTROM), Wavelength in Angstrom
# column 2: FLUX (ERG/CM2/S/A), Flux in erg/cm2/s/A
147.200000 7.53047000e-07
151.000000 2.10001000e-06
155.200000 6.15322000e-06
158.800000 1.47925000e-05
162.000000 3.12563000e-05
166.000000 7.65790000e-05
170.300000 1.91313000e-04
173.400000 3.61286000e-04
176.800000 7.07558000e-04
180.200000 1.34927000e-03
181.700000 1.78660000e-03
186.100000 3.93152000e-03
191.000000 9.09010000e-03
193.900000 1.46344000e-02
198.400000 2.99010000e-02
201.800000 5.01819000e-02
205.000000 8.04726000e-02
210.500000 1.75704000e-01
216.200000 3.77564000e-01
219.800000 6.03771000e-01
223.000000 9.02639000e-01
226.800000 1.44193000e+00
230.000000 9.57206000e+02
234.000000 2.10354000e+03
240.000000 3.35453000e+03
246.500000 5.70455000e+03
252.400000 9.37244000e+03
256.800000 1.26890000e+04
260.000000 2.30830000e+04
264.000000 4.01372000e+04
268.500000 6.00585000e+04
273.500000 8.17498000e+04
278.500000 1.01465000e+05
284.000000 2.15329000e+05
290.000000 3.08649000e+05
296.000000 4.03405000e+05
301.000000 6.54862000e+05
308.000000 1.51305000e+06
318.000000 3.41882000e+06
328.000000 4.88525000e+06
338.000000 8.80390000e+06
348.000000 1.35438000e+07
357.000000 2.62495000e+07
366.000000 4.99921000e+07
375.000000 5.89801000e+07
385.000000 8.29605000e+07
395.000000 1.32245000e+08
405.000000 1.62807000e+08
414.000000 2.04410000e+08
422.000000 2.29400000e+08
430.000000 2.62081000e+08
441.000000 3.25317000e+08
451.000000 3.64096000e+08
460.000000 3.86842000e+08
470.000000 4.59238000e+08
480.000000 5.39194000e+08
490.000000 5.82103000e+08
500.000000 7.03369000e+08
506.000000 1.37519000e+09
512.000000 8.38725000e+09
520.000000 7.92985000e+09
530.000000 7.07484000e+09
540.000000 6.53114000e+09
550.000000 7.61068000e+09
560.000000 9.77851000e+09
570.000000 1.04549000e+10
580.000000 9.57334000e+09
590.000000 1.01340000e+10
600.000000 8.03480000e+09
610.000000 9.88001000e+09
620.000000 1.17860000e+10
630.000000 1.13636000e+10
640.000000 1.13056000e+10
650.000000 1.08650000e+10
658.000000 9.23629000e+09
665.000000 1.10440000e+10
675.000000 1.23762000e+10
685.000000 9.75655000e+09
695.000000 1.28963000e+10
705.000000 1.02697000e+10
716.000000 1.37632000e+10
726.000000 1.34245000e+10
735.000000 1.34639000e+10
745.000000 1.28035000e+10
755.000000 1.28274000e+10
765.000000 1.29828000e+10
775.000000 1.34804000e+10
785.000000 1.38489000e+10
795.000000 1.39456000e+10
805.000000 1.33350000e+10
815.000000 1.32412000e+10
825.000000 1.39860000e+10
835.000000 1.13977000e+10
845.000000 1.33534000e+10
855.000000 1.32366000e+10
865.000000 1.36332000e+10
875.000000 1.37111000e+10
885.000000 1.39335000e+10
895.000000 1.40185000e+10
905.000000 1.36005000e+10
915.000000 1.51560000e+10
925.000000 4.40826000e+10
935.000000 6.64666000e+10
945.000000 8.14227000e+10
955.000000 8.64389000e+10
965.000000 9.44711000e+10
975.000000 4.22452000e+10
985.000000 7.65282000e+10
995.000000 7.06217000e+10
1005.000000 7.35611000e+10
1015.000000 7.68141000e+10
1025.000000 6.41350000e+10
1035.000000 7.42820000e+10
1045.000000 8.40757000e+10
1055.000000 8.00185000e+10
1065.000000 7.05679000e+10
1075.000000 7.25309000e+10
1085.000000 6.72671000e+10
1095.000000 7.07099000e+10
1105.000000 6.78007000e+10
1115.000000 6.65778000e+10
1125.000000 5.56957000e+10
1135.000000 6.38749000e+10
1145.000000 6.14738000e+10
1155.000000 5.88269000e+10
1165.000000 5.70247000e+10
1175.000000 3.84445000e+10
1185.000000 5.18537000e+10
1195.000000 5.05568000e+10
1205.000000 4.83357000e+10
1215.000000 3.98109000e+10
1225.000000 4.69862000e+10
1235.000000 4.98272000e+10
1245.000000 4.78487000e+10
1255.000000 4.76681000e+10
1265.000000 4.87278000e+10
1275.000000 4.97532000e+10
1285.000000 4.95043000e+10
1295.000000 4.62627000e+10
1305.000000 4.59568000e+10
1315.000000 4.80534000e+10
1325.000000 4.63201000e+10
1335.000000 4.48488000e+10
1345.000000 4.49049000e+10
1355.000000 4.36454000e+10
1365.000000 4.22339000e+10
1375.000000 4.10300000e+10
1385.000000 3.97837000e+10
1395.000000 3.21919000e+10
1405.000000 3.28651000e+10
1415.000000 3.76386000e+10
1425.000000 3.39601000e+10
1435.000000 3.59052000e+10
1442.000000 3.55339000e+10
1447.000000 3.53068000e+10
1455.000000 3.37024000e+10
1465.000000 3.28875000e+10
1475.000000 3.30093000e+10
1485.000000 3.29199000e+10
1495.000000 3.18556000e+10
1505.000000 3.10129000e+10
1512.000000 3.02353000e+10
1517.000000 3.04571000e+10
1525.000000 2.94143000e+10
1535.000000 2.58841000e+10
1545.000000 2.22342000e+10
1555.000000 2.22608000e+10
1565.000000 2.47551000e+10
1575.000000 2.59043000e+10
1585.000000 2.59893000e+10
1595.000000 2.56970000e+10
1605.000000 2.42532000e+10
1615.000000 2.32085000e+10
1625.000000 2.36827000e+10
1635.000000 2.38646000e+10
1645.000000 2.36240000e+10
1655.000000 2.37740000e+10
1665.000000 2.34037000e+10
1672.000000 2.16827000e+10
1677.000000 2.49212000e+10
1685.000000 2.37165000e+10
1695.000000 2.28842000e+10
1705.000000 2.25958000e+10
1715.000000 2.15773000e+10
1725.000000 2.08620000e+10
1735.000000 2.15095000e+10
1745.000000 2.12204000e+10
1755.000000 2.08704000e+10
1765.000000 2.06068000e+10
1775.000000 1.99256000e+10
1785.000000 2.01204000e+10
1795.000000 1.96641000e+10
1805.000000 1.96134000e+10
1815.000000 1.90136000e+10
1825.000000 1.87549000e+10
1835.000000 1.86942000e+10
1845.000000 1.77097000e+10
1855.000000 1.78827000e+10
1865.000000 1.78518000e+10
1875.000000 1.74936000e+10
1885.000000 1.66141000e+10
1895.000000 1.62378000e+10
1905.000000 1.66241000e+10
1915.000000 1.61551000e+10
1925.000000 1.52120000e+10
1935.000000 1.59869000e+10
1945.000000 1.61087000e+10
1955.000000 1.47527000e+10
1967.000000 1.53366000e+10
1976.000000 1.56063000e+10
1984.000000 1.50462000e+10
1995.000000 1.46270000e+10
2005.000000 1.48442000e+10
2015.000000 1.47844000e+10
2025.000000 1.47343000e+10
2035.000000 1.41377000e+10
2045.000000 1.39530000e+10
2055.000000 1.15382000e+10
2065.000000 1.11776000e+10
2074.000000 1.16693000e+10
2078.000000 1.15442000e+10
2085.000000 1.22598000e+10
2095.000000 1.26537000e+10
2105.000000 1.28313000e+10
2115.000000 1.29082000e+10
2125.000000 1.26952000e+10
2135.000000 1.25733000e+10
2145.000000 1.23220000e+10
2155.000000 1.23402000e+10
2165.000000 1.18776000e+10
2175.000000 1.20139000e+10
2185.000000 1.16841000e+10
2195.000000 1.18077000e+10
2205.000000 1.16249000e+10
2215.000000 1.12476000e+10
2225.000000 1.12578000e+10
2235.000000 1.10759000e+10
2245.000000 1.09176000e+10
2255.000000 1.06128000e+10
2265.000000 1.06412000e+10
2275.000000 1.05246000e+10
2285.000000 1.02876000e+10
2295.000000 9.35918000e+09
2305.000000 9.85179000e+09
2315.000000 9.81466000e+09
2325.000000 9.74853000e+09
2335.000000 9.59128000e+09
2345.000000 9.47951000e+09
2355.000000 9.30883000e+09
2365.000000 9.16898000e+09
2375.000000 8.99108000e+09
2385.000000 8.67410000e+09
2395.000000 8.68457000e+09
2405.000000 8.64833000e+09
2415.000000 8.53357000e+09
2425.000000 8.46398000e+09
2435.000000 8.31327000e+09
2445.000000 8.22146000e+09
2455.000000 8.11149000e+09
2465.000000 8.00303000e+09
2475.000000 7.89114000e+09
2485.000000 7.68195000e+09
2495.000000 6.02577000e+09
2505.000000 7.37846000e+09
2513.000000 7.13589000e+09
2518.000000 7.26920000e+09
2525.000000 7.37608000e+09
2535.000000 7.31449000e+09
2545.000000 7.16347000e+09
2555.000000 7.08500000e+09
2565.000000 7.01212000e+09
2575.000000 6.92367000e+09
2585.000000 6.84145000e+09
2595.000000 6.72896000e+09
2605.000000 6.68739000e+09
2615.000000 6.56473000e+09
2625.000000 6.51043000e+09
2635.000000 6.43778000e+09
2645.000000 6.33534000e+09
2655.000000 6.26526000e+09
2665.000000 6.13611000e+09
2675.000000 6.01556000e+09
2685.000000 6.02414000e+09
2695.000000 5.88926000e+09
2705.000000 5.84117000e+09
2715.000000 5.76040000e+09
2725.000000 5.70399000e+09
2735.000000 5.57321000e+09
2745.000000 5.58968000e+09
2755.000000 5.52187000e+09
2765.000000 5.42928000e+09
2775.000000 5.41028000e+09
2785.000000 5.32195000e+09
2795.000000 5.16530000e+09
2805.000000 5.17594000e+09
2815.000000 5.14779000e+09
2825.000000 5.07034000e+09
2835.000000 4.97698000e+09
2845.000000 4.96859000e+09
2855.000000 4.89733000e+09
2865.000000 4.82694000e+09
2875.000000 4.77610000e+09
2885.000000 4.72313000e+09
2895.000000 4.66764000e+09
2910.000000 4.56537000e+09
2930.000000 4.48702000e+09
2950.000000 4.35972000e+09
2970.000000 4.26993000e+09
2990.000000 4.15000000e+09
3010.000000 4.04094000e+09
3030.000000 3.94526000e+09
3050.000000 3.88065000e+09
3070.000000 3.81018000e+09
3090.000000 3.69659000e+09
3110.000000 3.64577000e+09
3130.000000 3.55530000e+09
3150.000000 3.48489000e+09
3170.000000 3.40402000e+09
3190.000000 3.33045000e+09
3210.000000 3.24542000e+09
3230.000000 3.18975000e+09
3250.000000 3.13467000e+09
3270.000000 3.04814000e+09
3290.000000 2.99501000e+09
3310.000000 2.93152000e+09
3330.000000 2.86339000e+09
3350.000000 2.79641000e+09
3370.000000 2.74381000e+09
3390.000000 2.70271000e+09
3410.000000 2.64596000e+09
3430.000000 2.59319000e+09
3450.000000 2.52903000e+09
3470.000000 2.48560000e+09
3490.000000 2.43527000e+09
3510.000000 2.39074000e+09
3530.000000 2.34774000e+09
3550.000000 2.29960000e+09
3570.000000 2.25874000e+09
3590.000000 2.20456000e+09
3610.000000 2.16132000e+09
3630.000000 2.12044000e+09
3640.000000 2.09764000e+09
3650.000000 2.00099000e+09
3670.000000 1.96936000e+09
3690.000000 1.93119000e+09
3710.000000 1.87474000e+09
3730.000000 1.83416000e+09
3750.000000 1.85526000e+09
3770.000000 1.83094000e+09
3790.000000 1.87254000e+09
3810.000000 1.90401000e+09
3830.000000 1.74279000e+09
3850.000000 1.88597000e+09
3870.000000 1.84047000e+09
3890.000000 1.64847000e+09
3910.000000 1.81730000e+09
3930.000000 1.76316000e+09
3950.000000 1.73152000e+09
3970.000000 1.52079000e+09
3990.000000 1.68479000e+09
4010.000000 1.65467000e+09
4030.000000 1.59593000e+09
4050.000000 1.60318000e+09
4070.000000 1.54827000e+09
4090.000000 1.47790000e+09
4110.000000 1.36759000e+09
4130.000000 1.47245000e+09
4150.000000 1.45295000e+09
4170.000000 1.44074000e+09
4190.000000 1.41451000e+09
4210.000000 1.38775000e+09
4230.000000 1.37230000e+09
4250.000000 1.33946000e+09
4270.000000 1.31006000e+09
4290.000000 1.29077000e+09
4310.000000 1.25983000e+09
4330.000000 1.19911000e+09
4350.000000 1.12206000e+09
4370.000000 1.20178000e+09
4390.000000 1.17671000e+09
4410.000000 1.16428000e+09
4430.000000 1.15367000e+09
4450.000000 1.13351000e+09
4470.000000 1.09663000e+09
4490.000000 1.09840000e+09
4510.000000 1.07616000e+09
4530.000000 1.06304000e+09
4550.000000 1.03983000e+09
4570.000000 1.03115000e+09
4590.000000 1.01188000e+09
4610.000000 9.94751000e+08
4630.000000 9.74155000e+08
4650.000000 9.31139000e+08
4670.000000 9.45067000e+08
4690.000000 9.23134000e+08
4710.000000 9.10997000e+08
4730.000000 9.11510000e+08
4750.000000 8.96286000e+08
4770.000000 8.86071000e+08
4790.000000 8.72152000e+08
4810.000000 8.57424000e+08
4830.000000 8.41779000e+08
4850.000000 8.08633000e+08
4870.000000 7.43375000e+08
4890.000000 8.04281000e+08
4910.000000 7.93382000e+08
4930.000000 7.72186000e+08
4950.000000 7.68034000e+08
4970.000000 7.60783000e+08
4990.000000 7.49371000e+08
5010.000000 7.27580000e+08
5030.000000 7.25484000e+08
5050.000000 7.13382000e+08
5070.000000 7.06372000e+08
5090.000000 6.95714000e+08
5110.000000 6.85359000e+08
5130.000000 6.74686000e+08
5150.000000 6.65095000e+08
5170.000000 6.55717000e+08
5190.000000 6.46924000e+08
5210.000000 6.37984000e+08
5230.000000 6.28927000e+08
5250.000000 6.18745000e+08
5270.000000 6.09893000e+08
5290.000000 6.02746000e+08
5310.000000 5.94152000e+08
5330.000000 5.85949000e+08
5350.000000 5.77891000e+08
5370.000000 5.69845000e+08
5390.000000 5.61695000e+08
5410.000000 5.50290000e+08
5430.000000 5.46716000e+08
5450.000000 5.39160000e+08
5470.000000 5.31711000e+08
5490.000000 5.24507000e+08
5510.000000 5.17418000e+08
5530.000000 5.10381000e+08
5550.000000 5.03822000e+08
5570.000000 4.96859000e+08
5590.000000 4.89513000e+08
5610.000000 4.83934000e+08
5630.000000 4.77519000e+08
5650.000000 4.70969000e+08
5670.000000 4.64079000e+08
5690.000000 4.53270000e+08
5710.000000 4.43641000e+08
5730.000000 4.38198000e+08
5750.000000 4.31998000e+08
5770.000000 4.27345000e+08
5790.000000 4.21791000e+08
5810.000000 4.16035000e+08
5830.000000 4.10703000e+08
5850.000000 4.07019000e+08
5870.000000 3.94891000e+08
5890.000000 3.97133000e+08
5910.000000 3.93468000e+08
5930.000000 3.89136000e+08
5950.000000 3.85078000e+08
5970.000000 3.81698000e+08
5990.000000 3.77243000e+08
6010.000000 3.73234000e+08
6030.000000 3.68286000e+08
6050.000000 3.63900000e+08
6070.000000 3.59573000e+08
6090.000000 3.55245000e+08
6110.000000 3.50723000e+08
6130.000000 3.46553000e+08
6150.000000 3.41813000e+08
6170.000000 3.37681000e+08
6190.000000 3.34018000e+08
6210.000000 3.30101000e+08
6230.000000 3.25937000e+08
6250.000000 3.21935000e+08
6270.000000 3.18218000e+08
6290.000000 3.14502000e+08
6310.000000 3.10298000e+08
6330.000000 3.07052000e+08
6350.000000 3.03243000e+08
6370.000000 2.99847000e+08
6390.000000 2.96284000e+08
6410.000000 2.92476000e+08
6430.000000 2.89402000e+08
6450.000000 2.85890000e+08
6470.000000 2.82163000e+08
6490.000000 2.79022000e+08
6510.000000 2.75906000e+08
6530.000000 2.71815000e+08
6550.000000 2.65416000e+08
6570.000000 2.41914000e+08
6590.000000 2.62022000e+08
6610.000000 2.60430000e+08
6630.000000 2.57610000e+08
6650.000000 2.54606000e+08
6670.000000 2.49686000e+08
6690.000000 2.46638000e+08
6710.000000 2.45806000e+08
6730.000000 2.42816000e+08
6750.000000 2.40412000e+08
6770.000000 2.37983000e+08
6790.000000 2.34875000e+08
6810.000000 2.32710000e+08
6830.000000 2.30105000e+08
6850.000000 2.27599000e+08
6870.000000 2.25015000e+08
6890.000000 2.21885000e+08
6910.000000 2.19814000e+08
6930.000000 2.17825000e+08
6950.000000 2.15434000e+08
6970.000000 2.13099000e+08
6990.000000 2.10778000e+08
7010.000000 2.08389000e+08
7030.000000 2.05894000e+08
7050.000000 2.03871000e+08
7070.000000 1.99312000e+08
7090.000000 1.99673000e+08
7110.000000 1.97240000e+08
7130.000000 1.95268000e+08
7150.000000 1.93374000e+08
7170.000000 1.90963000e+08
7190.000000 1.89166000e+08
7210.000000 1.87306000e+08
7230.000000 1.84217000e+08
7250.000000 1.83202000e+08
7270.000000 1.81476000e+08
7290.000000 1.78497000e+08
7310.000000 1.77662000e+08
7330.000000 1.75839000e+08
7350.000000 1.74039000e+08
7370.000000 1.72243000e+08
7390.000000 1.70484000e+08
7410.000000 1.68721000e+08
7430.000000 1.67002000e+08
7450.000000 1.65258000e+08
7470.000000 1.63368000e+08
7490.000000 1.61644000e+08
7510.000000 1.60257000e+08
7530.000000 1.58629000e+08
7550.000000 1.57089000e+08
7570.000000 1.55485000e+08
7590.000000 1.53443000e+08
7610.000000 1.52202000e+08
7630.000000 1.50810000e+08
7650.000000 1.49327000e+08
7670.000000 1.47890000e+08
7690.000000 1.46249000e+08
7710.000000 1.44876000e+08
7730.000000 1.43314000e+08
7750.000000 1.42111000e+08
7770.000000 1.40732000e+08
7790.000000 1.39364000e+08
7810.000000 1.37960000e+08
7830.000000 1.36660000e+08
7850.000000 1.35347000e+08
7870.000000 1.33924000e+08
7890.000000 1.32586000e+08
7910.000000 1.31453000e+08
7930.000000 1.30162000e+08
7950.000000 1.28977000e+08
7970.000000 1.27648000e+08
7990.000000 1.26503000e+08
8010.000000 1.25244000e+08
8030.000000 1.24019000e+08
8050.000000 1.22903000e+08
8070.000000 1.21739000e+08
8090.000000 1.20488000e+08
8110.000000 1.19035000e+08
8130.000000 1.18336000e+08
8150.000000 1.17098000e+08
8170.000000 1.16136000e+08
8190.000000 1.14710000e+08
8210.000000 1.12794000e+08
8230.000000 1.11546000e+08
8250.000000 1.10900000e+08
8270.000000 1.09417000e+08
8290.000000 1.08846000e+08
8310.000000 1.07924000e+08
8330.000000 1.06793000e+08
8350.000000 1.05493000e+08
8370.000000 1.04818000e+08
8390.000000 1.04030000e+08
8410.000000 1.03056000e+08
8430.000000 1.02117000e+08
8450.000000 1.00822000e+08
8470.000000 1.00246000e+08
8490.000000 9.93251000e+07
8510.000000 9.80161000e+07
8530.000000 9.76554000e+07
8550.000000 9.60395000e+07
8570.000000 9.65510000e+07
8590.000000 9.39218000e+07
8610.000000 9.34352000e+07
8630.000000 9.45404000e+07
8650.000000 9.26284000e+07
8670.000000 8.87535000e+07
8690.000000 9.21718000e+07
8710.000000 9.19724000e+07
8730.000000 9.00587000e+07
8750.000000 8.41610000e+07
8770.000000 8.78431000e+07
8790.000000 8.91308000e+07
8810.000000 8.85276000e+07
8830.000000 8.75231000e+07
8850.000000 8.38956000e+07
8870.000000 7.92322000e+07
8890.000000 8.48536000e+07
8910.000000 8.47911000e+07
8930.000000 8.41424000e+07
8950.000000 8.35316000e+07
8970.000000 8.27241000e+07
8990.000000 8.10746000e+07
9010.000000 7.45754000e+07
9030.000000 7.71423000e+07
9050.000000 7.96719000e+07
9070.000000 7.88310000e+07
9090.000000 7.85665000e+07
9110.000000 7.80948000e+07
9130.000000 7.74683000e+07
9150.000000 7.68330000e+07
9170.000000 7.60189000e+07
9190.000000 7.52691000e+07
9210.000000 7.29661000e+07
9230.000000 6.64771000e+07
9250.000000 7.18565000e+07
9270.000000 7.27305000e+07
9290.000000 7.23696000e+07
9310.000000 7.15983000e+07
9330.000000 7.11272000e+07
9350.000000 7.02889000e+07
9370.000000 7.00021000e+07
9390.000000 6.94777000e+07
9410.000000 6.88551000e+07
9430.000000 6.83176000e+07
9450.000000 6.77588000e+07
9470.000000 6.69730000e+07
9490.000000 6.66199000e+07
9510.000000 6.54610000e+07
9530.000000 6.35356000e+07
9550.000000 5.81560000e+07
9570.000000 6.34375000e+07
9590.000000 6.38286000e+07
9610.000000 6.33348000e+07
9630.000000 6.27348000e+07
9650.000000 6.25155000e+07
9670.000000 6.20275000e+07
9690.000000 6.14949000e+07
9710.000000 6.01590000e+07
9730.000000 6.04332000e+07
9750.000000 6.00667000e+07
9770.000000 5.95842000e+07
9790.000000 5.91169000e+07
9810.000000 5.86334000e+07
9830.000000 5.81924000e+07
9850.000000 5.77233000e+07
9870.000000 5.72653000e+07
9890.000000 5.67720000e+07
9910.000000 5.61979000e+07
9930.000000 5.59526000e+07
9950.000000 5.55186000e+07
9970.000000 5.50649000e+07
9990.000000 5.46446000e+07
10025.000000 5.24119000e+07
10075.000000 5.08167000e+07
10125.000000 5.14846000e+07
10175.000000 5.09035000e+07
10225.000000 4.99204000e+07
10275.000000 4.89968000e+07
10325.000000 4.79439000e+07
10375.000000 4.71959000e+07
10425.000000 4.63110000e+07
10475.000000 4.54682000e+07
10525.000000 4.46257000e+07
10575.000000 4.38173000e+07
10625.000000 4.30188000e+07
10675.000000 4.21936000e+07
10725.000000 4.14801000e+07
10775.000000 4.07359000e+07
10825.000000 3.96757000e+07
10875.000000 3.92479000e+07
10925.000000 3.63992000e+07
10975.000000 3.74257000e+07
11025.000000 3.71149000e+07
11075.000000 3.65931000e+07
11125.000000 3.59636000e+07
11175.000000 3.53469000e+07
11225.000000 3.47247000e+07
11275.000000 3.41359000e+07
11325.000000 3.35355000e+07
11375.000000 3.29764000e+07
11425.000000 3.24142000e+07
11475.000000 3.18720000e+07
11525.000000 3.13408000e+07
11575.000000 3.08091000e+07
11625.000000 3.02436000e+07
11675.000000 2.97529000e+07
11725.000000 2.93079000e+07
11775.000000 2.88231000e+07
11825.000000 2.83428000e+07
11875.000000 2.78856000e+07
11925.000000 2.74297000e+07
11975.000000 2.67808000e+07
12025.000000 2.65533000e+07
12075.000000 2.61246000e+07
12125.000000 2.56994000e+07
12175.000000 2.52972000e+07
12225.000000 2.48948000e+07
12275.000000 2.45019000e+07
12325.000000 2.41135000e+07
12375.000000 2.37348000e+07
12425.000000 2.33658000e+07
12475.000000 2.29978000e+07
12525.000000 2.26025000e+07
12575.000000 2.22873000e+07
12625.000000 2.19468000e+07
12675.000000 2.16141000e+07
12725.000000 2.12824000e+07
12775.000000 2.07087000e+07
12825.000000 1.94670000e+07
12875.000000 2.02667000e+07
12925.000000 2.00227000e+07
12975.000000 1.96295000e+07
13025.000000 1.94198000e+07
13075.000000 1.91395000e+07
