# Kurucz ODFNEW /NOVER, alpha: 0.0 (2003)
# teff = 7500 K (value for the effective temperature for the model. Temperatures are given in K)
# logg = 0.5 log(cm/s2) (value for Log(G) for the model.)
# lh = 1.25  (l/Hp where l is the  mixing length of the convective element and Hp is the pressure scale height)
# meta = -0.5  (value for the Metallicity for the model.)
# vtur = 2 km/s (Microturbulence velocity)
# alpha = 0  (Alpha)
#
# column 1: WAVELENGTH (ANGSTROM), Wavelength in Angstrom
# column 2: FLUX (ERG/CM2/S/A), Flux in erg/cm2/s/A
395.000000 4.99787000e-23
405.000000 3.87053000e-22
414.000000 2.10624000e-21
422.000000 8.88874000e-21
430.000000 3.54765000e-20
441.000000 2.18563000e-19
451.000000 1.05395000e-18
460.000000 4.08759000e-18
470.000000 1.73033000e-17
480.000000 6.88169000e-17
490.000000 2.58156000e-16
500.000000 9.16688000e-16
506.000000 1.82070000e-15
512.000000 3.85763000e-15
520.000000 9.92927000e-15
530.000000 3.04629000e-14
540.000000 8.95055000e-14
550.000000 2.52440000e-13
560.000000 6.85020000e-13
570.000000 1.79204000e-12
580.000000 4.45748000e-12
590.000000 1.10724000e-11
600.000000 2.62403000e-11
610.000000 6.03729000e-11
620.000000 1.35040000e-10
630.000000 2.94056000e-10
640.000000 6.24151000e-10
650.000000 1.29292000e-09
658.000000 2.27675000e-09
665.000000 3.69169000e-09
675.000000 7.22998000e-09
685.000000 1.38697000e-08
695.000000 2.60842000e-08
705.000000 4.81363000e-08
716.000000 9.24892000e-08
726.000000 1.64450000e-07
735.000000 2.72157000e-07
745.000000 4.69180000e-07
755.000000 7.96516000e-07
765.000000 1.33259000e-06
775.000000 2.16325000e-06
785.000000 1.75366000e-07
795.000000 2.67163000e-07
805.000000 4.05201000e-07
815.000000 6.06363000e-07
825.000000 8.96623000e-07
835.000000 1.31191000e-06
845.000000 1.90020000e-06
855.000000 2.72504000e-06
865.000000 3.87124000e-06
875.000000 5.44311000e-06
885.000000 7.60265000e-06
895.000000 1.05180000e-05
905.000000 1.43985000e-05
915.000000 2.15340000e-02
925.000000 7.13062000e-02
935.000000 9.02065000e-02
945.000000 1.24220000e-01
955.000000 1.79759000e-01
965.000000 2.33900000e-01
975.000000 2.80840000e-01
985.000000 3.85305000e-01
995.000000 4.69226000e-01
1005.000000 6.44602000e-01
1015.000000 8.01344000e-01
1025.000000 9.83217000e-01
1035.000000 1.27769000e+00
1045.000000 1.63328000e+00
1055.000000 2.03656000e+00
1065.000000 2.44165000e+00
1075.000000 3.06916000e+00
1085.000000 3.76593000e+00
1095.000000 4.46253000e+00
1105.000000 1.38804000e+01
1115.000000 4.43236000e+01
1125.000000 6.30599000e+01
1135.000000 8.17226000e+01
1145.000000 9.43329000e+01
1155.000000 9.50984000e+01
1165.000000 1.10749000e+02
1175.000000 1.06885000e+02
1185.000000 1.51601000e+02
1195.000000 3.49155000e+01
1205.000000 2.43087000e+01
1215.000000 6.39806000e+00
1225.000000 2.90513000e+01
1235.000000 7.88076000e+01
1245.000000 1.84998000e+02
1255.000000 3.76197000e+02
1265.000000 4.63124000e+02
1275.000000 8.30340000e+02
1285.000000 1.34767000e+03
1295.000000 1.85534000e+03
1305.000000 1.61748000e+03
1315.000000 2.94547000e+03
1325.000000 4.03697000e+03
1335.000000 4.53181000e+03
1345.000000 6.90953000e+03
1355.000000 7.97769000e+03
1365.000000 9.37545000e+03
1375.000000 1.17250000e+04
1385.000000 1.45330000e+04
1395.000000 1.85977000e+04
1405.000000 2.40882000e+04
1415.000000 2.57886000e+04
1425.000000 3.56818000e+04
1435.000000 3.65364000e+04
1442.000000 4.64334000e+04
1447.000000 5.82508000e+04
1455.000000 8.38351000e+04
1465.000000 9.23575000e+04
1475.000000 1.04770000e+05
1485.000000 1.31097000e+05
1495.000000 1.63312000e+05
1505.000000 1.87132000e+05
1512.000000 1.73851000e+05
1517.000000 2.07707000e+05
1525.000000 2.32327000e+05
1535.000000 7.51276000e+05
1545.000000 1.80645000e+06
1555.000000 1.53005000e+06
1565.000000 1.21178000e+06
1575.000000 1.90276000e+06
1585.000000 2.26647000e+06
1595.000000 3.12324000e+06
1605.000000 2.57010000e+06
1615.000000 2.30698000e+06
1625.000000 1.96538000e+06
1635.000000 2.21608000e+06
1645.000000 2.81514000e+06
1655.000000 1.70318000e+06
1665.000000 2.55631000e+06
1672.000000 6.40077000e+05
1677.000000 2.95093000e+06
1685.000000 4.01777000e+06
1695.000000 4.03974000e+06
1705.000000 3.38056000e+06
1715.000000 4.08223000e+06
1725.000000 4.34522000e+06
1735.000000 5.19472000e+06
1745.000000 4.66769000e+06
1755.000000 5.94420000e+06
1765.000000 4.81610000e+06
1775.000000 5.88669000e+06
1785.000000 5.22394000e+06
1795.000000 7.16950000e+06
1805.000000 6.25403000e+06
1815.000000 6.83602000e+06
1825.000000 6.05289000e+06
1835.000000 5.66354000e+06
1845.000000 5.32353000e+06
1855.000000 5.88672000e+06
1865.000000 6.22365000e+06
1875.000000 6.30457000e+06
1885.000000 6.49963000e+06
1895.000000 6.92795000e+06
1905.000000 6.30221000e+06
1915.000000 6.82232000e+06
1925.000000 7.17007000e+06
1935.000000 6.02932000e+06
1945.000000 7.59578000e+06
1955.000000 7.70082000e+06
1967.000000 8.21405000e+06
1976.000000 8.08894000e+06
1984.000000 7.84390000e+06
1995.000000 7.63724000e+06
2005.000000 7.35677000e+06
2015.000000 6.83448000e+06
2025.000000 6.60692000e+06
2035.000000 7.46313000e+06
2045.000000 8.19422000e+06
2055.000000 7.26772000e+06
2065.000000 6.96330000e+06
2074.000000 8.64429000e+06
2078.000000 8.97485000e+06
2085.000000 8.60800000e+06
2095.000000 8.20045000e+06
2105.000000 7.68546000e+06
2115.000000 7.74863000e+06
2125.000000 8.02944000e+06
2135.000000 6.09862000e+06
2145.000000 7.43695000e+06
2155.000000 7.77069000e+06
2165.000000 7.05841000e+06
2175.000000 7.07497000e+06
2185.000000 7.29269000e+06
2195.000000 8.11473000e+06
2205.000000 7.72377000e+06
2215.000000 6.58248000e+06
2225.000000 6.35702000e+06
2235.000000 7.94000000e+06
2245.000000 7.00795000e+06
2255.000000 6.28190000e+06
2265.000000 6.36968000e+06
2275.000000 7.28765000e+06
2285.000000 7.66198000e+06
2295.000000 7.04052000e+06
2305.000000 7.25093000e+06
2315.000000 6.84327000e+06
2325.000000 6.54067000e+06
2335.000000 4.88139000e+06
2345.000000 3.92204000e+06
2355.000000 6.19346000e+06
2365.000000 3.93809000e+06
2375.000000 5.29573000e+06
2385.000000 3.14671000e+06
2395.000000 4.20220000e+06
2405.000000 3.94574000e+06
2415.000000 4.85440000e+06
2425.000000 6.96299000e+06
2435.000000 6.75406000e+06
2445.000000 7.26484000e+06
2455.000000 7.09388000e+06
2465.000000 6.88454000e+06
2475.000000 6.55104000e+06
2485.000000 6.93096000e+06
2495.000000 6.68609000e+06
2505.000000 8.18295000e+06
2513.000000 6.54591000e+06
2518.000000 7.14204000e+06
2525.000000 6.09562000e+06
2535.000000 5.93272000e+06
2545.000000 6.03975000e+06
2555.000000 6.82819000e+06
2565.000000 6.26773000e+06
2575.000000 7.10832000e+06
2585.000000 6.56802000e+06
2595.000000 6.00393000e+06
2605.000000 5.33942000e+06
2615.000000 5.04348000e+06
2625.000000 6.33548000e+06
2635.000000 7.23267000e+06
2645.000000 9.82207000e+06
2655.000000 9.74608000e+06
2665.000000 8.29606000e+06
2675.000000 8.93226000e+06
2685.000000 8.73364000e+06
2695.000000 8.39871000e+06
2705.000000 8.73935000e+06
2715.000000 7.78530000e+06
2725.000000 7.94794000e+06
2735.000000 8.67207000e+06
2745.000000 5.60718000e+06
2755.000000 6.48528000e+06
2765.000000 7.20914000e+06
2775.000000 8.56476000e+06
2785.000000 7.50863000e+06
2795.000000 3.08259000e+06
2805.000000 3.97738000e+06
2815.000000 8.53417000e+06
2825.000000 9.71725000e+06
2835.000000 9.23306000e+06
2845.000000 8.92717000e+06
2855.000000 8.30919000e+06
2865.000000 9.50334000e+06
2875.000000 9.11420000e+06
2885.000000 9.41594000e+06
2895.000000 8.86779000e+06
2910.000000 1.05232000e+07
2930.000000 1.00597000e+07
2950.000000 1.00116000e+07
2970.000000 1.05713000e+07
2990.000000 1.07995000e+07
3010.000000 1.11699000e+07
3030.000000 1.10837000e+07
3050.000000 1.10154000e+07
3070.000000 1.10150000e+07
3090.000000 1.14915000e+07
3110.000000 1.10618000e+07
3130.000000 1.10051000e+07
3150.000000 1.15477000e+07
3170.000000 1.15528000e+07
3190.000000 1.08823000e+07
3210.000000 1.14345000e+07
3230.000000 1.10969000e+07
3250.000000 1.15264000e+07
3270.000000 1.16367000e+07
3290.000000 1.18844000e+07
3310.000000 1.21367000e+07
3330.000000 1.18581000e+07
3350.000000 1.16925000e+07
3370.000000 1.16811000e+07
3390.000000 1.18276000e+07
3410.000000 1.22404000e+07
3430.000000 1.24131000e+07
3450.000000 1.23560000e+07
3470.000000 1.21530000e+07
3490.000000 1.20494000e+07
3510.000000 1.24913000e+07
3530.000000 1.26966000e+07
3550.000000 1.28873000e+07
3570.000000 1.24743000e+07
3590.000000 1.25093000e+07
3610.000000 1.26041000e+07
3630.000000 1.27586000e+07
3640.000000 1.25499000e+07
3650.000000 1.30009000e+07
3670.000000 1.30730000e+07
3690.000000 1.49313000e+07
3710.000000 2.14321000e+07
3730.000000 3.69773000e+07
3750.000000 4.65845000e+07
3770.000000 4.66137000e+07
3790.000000 5.10328000e+07
3810.000000 5.49363000e+07
3830.000000 4.65695000e+07
3850.000000 5.50817000e+07
3870.000000 5.56105000e+07
3890.000000 4.69763000e+07
3910.000000 5.37836000e+07
3930.000000 4.34004000e+07
3950.000000 5.38371000e+07
3970.000000 4.08212000e+07
3990.000000 5.42302000e+07
4010.000000 5.37164000e+07
4030.000000 5.29712000e+07
4050.000000 5.27616000e+07
4070.000000 5.19783000e+07
4090.000000 5.22617000e+07
4110.000000 4.39664000e+07
4130.000000 5.10289000e+07
4150.000000 5.13695000e+07
4170.000000 4.97037000e+07
4190.000000 4.97303000e+07
4210.000000 4.93525000e+07
4230.000000 4.87879000e+07
4250.000000 4.83799000e+07
4270.000000 4.76922000e+07
4290.000000 4.75208000e+07
4310.000000 4.55800000e+07
4330.000000 4.46275000e+07
4350.000000 3.97126000e+07
4370.000000 4.63768000e+07
4390.000000 4.50912000e+07
4410.000000 4.41717000e+07
4430.000000 4.50446000e+07
4450.000000 4.46501000e+07
4470.000000 4.42364000e+07
4490.000000 4.37423000e+07
4510.000000 4.39034000e+07
4530.000000 4.28079000e+07
4550.000000 4.17155000e+07
4570.000000 4.27455000e+07
4590.000000 4.14869000e+07
4610.000000 4.25937000e+07
4630.000000 4.12424000e+07
4650.000000 4.16881000e+07
4670.000000 4.11746000e+07
4690.000000 4.07711000e+07
4710.000000 3.95680000e+07
4730.000000 4.02326000e+07
4750.000000 4.01850000e+07
4770.000000 3.95689000e+07
4790.000000 3.92014000e+07
4810.000000 3.87914000e+07
4830.000000 3.82787000e+07
4850.000000 3.61074000e+07
4870.000000 3.01582000e+07
4890.000000 3.71545000e+07
4910.000000 3.70383000e+07
4930.000000 3.62316000e+07
4950.000000 3.63991000e+07
4970.000000 3.63554000e+07
4990.000000 3.55788000e+07
5010.000000 3.45899000e+07
5030.000000 3.48857000e+07
5050.000000 3.45656000e+07
5070.000000 3.45015000e+07
5090.000000 3.41771000e+07
5110.000000 3.38351000e+07
5130.000000 3.32096000e+07
5150.000000 3.28343000e+07
5170.000000 3.20635000e+07
5190.000000 3.17567000e+07
5210.000000 3.18742000e+07
5230.000000 3.12466000e+07
5250.000000 3.15147000e+07
5270.000000 3.04703000e+07
5290.000000 3.09686000e+07
5310.000000 3.02735000e+07
5330.000000 2.99592000e+07
5350.000000 3.03450000e+07
5370.000000 2.98659000e+07
5390.000000 2.95786000e+07
5410.000000 2.91994000e+07
5430.000000 2.88671000e+07
5450.000000 2.89385000e+07
5470.000000 2.86643000e+07
5490.000000 2.84783000e+07
5510.000000 2.81305000e+07
5530.000000 2.77722000e+07
5550.000000 2.78036000e+07
5570.000000 2.74877000e+07
5590.000000 2.72600000e+07
5610.000000 2.70564000e+07
5630.000000 2.68288000e+07
5650.000000 2.64256000e+07
5670.000000 2.62220000e+07
5690.000000 2.61194000e+07
5710.000000 2.59009000e+07
5730.000000 2.56986000e+07
5750.000000 2.54507000e+07
5770.000000 2.52383000e+07
5790.000000 2.49856000e+07
5810.000000 2.47748000e+07
5830.000000 2.45409000e+07
5850.000000 2.43513000e+07
5870.000000 2.41244000e+07
5890.000000 2.36579000e+07
5910.000000 2.37030000e+07
5930.000000 2.34930000e+07
5950.000000 2.32513000e+07
5970.000000 2.30905000e+07
5990.000000 2.28095000e+07
6010.000000 2.26559000e+07
6030.000000 2.24820000e+07
6050.000000 2.22739000e+07
6070.000000 2.21038000e+07
6090.000000 2.18837000e+07
6110.000000 2.16771000e+07
6130.000000 2.14687000e+07
6150.000000 2.10325000e+07
6170.000000 2.11042000e+07
6190.000000 2.09700000e+07
6210.000000 2.08058000e+07
6230.000000 2.05744000e+07
6250.000000 2.01073000e+07
6270.000000 2.02830000e+07
6290.000000 2.01019000e+07
6310.000000 1.98346000e+07
6330.000000 1.97415000e+07
6350.000000 1.94510000e+07
6370.000000 1.92947000e+07
6390.000000 1.92350000e+07
6410.000000 1.90033000e+07
6430.000000 1.88953000e+07
6450.000000 1.85899000e+07
6470.000000 1.86300000e+07
6490.000000 1.83195000e+07
6510.000000 1.81928000e+07
6530.000000 1.80347000e+07
6550.000000 1.68544000e+07
6570.000000 1.33708000e+07
6590.000000 1.74372000e+07
6610.000000 1.74706000e+07
6630.000000 1.74125000e+07
6650.000000 1.72892000e+07
6670.000000 1.71366000e+07
6690.000000 1.70073000e+07
6710.000000 1.68735000e+07
6730.000000 1.67234000e+07
6750.000000 1.65922000e+07
6770.000000 1.64754000e+07
6790.000000 1.63287000e+07
6810.000000 1.62093000e+07
6830.000000 1.60516000e+07
6850.000000 1.59371000e+07
6870.000000 1.58189000e+07
6890.000000 1.56939000e+07
6910.000000 1.55645000e+07
6930.000000 1.54371000e+07
6950.000000 1.53180000e+07
6970.000000 1.51914000e+07
6990.000000 1.50776000e+07
7010.000000 1.49143000e+07
7030.000000 1.48341000e+07
7050.000000 1.47175000e+07
7070.000000 1.46072000e+07
7090.000000 1.44964000e+07
7110.000000 1.42749000e+07
7130.000000 1.42446000e+07
7150.000000 1.41429000e+07
7170.000000 1.40384000e+07
7190.000000 1.39123000e+07
7210.000000 1.38077000e+07
7230.000000 1.36716000e+07
7250.000000 1.35992000e+07
7270.000000 1.35031000e+07
7290.000000 1.33787000e+07
7310.000000 1.32394000e+07
7330.000000 1.31700000e+07
7350.000000 1.30796000e+07
7370.000000 1.30032000e+07
7390.000000 1.28901000e+07
7410.000000 1.27747000e+07
7430.000000 1.26637000e+07
7450.000000 1.25747000e+07
7470.000000 1.24373000e+07
7490.000000 1.23763000e+07
7510.000000 1.22851000e+07
7530.000000 1.22219000e+07
7550.000000 1.21467000e+07
7570.000000 1.20418000e+07
7590.000000 1.19627000e+07
7610.000000 1.18772000e+07
7630.000000 1.17872000e+07
7650.000000 1.16793000e+07
7670.000000 1.15967000e+07
7690.000000 1.15211000e+07
7710.000000 1.13974000e+07
7730.000000 1.13568000e+07
7750.000000 1.12719000e+07
7770.000000 1.09687000e+07
7790.000000 1.11112000e+07
7810.000000 1.10290000e+07
7830.000000 1.09365000e+07
7850.000000 1.08392000e+07
7870.000000 1.07477000e+07
7890.000000 1.06522000e+07
7910.000000 1.06152000e+07
7930.000000 1.05450000e+07
7950.000000 1.04473000e+07
7970.000000 1.04074000e+07
7990.000000 1.02621000e+07
8010.000000 1.02532000e+07
8030.000000 1.01765000e+07
8050.000000 1.01091000e+07
8070.000000 1.00324000e+07
8090.000000 9.96275000e+06
8110.000000 9.89535000e+06
8130.000000 9.82905000e+06
8150.000000 9.75989000e+06
8170.000000 9.69015000e+06
8190.000000 9.56088000e+06
8210.000000 9.54789000e+06
8230.000000 9.48541000e+06
8250.000000 9.40848000e+06
8270.000000 9.40159000e+06
8290.000000 9.30968000e+06
8310.000000 9.19400000e+06
8330.000000 9.03698000e+06
8350.000000 9.13369000e+06
8370.000000 8.85832000e+06
8390.000000 8.99810000e+06
8410.000000 8.97986000e+06
8430.000000 9.27922000e+06
8450.000000 9.10398000e+06
8470.000000 8.88091000e+06
8490.000000 9.67380000e+06
8510.000000 8.72428000e+06
8530.000000 9.85615000e+06
8550.000000 8.39650000e+06
8570.000000 1.00685000e+07
8590.000000 9.60509000e+06
8610.000000 9.33691000e+06
8630.000000 1.03109000e+07
8650.000000 1.01772000e+07
8670.000000 8.34460000e+06
8690.000000 9.99542000e+06
8710.000000 1.00841000e+07
8730.000000 9.96928000e+06
8750.000000 8.42595000e+06
8770.000000 9.77618000e+06
8790.000000 9.82828000e+06
8810.000000 9.72352000e+06
8830.000000 9.61575000e+06
8850.000000 9.38571000e+06
8870.000000 8.13390000e+06
8890.000000 9.45254000e+06
8910.000000 9.35796000e+06
8930.000000 9.28443000e+06
8950.000000 9.29425000e+06
8970.000000 9.22757000e+06
8990.000000 9.12549000e+06
9010.000000 7.92625000e+06
9030.000000 8.66736000e+06
9050.000000 8.96533000e+06
9070.000000 8.74953000e+06
9090.000000 8.62353000e+06
9110.000000 8.71962000e+06
9130.000000 8.71581000e+06
9150.000000 8.67910000e+06
9170.000000 8.60589000e+06
9190.000000 8.52342000e+06
9210.000000 8.37274000e+06
9230.000000 7.04746000e+06
9250.000000 8.17412000e+06
9270.000000 8.14108000e+06
9290.000000 8.26408000e+06
9310.000000 8.21601000e+06
9330.000000 8.15442000e+06
9350.000000 8.10665000e+06
9370.000000 8.05534000e+06
9390.000000 7.96851000e+06
9410.000000 7.80746000e+06
9430.000000 7.86674000e+06
9450.000000 7.83052000e+06
9470.000000 7.78110000e+06
9490.000000 7.73620000e+06
9510.000000 7.67662000e+06
9530.000000 7.54281000e+06
9550.000000 6.40505000e+06
9570.000000 7.47289000e+06
9590.000000 7.48026000e+06
9610.000000 7.39001000e+06
9630.000000 7.29232000e+06
9650.000000 7.32766000e+06
9670.000000 7.22244000e+06
9690.000000 7.22195000e+06
9710.000000 7.19463000e+06
9730.000000 7.14518000e+06
9750.000000 7.08697000e+06
9770.000000 7.05404000e+06
9790.000000 7.00756000e+06
9810.000000 6.95788000e+06
9830.000000 6.91049000e+06
9850.000000 6.84479000e+06
9870.000000 6.81476000e+06
9890.000000 6.73792000e+06
9910.000000 6.73070000e+06
9930.000000 6.67152000e+06
9950.000000 6.64283000e+06
9970.000000 6.60938000e+06
9990.000000 6.56558000e+06
10025.000000 6.35188000e+06
10075.000000 6.05814000e+06
10125.000000 6.25312000e+06
10175.000000 6.18199000e+06
10225.000000 6.09141000e+06
10275.000000 5.99837000e+06
10325.000000 5.89059000e+06
10375.000000 5.80980000e+06
10425.000000 5.72197000e+06
10475.000000 5.60190000e+06
10525.000000 5.53146000e+06
10575.000000 5.45569000e+06
10625.000000 5.36976000e+06
10675.000000 5.22304000e+06
10725.000000 5.18199000e+06
10775.000000 5.12362000e+06
10825.000000 5.04618000e+06
10875.000000 4.97153000e+06
10925.000000 4.55968000e+06
10975.000000 4.79033000e+06
11025.000000 4.76806000e+06
11075.000000 4.69900000e+06
11125.000000 4.62581000e+06
11175.000000 4.56007000e+06
11225.000000 4.49502000e+06
11275.000000 4.38886000e+06
11325.000000 4.32552000e+06
11375.000000 4.29543000e+06
11425.000000 4.22848000e+06
11475.000000 4.17970000e+06
11525.000000 4.12110000e+06
11575.000000 4.06083000e+06
11625.000000 3.98332000e+06
11675.000000 3.90948000e+06
11725.000000 3.89210000e+06
11775.000000 3.79255000e+06
11825.000000 3.76054000e+06
11875.000000 3.70196000e+06
11925.000000 3.67999000e+06
11975.000000 3.60807000e+06
12025.000000 3.57475000e+06
12075.000000 3.52221000e+06
12125.000000 3.47502000e+06
12175.000000 3.43205000e+06
12225.000000 3.38412000e+06
12275.000000 3.33486000e+06
12325.000000 3.29173000e+06
12375.000000 3.24920000e+06
12425.000000 3.20773000e+06
12475.000000 3.16004000e+06
12525.000000 3.12069000e+06
12575.000000 3.06876000e+06
12625.000000 3.03150000e+06
12675.000000 2.99943000e+06
12725.000000 2.96078000e+06
12775.000000 2.91595000e+06
12825.000000 2.68574000e+06
12875.000000 2.84287000e+06
12925.000000 2.80852000e+06
12975.000000 2.77192000e+06
13025.000000 2.73714000e+06
13075.000000 2.70192000e+06
13125.000000 2.66672000e+06
13175.000000 2.62785000e+06
13225.000000 2.59940000e+06
13275.000000 2.56639000e+06
13325.000000 2.53401000e+06
13375.000000 2.50204000e+06
13425.000000 2.47006000e+06
13475.000000 2.43890000e+06
13525.000000 2.40546000e+06
13575.000000 2.37653000e+06
13625.000000 2.34856000e+06
13675.000000 2.31833000e+06
13725.000000 2.28007000e+06
13775.000000 2.26116000e+06
13825.000000 2.23400000e+06
13875.000000 2.20853000e+06
13925.000000 2.17929000e+06
13975.000000 2.15428000e+06
14025.000000 2.12841000e+06
14075.000000 2.10305000e+06
14125.000000 2.07704000e+06
14175.000000 2.05229000e+06
14225.000000 2.02746000e+06
14275.000000 2.00330000e+06
14325.000000 1.97961000e+06
14375.000000 1.95638000e+06
14425.000000 1.91514000e+06
14475.000000 1.91003000e+06
14525.000000 1.87851000e+06
14570.000000 1.86745000e+06
14620.000000 1.84501000e+06
14675.000000 1.82596000e+06
14725.000000 1.80385000e+06
14775.000000 1.77923000e+06
14825.000000 1.76074000e+06
14875.000000 1.73462000e+06
14925.000000 1.71879000e+06
14975.000000 1.70128000e+06
15025.000000 1.66511000e+06
15075.000000 1.65475000e+06
15125.000000 1.63640000e+06
15175.000000 1.62035000e+06
15225.000000 1.63287000e+06
