# Kurucz ODFNEW /NOVER, alpha: 0.0 (2003)
# teff = 20000 K (value for the effective temperature for the model. Temperatures are given in K)
# logg = 4.5 log(cm/s2) (value for Log(G) for the model.)
# lh = 1.25  (l/Hp where l is the  mixing length of the convective element and Hp is the pressure scale height)
# meta = -2  (value for the Metallicity for the model.)
# vtur = 2 km/s (Microturbulence velocity)
# alpha = 0  (Alpha)
#
# column 1: WAVELENGTH (ANGSTROM), Wavelength in Angstrom
# column 2: FLUX (ERG/CM2/S/A), Flux in erg/cm2/s/A
147.200000 1.01852000e-20
151.000000 6.93994000e-20
155.200000 5.21292000e-19
158.800000 2.70326000e-18
162.000000 1.10073000e-17
166.000000 5.91480000e-17
170.300000 3.31199000e-16
173.400000 1.08886000e-15
176.800000 3.83150000e-15
180.200000 1.28674000e-14
181.700000 2.16510000e-14
186.100000 9.49590000e-14
191.000000 4.54758000e-13
193.900000 1.10682000e-12
198.400000 4.18089000e-12
201.800000 1.09753000e-11
205.000000 2.64387000e-11
210.500000 1.12355000e-10
216.200000 4.65455000e-10
219.800000 1.09895000e-09
223.000000 2.30186000e-09
226.800000 5.38828000e-09
230.000000 1.30004000e-08
234.000000 3.10776000e-08
240.000000 1.02750000e-07
246.500000 3.49708000e-07
252.400000 1.00584000e-06
256.800000 2.13163000e-06
260.000000 3.64335000e-06
264.000000 6.95611000e-06
268.500000 1.40507000e-05
273.500000 2.98312000e-05
278.500000 6.16126000e-05
284.000000 1.32628000e-04
290.000000 2.95614000e-04
296.000000 6.36496000e-04
301.000000 1.17741000e-03
308.000000 2.68290000e-03
318.000000 8.18326000e-03
328.000000 2.31832000e-02
338.000000 6.15000000e-02
348.000000 1.53720000e-01
357.000000 3.34463000e-01
366.000000 6.98753000e-01
375.000000 1.40528000e+00
385.000000 2.93098000e+00
395.000000 5.87169000e+00
405.000000 1.13328000e+01
414.000000 1.98887000e+01
422.000000 3.20746000e+01
430.000000 5.07311000e+01
441.000000 9.25121000e+01
451.000000 1.55329000e+02
460.000000 2.42453000e+02
470.000000 3.88940000e+02
480.000000 6.10436000e+02
490.000000 9.38764000e+02
500.000000 1.41614000e+03
506.000000 9.88938000e+03
512.000000 2.76888000e+04
520.000000 3.59244000e+04
530.000000 5.30103000e+04
540.000000 6.22456000e+04
550.000000 9.09331000e+04
560.000000 1.16034000e+05
570.000000 1.48002000e+05
580.000000 1.60356000e+05
590.000000 2.19728000e+05
600.000000 2.84650000e+05
610.000000 3.49890000e+05
620.000000 4.24252000e+05
630.000000 5.12804000e+05
640.000000 6.09582000e+05
650.000000 7.30989000e+05
658.000000 8.38428000e+05
665.000000 9.39555000e+05
675.000000 1.09631000e+06
685.000000 1.27521000e+06
695.000000 1.49654000e+06
705.000000 1.72779000e+06
716.000000 2.01175000e+06
726.000000 2.30072000e+06
735.000000 2.59277000e+06
745.000000 2.94820000e+06
755.000000 3.33675000e+06
765.000000 3.75619000e+06
775.000000 4.22232000e+06
785.000000 4.72458000e+06
795.000000 5.26482000e+06
805.000000 5.85187000e+06
815.000000 6.47823000e+06
825.000000 7.16236000e+06
835.000000 7.81043000e+06
845.000000 8.65603000e+06
855.000000 9.45553000e+06
865.000000 1.03670000e+07
875.000000 1.13015000e+07
885.000000 1.23063000e+07
895.000000 1.33507000e+07
905.000000 1.43070000e+07
915.000000 2.39035000e+07
925.000000 9.13353000e+07
935.000000 2.76489000e+08
945.000000 1.67136000e+09
955.000000 4.61192000e+09
965.000000 6.68402000e+09
975.000000 1.84583000e+09
985.000000 1.12632000e+10
995.000000 1.24283000e+10
1005.000000 1.26705000e+10
1015.000000 8.93824000e+09
1025.000000 9.33554000e+08
1035.000000 7.15495000e+09
1045.000000 1.23959000e+10
1055.000000 1.26670000e+10
1065.000000 1.17925000e+10
1075.000000 1.23233000e+10
1085.000000 1.14953000e+10
1095.000000 1.19916000e+10
1105.000000 1.13452000e+10
1115.000000 1.12804000e+10
1125.000000 1.06834000e+10
1135.000000 1.08493000e+10
1145.000000 1.03020000e+10
1155.000000 1.04658000e+10
1165.000000 1.03041000e+10
1175.000000 9.16648000e+09
1185.000000 9.67642000e+09
1195.000000 8.40002000e+09
1205.000000 5.56912000e+09
1215.000000 7.31780000e+08
1225.000000 4.88063000e+09
1235.000000 7.98573000e+09
1245.000000 8.45221000e+09
1255.000000 8.35489000e+09
1265.000000 8.22073000e+09
1275.000000 8.27003000e+09
1285.000000 8.13269000e+09
1295.000000 7.54099000e+09
1305.000000 7.39157000e+09
1315.000000 7.66890000e+09
1325.000000 7.41388000e+09
1335.000000 7.09396000e+09
1345.000000 7.22253000e+09
1355.000000 7.13150000e+09
1365.000000 6.95197000e+09
1375.000000 6.83189000e+09
1385.000000 6.73006000e+09
1395.000000 6.48737000e+09
1405.000000 6.43314000e+09
1415.000000 6.35100000e+09
1425.000000 6.26644000e+09
1435.000000 6.16312000e+09
1442.000000 6.10579000e+09
1447.000000 6.04711000e+09
1455.000000 5.95517000e+09
1465.000000 5.83711000e+09
1475.000000 5.74490000e+09
1485.000000 5.63243000e+09
1495.000000 5.54199000e+09
1505.000000 5.41071000e+09
1512.000000 5.32777000e+09
1517.000000 5.30760000e+09
1525.000000 5.21837000e+09
1535.000000 5.05546000e+09
1545.000000 5.04310000e+09
1555.000000 4.91145000e+09
1565.000000 4.87119000e+09
1575.000000 4.82563000e+09
1585.000000 4.75083000e+09
1595.000000 4.69130000e+09
1605.000000 4.56166000e+09
1615.000000 4.48772000e+09
1625.000000 4.44678000e+09
1635.000000 4.39002000e+09
1645.000000 4.30659000e+09
1655.000000 4.23036000e+09
1665.000000 4.20688000e+09
1672.000000 4.08359000e+09
1677.000000 4.12626000e+09
1685.000000 4.07815000e+09
1695.000000 4.00158000e+09
1705.000000 3.92355000e+09
1715.000000 3.84924000e+09
1725.000000 3.78701000e+09
1735.000000 3.75900000e+09
1745.000000 3.69118000e+09
1755.000000 3.65963000e+09
1765.000000 3.52105000e+09
1775.000000 3.53302000e+09
1785.000000 3.48527000e+09
1795.000000 3.45087000e+09
1805.000000 3.40349000e+09
1815.000000 3.34264000e+09
1825.000000 3.30396000e+09
1835.000000 3.25317000e+09
1845.000000 3.17141000e+09
1855.000000 3.08563000e+09
1865.000000 3.06021000e+09
1875.000000 3.06420000e+09
1885.000000 2.97548000e+09
1895.000000 2.90439000e+09
1905.000000 2.92412000e+09
1915.000000 2.84343000e+09
1925.000000 2.80349000e+09
1935.000000 2.78817000e+09
1945.000000 2.77601000e+09
1955.000000 2.69386000e+09
1967.000000 2.69537000e+09
1976.000000 2.67927000e+09
1984.000000 2.62583000e+09
1995.000000 2.56099000e+09
2005.000000 2.56549000e+09
2015.000000 2.54241000e+09
2025.000000 2.51810000e+09
2035.000000 2.47367000e+09
2045.000000 2.44161000e+09
2055.000000 2.37660000e+09
2065.000000 2.36247000e+09
2074.000000 2.36487000e+09
2078.000000 2.32228000e+09
2085.000000 2.32127000e+09
2095.000000 2.27684000e+09
2105.000000 2.26538000e+09
2115.000000 2.24216000e+09
2125.000000 2.22085000e+09
2135.000000 2.19076000e+09
2145.000000 2.15990000e+09
2155.000000 2.13755000e+09
2165.000000 2.10852000e+09
2175.000000 2.08257000e+09
2185.000000 2.05905000e+09
2195.000000 2.03713000e+09
2205.000000 2.00994000e+09
2215.000000 1.98392000e+09
2225.000000 1.95776000e+09
2235.000000 1.93899000e+09
2245.000000 1.91630000e+09
2255.000000 1.89112000e+09
2265.000000 1.87159000e+09
2275.000000 1.84834000e+09
2285.000000 1.82909000e+09
2295.000000 1.79938000e+09
2305.000000 1.78487000e+09
2315.000000 1.76231000e+09
2325.000000 1.74384000e+09
2335.000000 1.71677000e+09
2345.000000 1.68764000e+09
2355.000000 1.68169000e+09
2365.000000 1.65490000e+09
2375.000000 1.64153000e+09
2385.000000 1.61316000e+09
2395.000000 1.59958000e+09
2405.000000 1.58266000e+09
2415.000000 1.56441000e+09
2425.000000 1.55480000e+09
2435.000000 1.53463000e+09
2445.000000 1.51788000e+09
2455.000000 1.50435000e+09
2465.000000 1.48467000e+09
2475.000000 1.47005000e+09
2485.000000 1.45421000e+09
2495.000000 1.42915000e+09
2505.000000 1.42316000e+09
2513.000000 1.40499000e+09
2518.000000 1.40351000e+09
2525.000000 1.38983000e+09
2535.000000 1.37103000e+09
2545.000000 1.35923000e+09
2555.000000 1.34948000e+09
2565.000000 1.33228000e+09
2575.000000 1.32133000e+09
2585.000000 1.30656000e+09
2595.000000 1.29203000e+09
2605.000000 1.28330000e+09
2615.000000 1.27168000e+09
2625.000000 1.26010000e+09
2635.000000 1.24496000e+09
2645.000000 1.23707000e+09
2655.000000 1.22270000e+09
2665.000000 1.20627000e+09
2675.000000 1.19411000e+09
2685.000000 1.18863000e+09
2695.000000 1.16789000e+09
2705.000000 1.16427000e+09
2715.000000 1.15162000e+09
2725.000000 1.13106000e+09
2735.000000 1.12895000e+09
2745.000000 1.10939000e+09
2755.000000 1.09976000e+09
2765.000000 1.08571000e+09
2775.000000 1.08484000e+09
2785.000000 1.07347000e+09
2795.000000 1.04782000e+09
2805.000000 1.04563000e+09
2815.000000 1.04277000e+09
2825.000000 1.02228000e+09
2835.000000 1.01461000e+09
2845.000000 1.01168000e+09
2855.000000 1.00221000e+09
2865.000000 9.92927000e+08
2875.000000 9.83069000e+08
2885.000000 9.73685000e+08
2895.000000 9.64453000e+08
2910.000000 9.50666000e+08
2930.000000 9.32027000e+08
2950.000000 9.08783000e+08
2970.000000 8.97823000e+08
2990.000000 8.80880000e+08
3010.000000 8.64805000e+08
3030.000000 8.48953000e+08
3050.000000 8.33361000e+08
3070.000000 8.18141000e+08
3090.000000 8.03323000e+08
3110.000000 7.88818000e+08
3130.000000 7.75347000e+08
3150.000000 7.61508000e+08
3170.000000 7.47918000e+08
3190.000000 7.29388000e+08
3210.000000 7.21607000e+08
3230.000000 7.08907000e+08
3250.000000 6.96535000e+08
3270.000000 6.85081000e+08
3290.000000 6.72635000e+08
3310.000000 6.61815000e+08
3330.000000 6.50560000e+08
3350.000000 6.38787000e+08
3370.000000 6.28772000e+08
3390.000000 6.18261000e+08
3410.000000 6.07952000e+08
3430.000000 5.96496000e+08
3450.000000 5.85359000e+08
3470.000000 5.76847000e+08
3490.000000 5.67409000e+08
3510.000000 5.58790000e+08
3530.000000 5.50451000e+08
3550.000000 5.41486000e+08
3570.000000 5.34756000e+08
3590.000000 5.23874000e+08
3610.000000 5.16669000e+08
3630.000000 5.07418000e+08
3640.000000 5.05771000e+08
3650.000000 5.00063000e+08
3670.000000 4.94208000e+08
3690.000000 4.84715000e+08
3710.000000 4.68609000e+08
3730.000000 4.47784000e+08
3750.000000 4.75061000e+08
3770.000000 4.80133000e+08
3790.000000 5.23940000e+08
3810.000000 5.59848000e+08
3830.000000 4.73939000e+08
3850.000000 5.90440000e+08
3870.000000 6.13356000e+08
3890.000000 4.41332000e+08
3910.000000 6.06193000e+08
3930.000000 6.09454000e+08
3950.000000 5.89318000e+08
3970.000000 4.13399000e+08
3990.000000 5.62322000e+08
4010.000000 5.72353000e+08
4030.000000 5.33655000e+08
4050.000000 5.62505000e+08
4070.000000 5.48621000e+08
4090.000000 4.77755000e+08
4110.000000 4.02040000e+08
4130.000000 5.12167000e+08
4150.000000 5.12820000e+08
4170.000000 5.10274000e+08
4190.000000 5.04427000e+08
4210.000000 4.96352000e+08
4230.000000 4.88363000e+08
4250.000000 4.80503000e+08
4270.000000 4.71550000e+08
4290.000000 4.63192000e+08
4310.000000 4.50487000e+08
4330.000000 3.83945000e+08
4350.000000 3.44288000e+08
4370.000000 4.27194000e+08
4390.000000 4.13028000e+08
4410.000000 4.22307000e+08
4430.000000 4.14664000e+08
4450.000000 4.10146000e+08
4470.000000 3.81275000e+08
4490.000000 3.96965000e+08
4510.000000 3.92100000e+08
4530.000000 3.86149000e+08
4550.000000 3.80323000e+08
4570.000000 3.74639000e+08
4590.000000 3.69056000e+08
4610.000000 3.63574000e+08
4630.000000 3.58173000e+08
4650.000000 3.52851000e+08
4670.000000 3.47711000e+08
4690.000000 3.42645000e+08
4710.000000 3.32999000e+08
4730.000000 3.32597000e+08
4750.000000 3.27682000e+08
4770.000000 3.23201000e+08
4790.000000 3.17897000e+08
4810.000000 3.12279000e+08
4830.000000 3.04127000e+08
4850.000000 2.66405000e+08
4870.000000 2.32612000e+08
4890.000000 2.88769000e+08
4910.000000 2.89844000e+08
4930.000000 2.79220000e+08
4950.000000 2.84071000e+08
4970.000000 2.80310000e+08
4990.000000 2.76418000e+08
5010.000000 2.68903000e+08
5030.000000 2.68823000e+08
5050.000000 2.63360000e+08
5070.000000 2.61550000e+08
5090.000000 2.57986000e+08
5110.000000 2.54485000e+08
5130.000000 2.51044000e+08
5150.000000 2.47649000e+08
5170.000000 2.44342000e+08
5190.000000 2.41077000e+08
5210.000000 2.37814000e+08
5230.000000 2.34704000e+08
5250.000000 2.31594000e+08
5270.000000 2.28551000e+08
5290.000000 2.25547000e+08
5310.000000 2.22595000e+08
5330.000000 2.19681000e+08
5350.000000 2.16805000e+08
5370.000000 2.14017000e+08
5390.000000 2.11251000e+08
5410.000000 2.08534000e+08
5430.000000 2.05838000e+08
5450.000000 2.03214000e+08
5470.000000 2.00623000e+08
5490.000000 1.98076000e+08
5510.000000 1.95561000e+08
5530.000000 1.93102000e+08
5550.000000 1.90673000e+08
5570.000000 1.88274000e+08
5590.000000 1.85929000e+08
5610.000000 1.83600000e+08
5630.000000 1.81323000e+08
5650.000000 1.79050000e+08
5670.000000 1.76852000e+08
5690.000000 1.74680000e+08
5710.000000 1.72546000e+08
5730.000000 1.70437000e+08
5750.000000 1.68365000e+08
5770.000000 1.66317000e+08
5790.000000 1.64305000e+08
5810.000000 1.62316000e+08
5830.000000 1.60362000e+08
5850.000000 1.58442000e+08
5870.000000 1.51536000e+08
5890.000000 1.54364000e+08
5910.000000 1.52836000e+08
5930.000000 1.51035000e+08
5950.000000 1.49234000e+08
5970.000000 1.47485000e+08
5990.000000 1.45746000e+08
6010.000000 1.44047000e+08
6030.000000 1.42368000e+08
6050.000000 1.40718000e+08
6070.000000 1.39087000e+08
6090.000000 1.37474000e+08
6110.000000 1.35889000e+08
6130.000000 1.34332000e+08
6150.000000 1.32793000e+08
6170.000000 1.31270000e+08
6190.000000 1.29774000e+08
6210.000000 1.28305000e+08
6230.000000 1.26852000e+08
6250.000000 1.25424000e+08
6270.000000 1.24012000e+08
6290.000000 1.22615000e+08
6310.000000 1.21243000e+08
6330.000000 1.19895000e+08
6350.000000 1.18524000e+08
6370.000000 1.17224000e+08
6390.000000 1.15947000e+08
6410.000000 1.14665000e+08
6430.000000 1.13406000e+08
6450.000000 1.12161000e+08
6470.000000 1.10928000e+08
6490.000000 1.09602000e+08
6510.000000 1.08094000e+08
6530.000000 1.06081000e+08
6550.000000 9.84796000e+07
6570.000000 8.57913000e+07
6590.000000 1.01400000e+08
6610.000000 1.02175000e+08
6630.000000 1.01440000e+08
6650.000000 1.00660000e+08
6670.000000 9.85584000e+07
6690.000000 9.75407000e+07
6710.000000 9.74956000e+07
6730.000000 9.64678000e+07
6750.000000 9.54505000e+07
6770.000000 9.44518000e+07
6790.000000 9.34631000e+07
6810.000000 9.24844000e+07
6830.000000 9.15236000e+07
6850.000000 9.05724000e+07
6870.000000 8.96308000e+07
6890.000000 8.87064000e+07
6910.000000 8.77913000e+07
6930.000000 8.68931000e+07
6950.000000 8.60037000e+07
6970.000000 8.51231000e+07
6990.000000 8.42589000e+07
7010.000000 8.34032000e+07
7030.000000 8.25558000e+07
7050.000000 8.17166000e+07
7070.000000 7.97325000e+07
7090.000000 8.00852000e+07
7110.000000 7.92776000e+07
7130.000000 7.84851000e+07
7150.000000 7.77003000e+07
7170.000000 7.69230000e+07
7190.000000 7.61678000e+07
7210.000000 7.54124000e+07
7230.000000 7.46354000e+07
7250.000000 7.39303000e+07
7270.000000 7.32034000e+07
7290.000000 7.20083000e+07
7310.000000 7.17699000e+07
7330.000000 7.10773000e+07
7350.000000 7.03842000e+07
7370.000000 6.97045000e+07
7390.000000 6.90311000e+07
7410.000000 6.83618000e+07
7430.000000 6.77029000e+07
7450.000000 6.70589000e+07
7470.000000 6.64154000e+07
7490.000000 6.57805000e+07
7510.000000 6.51387000e+07
7530.000000 6.45327000e+07
7550.000000 6.39202000e+07
7570.000000 6.33154000e+07
7590.000000 6.27166000e+07
7610.000000 6.21259000e+07
7630.000000 6.15418000e+07
7650.000000 6.09649000e+07
7670.000000 6.03944000e+07
7690.000000 5.98309000e+07
7710.000000 5.92738000e+07
7730.000000 5.87234000e+07
7750.000000 5.81786000e+07
7770.000000 5.76262000e+07
7790.000000 5.71103000e+07
7810.000000 5.65661000e+07
7830.000000 5.60655000e+07
7850.000000 5.55840000e+07
7870.000000 5.50756000e+07
7890.000000 5.45643000e+07
7910.000000 5.40816000e+07
7930.000000 5.35905000e+07
7950.000000 5.31042000e+07
7970.000000 5.26139000e+07
7990.000000 5.21466000e+07
8010.000000 5.16822000e+07
8030.000000 5.12182000e+07
8050.000000 5.07565000e+07
8070.000000 5.03068000e+07
8090.000000 4.98201000e+07
8110.000000 4.93822000e+07
8130.000000 4.89686000e+07
8150.000000 4.84920000e+07
8170.000000 4.81076000e+07
8190.000000 4.76511000e+07
8210.000000 4.71487000e+07
8230.000000 4.68214000e+07
8250.000000 4.64335000e+07
8270.000000 4.59035000e+07
8290.000000 4.56297000e+07
8310.000000 4.52554000e+07
8330.000000 4.48553000e+07
8350.000000 4.43376000e+07
8370.000000 4.40512000e+07
8390.000000 4.37189000e+07
8410.000000 4.33248000e+07
8430.000000 4.29164000e+07
8450.000000 4.23769000e+07
8470.000000 4.20924000e+07
8490.000000 4.17271000e+07
8510.000000 4.12191000e+07
8530.000000 4.10447000e+07
8550.000000 4.00288000e+07
8570.000000 4.07347000e+07
8590.000000 3.91249000e+07
8610.000000 3.88575000e+07
8630.000000 4.01490000e+07
8650.000000 3.88358000e+07
8670.000000 3.61665000e+07
8690.000000 3.90742000e+07
8710.000000 3.95654000e+07
8730.000000 3.81490000e+07
8750.000000 3.38671000e+07
8770.000000 3.66669000e+07
8790.000000 3.85978000e+07
8810.000000 3.86432000e+07
8830.000000 3.78991000e+07
8850.000000 3.47607000e+07
8870.000000 3.18557000e+07
8890.000000 3.61523000e+07
8910.000000 3.71115000e+07
8930.000000 3.70588000e+07
8950.000000 3.68454000e+07
8970.000000 3.63095000e+07
8990.000000 3.47992000e+07
9010.000000 3.02395000e+07
9030.000000 3.17015000e+07
9050.000000 3.45490000e+07
9070.000000 3.46986000e+07
9090.000000 3.47987000e+07
9110.000000 3.46724000e+07
9130.000000 3.44163000e+07
9150.000000 3.41017000e+07
9170.000000 3.36427000e+07
9190.000000 3.30454000e+07
9210.000000 3.10238000e+07
9230.000000 2.68522000e+07
9250.000000 3.02497000e+07
9270.000000 3.18971000e+07
9290.000000 3.21017000e+07
9310.000000 3.18713000e+07
9330.000000 3.17872000e+07
9350.000000 3.15746000e+07
9370.000000 3.13666000e+07
9390.000000 3.11186000e+07
9410.000000 3.08640000e+07
9430.000000 3.06052000e+07
9450.000000 3.03063000e+07
9470.000000 2.98549000e+07
9490.000000 2.96456000e+07
9510.000000 2.88308000e+07
9530.000000 2.69300000e+07
9550.000000 2.37151000e+07
9570.000000 2.70957000e+07
9590.000000 2.82080000e+07
9610.000000 2.82641000e+07
9630.000000 2.80993000e+07
9650.000000 2.80553000e+07
9670.000000 2.78894000e+07
9690.000000 2.76536000e+07
9710.000000 2.74016000e+07
9730.000000 2.72552000e+07
9750.000000 2.70472000e+07
9770.000000 2.68415000e+07
9790.000000 2.66372000e+07
9810.000000 2.64352000e+07
9830.000000 2.62349000e+07
9850.000000 2.60364000e+07
9870.000000 2.58402000e+07
9890.000000 2.56452000e+07
9910.000000 2.54494000e+07
9930.000000 2.52610000e+07
9950.000000 2.50119000e+07
9970.000000 2.47828000e+07
9990.000000 2.45002000e+07
10025.000000 2.27633000e+07
10075.000000 2.19378000e+07
10125.000000 2.33066000e+07
10175.000000 2.30476000e+07
10225.000000 2.26346000e+07
10275.000000 2.22336000e+07
10325.000000 2.17608000e+07
10375.000000 2.14420000e+07
10425.000000 2.10594000e+07
10475.000000 2.06854000e+07
10525.000000 2.03196000e+07
10575.000000 1.99622000e+07
10625.000000 1.96122000e+07
10675.000000 1.92408000e+07
10725.000000 1.89351000e+07
10775.000000 1.86076000e+07
10825.000000 1.80741000e+07
10875.000000 1.78009000e+07
10925.000000 1.58156000e+07
10975.000000 1.66170000e+07
11025.000000 1.69179000e+07
11075.000000 1.67605000e+07
11125.000000 1.65040000e+07
11175.000000 1.62284000e+07
11225.000000 1.59529000e+07
11275.000000 1.56938000e+07
11325.000000 1.54351000e+07
11375.000000 1.51818000e+07
11425.000000 1.49335000e+07
11475.000000 1.46900000e+07
11525.000000 1.44519000e+07
11575.000000 1.42182000e+07
11625.000000 1.39894000e+07
11675.000000 1.37654000e+07
11725.000000 1.35455000e+07
11775.000000 1.33299000e+07
11825.000000 1.31193000e+07
11875.000000 1.29124000e+07
11925.000000 1.27095000e+07
11975.000000 1.24078000e+07
12025.000000 1.23156000e+07
12075.000000 1.21246000e+07
12125.000000 1.19370000e+07
12175.000000 1.17532000e+07
12225.000000 1.15728000e+07
12275.000000 1.13960000e+07
12325.000000 1.12226000e+07
12375.000000 1.10524000e+07
12425.000000 1.08855000e+07
12475.000000 1.07217000e+07
12525.000000 1.05450000e+07
12575.000000 1.04032000e+07
12625.000000 1.02484000e+07
12675.000000 1.00945000e+07
12725.000000 9.90835000e+06
12775.000000 9.54193000e+06
12825.000000 8.66328000e+06
12875.000000 9.36383000e+06
12925.000000 9.34745000e+06
12975.000000 9.18782000e+06
13025.000000 9.10876000e+06
13075.000000 8.97774000e+06
