# Kurucz ODFNEW /NOVER, alpha: 0.0 (2003)
# teff = 7500 K (value for the effective temperature for the model. Temperatures are given in K)
# logg = 1 log(cm/s2) (value for Log(G) for the model.)
# lh = 1.25  (l/Hp where l is the  mixing length of the convective element and Hp is the pressure scale height)
# meta = 0  (value for the Metallicity for the model.)
# vtur = 2 km/s (Microturbulence velocity)
# alpha = 0  (Alpha)
#
# column 1: WAVELENGTH (ANGSTROM), Wavelength in Angstrom
# column 2: FLUX (ERG/CM2/S/A), Flux in erg/cm2/s/A
395.000000 5.62227000e-23
405.000000 4.23641000e-22
414.000000 2.29692000e-21
422.000000 9.67738000e-21
430.000000 3.85613000e-20
441.000000 2.37082000e-19
451.000000 7.61438000e-20
460.000000 2.74535000e-19
470.000000 1.07389000e-18
480.000000 3.95304000e-18
490.000000 1.37549000e-17
500.000000 4.53371000e-17
506.000000 1.46131000e-15
512.000000 4.13413000e-15
520.000000 1.04654000e-14
530.000000 3.20830000e-14
540.000000 4.93056000e-15
550.000000 1.30243000e-14
560.000000 3.29194000e-14
570.000000 8.02878000e-14
580.000000 1.87189000e-13
590.000000 4.32562000e-13
600.000000 9.58902000e-13
610.000000 2.06842000e-12
620.000000 4.33788000e-12
630.000000 8.86762000e-12
640.000000 1.76905000e-11
650.000000 3.45057000e-11
658.000000 5.79289000e-11
665.000000 9.00283000e-11
675.000000 1.66410000e-10
685.000000 3.01536000e-10
695.000000 5.36223000e-10
705.000000 9.32756000e-10
716.000000 1.69326000e-09
726.000000 2.85287000e-09
735.000000 4.50116000e-09
745.000000 7.36116000e-09
755.000000 1.18711000e-08
765.000000 1.88801000e-08
775.000000 2.96278000e-08
785.000000 4.59314000e-08
795.000000 6.96445000e-08
805.000000 1.05829000e-07
815.000000 1.58683000e-07
825.000000 2.34642000e-07
835.000000 3.43248000e-07
845.000000 4.97192000e-07
855.000000 7.12979000e-07
865.000000 1.01273000e-06
875.000000 1.42110000e-06
885.000000 1.98825000e-06
895.000000 2.75051000e-06
905.000000 3.75347000e-06
915.000000 3.18784000e-03
925.000000 1.00163000e-02
935.000000 1.32644000e-02
945.000000 1.80842000e-02
955.000000 2.60853000e-02
965.000000 3.51475000e-02
975.000000 4.54513000e-02
985.000000 5.92842000e-02
995.000000 7.43889000e-02
1005.000000 1.03441000e-01
1015.000000 1.33750000e-01
1025.000000 1.65838000e-01
1035.000000 2.15725000e-01
1045.000000 2.77832000e-01
1055.000000 3.51877000e-01
1065.000000 4.30961000e-01
1075.000000 5.48032000e-01
1085.000000 6.85216000e-01
1095.000000 8.29070000e-01
1105.000000 2.65195000e+00
1115.000000 8.96017000e+00
1125.000000 1.32900000e+01
1135.000000 1.84165000e+01
1145.000000 2.30398000e+01
1155.000000 2.52791000e+01
1165.000000 3.36419000e+01
1175.000000 3.77568000e+01
1185.000000 4.10982000e+01
1195.000000 1.60265000e+01
1205.000000 1.38931000e+01
1215.000000 3.50846000e+00
1225.000000 1.66937000e+01
1235.000000 4.53120000e+01
1245.000000 1.08217000e+02
1255.000000 2.56100000e+02
1265.000000 2.63603000e+02
1275.000000 5.28702000e+02
1285.000000 8.68915000e+02
1295.000000 1.16625000e+03
1305.000000 8.23019000e+02
1315.000000 1.69469000e+03
1325.000000 2.22717000e+03
1335.000000 2.38058000e+03
1345.000000 3.45591000e+03
1355.000000 3.65131000e+03
1365.000000 4.03009000e+03
1375.000000 4.54994000e+03
1385.000000 5.28204000e+03
1395.000000 6.32708000e+03
1405.000000 7.26903000e+03
1415.000000 7.30833000e+03
1425.000000 8.73521000e+03
1435.000000 8.81183000e+03
1442.000000 1.04172000e+04
1447.000000 1.16539000e+04
1455.000000 1.34863000e+04
1465.000000 1.36261000e+04
1475.000000 1.52411000e+04
1485.000000 1.73961000e+04
1495.000000 2.04072000e+04
1505.000000 2.27216000e+04
1512.000000 2.27144000e+04
1517.000000 2.50598000e+04
1525.000000 2.63640000e+04
1535.000000 9.63190000e+04
1545.000000 3.87789000e+05
1555.000000 3.04045000e+05
1565.000000 2.10897000e+05
1575.000000 4.58294000e+05
1585.000000 5.99219000e+05
1595.000000 9.36009000e+05
1605.000000 6.95904000e+05
1615.000000 5.74925000e+05
1625.000000 4.53638000e+05
1635.000000 5.07788000e+05
1645.000000 7.64770000e+05
1655.000000 3.56067000e+05
1665.000000 5.50616000e+05
1672.000000 9.97323000e+04
1677.000000 9.13114000e+05
1685.000000 1.79818000e+06
1695.000000 2.02735000e+06
1705.000000 1.63481000e+06
1715.000000 2.40059000e+06
1725.000000 2.80709000e+06
1735.000000 3.64774000e+06
1745.000000 2.99760000e+06
1755.000000 4.22582000e+06
1765.000000 3.14616000e+06
1775.000000 4.31443000e+06
1785.000000 3.40700000e+06
1795.000000 5.53012000e+06
1805.000000 4.37549000e+06
1815.000000 5.22982000e+06
1825.000000 4.22333000e+06
1835.000000 3.74444000e+06
1845.000000 3.57569000e+06
1855.000000 4.27778000e+06
1865.000000 4.84399000e+06
1875.000000 4.51941000e+06
1885.000000 4.78553000e+06
1895.000000 5.41140000e+06
1905.000000 4.74775000e+06
1915.000000 5.02467000e+06
1925.000000 5.01662000e+06
1935.000000 3.41280000e+06
1945.000000 5.79709000e+06
1955.000000 5.96888000e+06
1967.000000 6.67367000e+06
1976.000000 6.54066000e+06
1984.000000 6.30014000e+06
1995.000000 6.15475000e+06
2005.000000 5.67255000e+06
2015.000000 5.00317000e+06
2025.000000 4.79384000e+06
2035.000000 5.81402000e+06
2045.000000 6.59291000e+06
2055.000000 5.51201000e+06
2065.000000 5.18356000e+06
2074.000000 7.08367000e+06
2078.000000 7.63695000e+06
2085.000000 7.24467000e+06
2095.000000 6.73011000e+06
2105.000000 6.20890000e+06
2115.000000 6.28735000e+06
2125.000000 6.51414000e+06
2135.000000 4.71508000e+06
2145.000000 6.03378000e+06
2155.000000 6.36908000e+06
2165.000000 5.37555000e+06
2175.000000 5.54898000e+06
2185.000000 5.83864000e+06
2195.000000 6.72433000e+06
2205.000000 6.23073000e+06
2215.000000 4.91123000e+06
2225.000000 4.67162000e+06
2235.000000 6.47387000e+06
2245.000000 5.70010000e+06
2255.000000 4.54725000e+06
2265.000000 4.54993000e+06
2275.000000 5.61292000e+06
2285.000000 5.98340000e+06
2295.000000 5.39750000e+06
2305.000000 5.70551000e+06
2315.000000 5.19336000e+06
2325.000000 4.83879000e+06
2335.000000 2.94151000e+06
2345.000000 2.15315000e+06
2355.000000 4.06290000e+06
2365.000000 2.10207000e+06
2375.000000 3.10320000e+06
2385.000000 1.57435000e+06
2395.000000 2.22359000e+06
2405.000000 2.09213000e+06
2415.000000 3.05338000e+06
2425.000000 5.37660000e+06
2435.000000 5.14579000e+06
2445.000000 5.64550000e+06
2455.000000 5.63285000e+06
2465.000000 5.28431000e+06
2475.000000 4.99434000e+06
2485.000000 5.18129000e+06
2495.000000 4.97735000e+06
2505.000000 6.66643000e+06
2513.000000 4.87659000e+06
2518.000000 5.52148000e+06
2525.000000 4.33058000e+06
2535.000000 4.23926000e+06
2545.000000 4.33385000e+06
2555.000000 5.29728000e+06
2565.000000 4.36044000e+06
2575.000000 5.14605000e+06
2585.000000 4.49754000e+06
2595.000000 3.86395000e+06
2605.000000 3.25881000e+06
2615.000000 3.03533000e+06
2625.000000 4.11134000e+06
2635.000000 5.48120000e+06
2645.000000 8.47315000e+06
2655.000000 8.64994000e+06
2665.000000 6.77688000e+06
2675.000000 7.55130000e+06
2685.000000 7.33578000e+06
2695.000000 7.00290000e+06
2705.000000 7.48514000e+06
2715.000000 6.24848000e+06
2725.000000 6.34120000e+06
2735.000000 6.80863000e+06
2745.000000 3.61289000e+06
2755.000000 4.48257000e+06
2765.000000 5.38197000e+06
2775.000000 6.67540000e+06
2785.000000 5.03101000e+06
2795.000000 1.75734000e+06
2805.000000 2.30107000e+06
2815.000000 6.26216000e+06
2825.000000 8.24916000e+06
2835.000000 7.87936000e+06
2845.000000 7.64069000e+06
2855.000000 6.80477000e+06
2865.000000 8.30544000e+06
2875.000000 7.98342000e+06
2885.000000 8.31652000e+06
2895.000000 7.77055000e+06
2910.000000 9.60898000e+06
2930.000000 9.00212000e+06
2950.000000 8.89649000e+06
2970.000000 9.71239000e+06
2990.000000 9.87703000e+06
3010.000000 1.04194000e+07
3030.000000 1.03024000e+07
3050.000000 1.02658000e+07
3070.000000 1.03127000e+07
3090.000000 1.08918000e+07
3110.000000 1.04145000e+07
3130.000000 1.03233000e+07
3150.000000 1.09869000e+07
3170.000000 1.08922000e+07
3190.000000 1.00582000e+07
3210.000000 1.07654000e+07
3230.000000 1.01761000e+07
3250.000000 1.08908000e+07
3270.000000 1.11734000e+07
3290.000000 1.13303000e+07
3310.000000 1.17099000e+07
3330.000000 1.13740000e+07
3350.000000 1.12158000e+07
3370.000000 1.10363000e+07
3390.000000 1.13408000e+07
3410.000000 1.17521000e+07
3430.000000 1.19949000e+07
3450.000000 1.19272000e+07
3470.000000 1.16965000e+07
3490.000000 1.15471000e+07
3510.000000 1.20977000e+07
3530.000000 1.22516000e+07
3550.000000 1.26927000e+07
3570.000000 1.20135000e+07
3590.000000 1.21018000e+07
3610.000000 1.22075000e+07
3630.000000 1.24481000e+07
3640.000000 1.21643000e+07
3650.000000 1.27863000e+07
3670.000000 1.26873000e+07
3690.000000 1.39701000e+07
3710.000000 1.86584000e+07
3730.000000 2.75353000e+07
3750.000000 4.17543000e+07
3770.000000 4.29506000e+07
3790.000000 5.12111000e+07
3810.000000 5.64078000e+07
3830.000000 4.53136000e+07
3850.000000 5.74504000e+07
3870.000000 6.02439000e+07
3890.000000 4.40013000e+07
3910.000000 5.64819000e+07
3930.000000 3.72219000e+07
3950.000000 5.40737000e+07
3970.000000 3.41141000e+07
3990.000000 5.71243000e+07
4010.000000 5.79171000e+07
4030.000000 5.67498000e+07
4050.000000 5.62160000e+07
4070.000000 5.51077000e+07
4090.000000 5.40385000e+07
4110.000000 4.33241000e+07
4130.000000 5.40460000e+07
4150.000000 5.50488000e+07
4170.000000 5.30293000e+07
4190.000000 5.28740000e+07
4210.000000 5.22942000e+07
4230.000000 5.13334000e+07
4250.000000 5.13708000e+07
4270.000000 4.97811000e+07
4290.000000 5.04070000e+07
4310.000000 4.74316000e+07
4330.000000 4.46958000e+07
4350.000000 3.88287000e+07
4370.000000 4.88427000e+07
4390.000000 4.74721000e+07
4410.000000 4.61321000e+07
4430.000000 4.63979000e+07
4450.000000 4.65830000e+07
4470.000000 4.62067000e+07
4490.000000 4.59361000e+07
4510.000000 4.65723000e+07
4530.000000 4.46970000e+07
4550.000000 4.35789000e+07
4570.000000 4.51536000e+07
4590.000000 4.31910000e+07
4610.000000 4.47422000e+07
4630.000000 4.30894000e+07
4650.000000 4.36586000e+07
4670.000000 4.32527000e+07
4690.000000 4.21104000e+07
4710.000000 4.06701000e+07
4730.000000 4.19451000e+07
4750.000000 4.20785000e+07
4770.000000 4.10988000e+07
4790.000000 4.08155000e+07
4810.000000 4.02993000e+07
4830.000000 3.96868000e+07
4850.000000 3.54492000e+07
4870.000000 2.87254000e+07
4890.000000 3.80950000e+07
4910.000000 3.80947000e+07
4930.000000 3.70081000e+07
4950.000000 3.75615000e+07
4970.000000 3.77204000e+07
4990.000000 3.61477000e+07
5010.000000 3.46350000e+07
5030.000000 3.54798000e+07
5050.000000 3.50723000e+07
5070.000000 3.53399000e+07
5090.000000 3.48591000e+07
5110.000000 3.45897000e+07
5130.000000 3.36319000e+07
5150.000000 3.30062000e+07
5170.000000 3.23087000e+07
5190.000000 3.20085000e+07
5210.000000 3.19505000e+07
5230.000000 3.15593000e+07
5250.000000 3.19603000e+07
5270.000000 3.02491000e+07
5290.000000 3.13523000e+07
5310.000000 3.04966000e+07
5330.000000 2.99114000e+07
5350.000000 3.06806000e+07
5370.000000 3.02775000e+07
5390.000000 2.97796000e+07
5410.000000 2.92290000e+07
5430.000000 2.90409000e+07
5450.000000 2.93317000e+07
5470.000000 2.89350000e+07
5490.000000 2.87871000e+07
5510.000000 2.83799000e+07
5530.000000 2.81368000e+07
5550.000000 2.81925000e+07
5570.000000 2.77560000e+07
5590.000000 2.75132000e+07
5610.000000 2.73892000e+07
5630.000000 2.72270000e+07
5650.000000 2.67348000e+07
5670.000000 2.63884000e+07
5690.000000 2.64557000e+07
5710.000000 2.62372000e+07
5730.000000 2.61748000e+07
5750.000000 2.58278000e+07
5770.000000 2.56423000e+07
5790.000000 2.53194000e+07
5810.000000 2.51308000e+07
5830.000000 2.49000000e+07
5850.000000 2.46970000e+07
5870.000000 2.44995000e+07
5890.000000 2.38881000e+07
5910.000000 2.40244000e+07
5930.000000 2.38005000e+07
5950.000000 2.35407000e+07
5970.000000 2.34118000e+07
5990.000000 2.30499000e+07
6010.000000 2.28248000e+07
6030.000000 2.27327000e+07
6050.000000 2.25096000e+07
6070.000000 2.23952000e+07
6090.000000 2.21143000e+07
6110.000000 2.18456000e+07
6130.000000 2.15369000e+07
6150.000000 2.10245000e+07
6170.000000 2.11616000e+07
6190.000000 2.11863000e+07
6210.000000 2.10432000e+07
6230.000000 2.06996000e+07
6250.000000 2.00331000e+07
6270.000000 2.05159000e+07
6290.000000 2.03285000e+07
6310.000000 1.99065000e+07
6330.000000 1.98938000e+07
6350.000000 1.96014000e+07
6370.000000 1.94516000e+07
6390.000000 1.93872000e+07
6410.000000 1.90858000e+07
6430.000000 1.90183000e+07
6450.000000 1.86243000e+07
6470.000000 1.87848000e+07
6490.000000 1.82998000e+07
6510.000000 1.82942000e+07
6530.000000 1.81796000e+07
6550.000000 1.67341000e+07
6570.000000 1.31858000e+07
6590.000000 1.74849000e+07
6610.000000 1.75793000e+07
6630.000000 1.75797000e+07
6650.000000 1.74545000e+07
6670.000000 1.72712000e+07
6690.000000 1.71732000e+07
6710.000000 1.70341000e+07
6730.000000 1.68781000e+07
6750.000000 1.67138000e+07
6770.000000 1.66620000e+07
6790.000000 1.64872000e+07
6810.000000 1.63872000e+07
6830.000000 1.61808000e+07
6850.000000 1.60832000e+07
6870.000000 1.59905000e+07
6890.000000 1.58684000e+07
6910.000000 1.57333000e+07
6930.000000 1.55948000e+07
6950.000000 1.54818000e+07
6970.000000 1.53426000e+07
6990.000000 1.52426000e+07
7010.000000 1.49940000e+07
7030.000000 1.49690000e+07
7050.000000 1.48698000e+07
7070.000000 1.47670000e+07
7090.000000 1.46583000e+07
7110.000000 1.42607000e+07
7130.000000 1.43372000e+07
7150.000000 1.42593000e+07
7170.000000 1.41608000e+07
7190.000000 1.40042000e+07
7210.000000 1.39121000e+07
7230.000000 1.37740000e+07
7250.000000 1.36974000e+07
7270.000000 1.36371000e+07
7290.000000 1.34674000e+07
7310.000000 1.33275000e+07
7330.000000 1.32717000e+07
7350.000000 1.31947000e+07
7370.000000 1.31502000e+07
7390.000000 1.29984000e+07
7410.000000 1.28446000e+07
7430.000000 1.27073000e+07
7450.000000 1.26521000e+07
7470.000000 1.24818000e+07
7490.000000 1.24488000e+07
7510.000000 1.23706000e+07
7530.000000 1.23296000e+07
7550.000000 1.22934000e+07
7570.000000 1.21582000e+07
7590.000000 1.20988000e+07
7610.000000 1.20157000e+07
7630.000000 1.19263000e+07
7650.000000 1.17881000e+07
7670.000000 1.16825000e+07
7690.000000 1.16358000e+07
7710.000000 1.14950000e+07
7730.000000 1.14842000e+07
7750.000000 1.13911000e+07
7770.000000 1.10580000e+07
7790.000000 1.12515000e+07
7810.000000 1.11618000e+07
7830.000000 1.10348000e+07
7850.000000 1.09083000e+07
7870.000000 1.08499000e+07
7890.000000 1.07411000e+07
7910.000000 1.06935000e+07
7930.000000 1.06294000e+07
7950.000000 1.05081000e+07
7970.000000 1.05414000e+07
7990.000000 1.03341000e+07
8010.000000 1.03671000e+07
8030.000000 1.02775000e+07
8050.000000 1.02277000e+07
8070.000000 1.01418000e+07
8090.000000 1.00710000e+07
8110.000000 1.00214000e+07
8130.000000 9.96299000e+06
8150.000000 9.89090000e+06
8170.000000 9.82165000e+06
8190.000000 9.61199000e+06
8210.000000 9.59148000e+06
8230.000000 9.52824000e+06
8250.000000 9.47379000e+06
8270.000000 9.52332000e+06
8290.000000 9.43083000e+06
8310.000000 9.32657000e+06
8330.000000 9.12385000e+06
8350.000000 9.21149000e+06
8370.000000 8.96802000e+06
8390.000000 8.99971000e+06
8410.000000 8.96441000e+06
8430.000000 9.20183000e+06
8450.000000 9.00215000e+06
8470.000000 8.74491000e+06
8490.000000 9.51387000e+06
8510.000000 8.46001000e+06
8530.000000 9.69926000e+06
8550.000000 7.81829000e+06
8570.000000 9.99210000e+06
8590.000000 9.37125000e+06
8610.000000 9.09248000e+06
8630.000000 1.02624000e+07
8650.000000 1.00513000e+07
8670.000000 7.76674000e+06
8690.000000 9.92558000e+06
8710.000000 1.02212000e+07
8730.000000 1.00326000e+07
8750.000000 8.11890000e+06
8770.000000 9.77324000e+06
8790.000000 9.99796000e+06
8810.000000 9.88321000e+06
8830.000000 9.64860000e+06
8850.000000 9.25055000e+06
8870.000000 7.86528000e+06
8890.000000 9.54645000e+06
8910.000000 9.52642000e+06
8930.000000 9.45262000e+06
8950.000000 9.48143000e+06
8970.000000 9.38536000e+06
8990.000000 9.23084000e+06
9010.000000 7.73181000e+06
9030.000000 8.53938000e+06
9050.000000 9.10839000e+06
9070.000000 8.83379000e+06
9090.000000 8.69511000e+06
9110.000000 8.85807000e+06
9130.000000 8.87037000e+06
9150.000000 8.86539000e+06
9170.000000 8.76717000e+06
9190.000000 8.63315000e+06
9210.000000 8.39672000e+06
9230.000000 6.79938000e+06
9250.000000 8.11512000e+06
9270.000000 8.20728000e+06
9290.000000 8.42210000e+06
9310.000000 8.38465000e+06
9330.000000 8.30719000e+06
9350.000000 8.27256000e+06
9370.000000 8.22913000e+06
9390.000000 8.10267000e+06
9410.000000 7.83895000e+06
9430.000000 7.97689000e+06
9450.000000 7.95919000e+06
9470.000000 7.92981000e+06
9490.000000 7.89391000e+06
9510.000000 7.80242000e+06
9530.000000 7.56148000e+06
9550.000000 6.22247000e+06
9570.000000 7.51938000e+06
9590.000000 7.60848000e+06
9610.000000 7.50709000e+06
9630.000000 7.37032000e+06
9650.000000 7.44700000e+06
9670.000000 7.31672000e+06
9690.000000 7.30380000e+06
9710.000000 7.34367000e+06
9730.000000 7.28406000e+06
9750.000000 7.18961000e+06
9770.000000 7.19810000e+06
9790.000000 7.14710000e+06
9810.000000 7.09097000e+06
9830.000000 7.03837000e+06
9850.000000 6.94264000e+06
9870.000000 6.91995000e+06
9890.000000 6.84230000e+06
9910.000000 6.83427000e+06
9930.000000 6.79073000e+06
9950.000000 6.75166000e+06
9970.000000 6.73900000e+06
9990.000000 6.69128000e+06
10025.000000 6.38112000e+06
10075.000000 6.06853000e+06
10125.000000 6.32772000e+06
10175.000000 6.28424000e+06
10225.000000 6.20708000e+06
10275.000000 6.11970000e+06
10325.000000 5.98707000e+06
10375.000000 5.91585000e+06
10425.000000 5.82943000e+06
10475.000000 5.66885000e+06
10525.000000 5.60797000e+06
10575.000000 5.54328000e+06
10625.000000 5.45819000e+06
10675.000000 5.28321000e+06
10725.000000 5.26550000e+06
10775.000000 5.19760000e+06
10825.000000 5.12237000e+06
10875.000000 5.04671000e+06
10925.000000 4.54895000e+06
10975.000000 4.82755000e+06
11025.000000 4.86166000e+06
11075.000000 4.79667000e+06
11125.000000 4.71195000e+06
11175.000000 4.64785000e+06
11225.000000 4.58800000e+06
11275.000000 4.43657000e+06
11325.000000 4.37956000e+06
11375.000000 4.36822000e+06
11425.000000 4.28389000e+06
11475.000000 4.26667000e+06
11525.000000 4.20959000e+06
11575.000000 4.14294000e+06
11625.000000 4.03545000e+06
11675.000000 3.95646000e+06
11725.000000 3.97486000e+06
11775.000000 3.84607000e+06
11825.000000 3.82547000e+06
11875.000000 3.74951000e+06
11925.000000 3.76317000e+06
11975.000000 3.67270000e+06
12025.000000 3.64457000e+06
12075.000000 3.58628000e+06
12125.000000 3.54037000e+06
12175.000000 3.50423000e+06
12225.000000 3.45143000e+06
12275.000000 3.39861000e+06
12325.000000 3.35646000e+06
12375.000000 3.31660000e+06
12425.000000 3.28020000e+06
12475.000000 3.22540000e+06
12525.000000 3.18457000e+06
12575.000000 3.12022000e+06
12625.000000 3.09319000e+06
12675.000000 3.06626000e+06
12725.000000 3.02964000e+06
12775.000000 2.97435000e+06
12825.000000 2.68918000e+06
12875.000000 2.90151000e+06
12925.000000 2.87031000e+06
12975.000000 2.83413000e+06
13025.000000 2.80087000e+06
13075.000000 2.76626000e+06
13125.000000 2.72773000e+06
13175.000000 2.68211000e+06
13225.000000 2.66079000e+06
13275.000000 2.62646000e+06
13325.000000 2.59448000e+06
13375.000000 2.56164000e+06
13425.000000 2.52796000e+06
13475.000000 2.49637000e+06
13525.000000 2.45797000e+06
13575.000000 2.42723000e+06
13625.000000 2.40376000e+06
13675.000000 2.37010000e+06
13725.000000 2.32047000e+06
13775.000000 2.30981000e+06
13825.000000 2.28347000e+06
13875.000000 2.26293000e+06
13925.000000 2.22631000e+06
13975.000000 2.20443000e+06
14025.000000 2.17878000e+06
14075.000000 2.15477000e+06
14125.000000 2.12576000e+06
14175.000000 2.10123000e+06
14225.000000 2.07494000e+06
14275.000000 2.04952000e+06
14325.000000 2.02679000e+06
14375.000000 2.00506000e+06
14425.000000 1.94484000e+06
14475.000000 1.95570000e+06
14525.000000 1.91440000e+06
14570.000000 1.91147000e+06
14620.000000 1.88414000e+06
14675.000000 1.86829000e+06
14725.000000 1.84225000e+06
14775.000000 1.81444000e+06
14825.000000 1.79862000e+06
14875.000000 1.76969000e+06
14925.000000 1.76293000e+06
14975.000000 1.73959000e+06
15025.000000 1.70450000e+06
15075.000000 1.68807000e+06
15125.000000 1.67363000e+06
15175.000000 1.65657000e+06
15225.000000 1.66456000e+06
