# Kurucz ODFNEW /NOVER, alpha: 0.0 (2003)
# teff = 23000 K (value for the effective temperature for the model. Temperatures are given in K)
# logg = 4 log(cm/s2) (value for Log(G) for the model.)
# lh = 1.25  (l/Hp where l is the  mixing length of the convective element and Hp is the pressure scale height)
# meta = 0.2  (value for the Metallicity for the model.)
# vtur = 2 km/s (Microturbulence velocity)
# alpha = 0  (Alpha)
#
# column 1: WAVELENGTH (ANGSTROM), Wavelength in Angstrom
# column 2: FLUX (ERG/CM2/S/A), Flux in erg/cm2/s/A
147.200000 2.24600000e-16
151.000000 1.05785000e-15
155.200000 5.39811000e-15
158.800000 2.04742000e-14
162.000000 6.39940000e-14
166.000000 2.51103000e-13
170.300000 1.01921000e-12
173.400000 2.69809000e-12
176.800000 7.55839000e-12
180.200000 2.04259000e-11
181.700000 3.13001000e-11
186.100000 1.05738000e-10
191.000000 3.86147000e-10
193.900000 8.07303000e-10
198.400000 2.43652000e-09
201.800000 5.44549000e-09
205.000000 1.13454000e-08
210.500000 3.81676000e-08
216.200000 1.26158000e-07
219.800000 2.60417000e-07
223.000000 4.86758000e-07
226.800000 1.00089000e-06
230.000000 4.31829000e-05
234.000000 1.02432000e-04
240.000000 2.60695000e-04
246.500000 6.82006000e-04
252.400000 1.58449000e-03
256.800000 2.77402000e-03
260.000000 4.54015000e-03
264.000000 7.50367000e-03
268.500000 1.30479000e-02
273.500000 2.35096000e-02
278.500000 4.18888000e-02
284.000000 8.00251000e-02
290.000000 1.50033000e-01
296.000000 2.75280000e-01
301.000000 4.45293000e-01
308.000000 8.70261000e-01
318.000000 2.18876000e+00
328.000000 4.89611000e+00
338.000000 1.09787000e+01
348.000000 2.28223000e+01
357.000000 5.98604000e+01
366.000000 1.11810000e+02
375.000000 1.86346000e+02
385.000000 3.30739000e+02
395.000000 5.84851000e+02
405.000000 9.65176000e+02
414.000000 1.50974000e+03
422.000000 2.17871000e+03
430.000000 3.18315000e+03
441.000000 5.10058000e+03
451.000000 7.57863000e+03
460.000000 1.06236000e+04
470.000000 1.55851000e+04
480.000000 2.21721000e+04
490.000000 3.14328000e+04
500.000000 4.35243000e+04
506.000000 2.46576000e+05
512.000000 2.48792000e+06
520.000000 2.95797000e+06
530.000000 3.71056000e+06
540.000000 4.15772000e+06
550.000000 6.09206000e+06
560.000000 7.22729000e+06
570.000000 8.99849000e+06
580.000000 8.82257000e+06
590.000000 1.18592000e+07
600.000000 1.38438000e+07
610.000000 1.66901000e+07
620.000000 1.84709000e+07
630.000000 2.01349000e+07
640.000000 1.90213000e+07
650.000000 1.38806000e+07
658.000000 2.25691000e+07
665.000000 2.83213000e+07
675.000000 3.12802000e+07
685.000000 3.31796000e+07
695.000000 4.25667000e+07
705.000000 4.45299000e+07
716.000000 5.06905000e+07
726.000000 5.37323000e+07
735.000000 5.66023000e+07
745.000000 6.50728000e+07
755.000000 7.07427000e+07
765.000000 7.71709000e+07
775.000000 8.38354000e+07
785.000000 9.06327000e+07
795.000000 9.51800000e+07
805.000000 1.00335000e+08
815.000000 1.05171000e+08
825.000000 1.15522000e+08
835.000000 1.07336000e+08
845.000000 1.22860000e+08
855.000000 1.27743000e+08
865.000000 1.37737000e+08
875.000000 1.48266000e+08
885.000000 1.61784000e+08
895.000000 1.70854000e+08
905.000000 1.69109000e+08
915.000000 2.57453000e+08
925.000000 1.80861000e+09
935.000000 4.87381000e+09
945.000000 1.08957000e+10
955.000000 1.52720000e+10
965.000000 1.75228000e+10
975.000000 2.38139000e+09
985.000000 1.41338000e+10
995.000000 1.49988000e+10
1005.000000 1.89912000e+10
1015.000000 1.89673000e+10
1025.000000 8.40467000e+09
1035.000000 1.34609000e+10
1045.000000 2.37579000e+10
1055.000000 2.17317000e+10
1065.000000 1.66163000e+10
1075.000000 2.00885000e+10
1085.000000 1.74338000e+10
1095.000000 2.03257000e+10
1105.000000 1.77473000e+10
1115.000000 1.64634000e+10
1125.000000 1.32490000e+10
1135.000000 1.85378000e+10
1145.000000 1.63729000e+10
1155.000000 1.71211000e+10
1165.000000 1.69836000e+10
1175.000000 9.52694000e+09
1185.000000 1.63532000e+10
1195.000000 1.40775000e+10
1205.000000 7.81985000e+09
1215.000000 6.42358000e+09
1225.000000 1.30053000e+10
1235.000000 1.61090000e+10
1245.000000 1.57038000e+10
1255.000000 1.53794000e+10
1265.000000 1.54468000e+10
1275.000000 1.60532000e+10
1285.000000 1.60304000e+10
1295.000000 9.90265000e+09
1305.000000 1.06051000e+10
1315.000000 1.53343000e+10
1325.000000 1.40909000e+10
1335.000000 1.31352000e+10
1345.000000 1.40623000e+10
1355.000000 1.36946000e+10
1365.000000 1.21156000e+10
1375.000000 1.18483000e+10
1385.000000 1.15818000e+10
1395.000000 8.34021000e+09
1405.000000 9.12842000e+09
1415.000000 9.96019000e+09
1425.000000 1.00495000e+10
1435.000000 1.03868000e+10
1442.000000 1.07162000e+10
1447.000000 1.04925000e+10
1455.000000 1.01413000e+10
1465.000000 9.14553000e+09
1475.000000 9.44289000e+09
1485.000000 9.29598000e+09
1495.000000 9.10866000e+09
1505.000000 8.10400000e+09
1512.000000 7.09759000e+09
1517.000000 7.40022000e+09
1525.000000 7.76016000e+09
1535.000000 6.47814000e+09
1545.000000 6.33189000e+09
1555.000000 6.17951000e+09
1565.000000 6.68345000e+09
1575.000000 7.15727000e+09
1585.000000 7.24764000e+09
1595.000000 7.13602000e+09
1605.000000 7.34849000e+09
1615.000000 7.23755000e+09
1625.000000 7.00893000e+09
1635.000000 7.53720000e+09
1645.000000 7.50654000e+09
1655.000000 7.31638000e+09
1665.000000 7.62176000e+09
1672.000000 7.23264000e+09
1677.000000 7.81059000e+09
1685.000000 7.66801000e+09
1695.000000 7.15242000e+09
1705.000000 6.91352000e+09
1715.000000 6.46578000e+09
1725.000000 6.38457000e+09
1735.000000 6.75021000e+09
1745.000000 6.51458000e+09
1755.000000 6.62121000e+09
1765.000000 6.42353000e+09
1775.000000 6.04345000e+09
1785.000000 6.19088000e+09
1795.000000 6.48631000e+09
1805.000000 6.56554000e+09
1815.000000 5.67446000e+09
1825.000000 6.01003000e+09
1835.000000 5.74846000e+09
1845.000000 5.19471000e+09
1855.000000 5.15933000e+09
1865.000000 5.25178000e+09
1875.000000 5.68401000e+09
1885.000000 4.96121000e+09
1895.000000 4.58671000e+09
1905.000000 5.08285000e+09
1915.000000 4.66399000e+09
1925.000000 4.44029000e+09
1935.000000 4.77021000e+09
1945.000000 4.85055000e+09
1955.000000 4.34330000e+09
1967.000000 4.82064000e+09
1976.000000 5.01765000e+09
1984.000000 4.61932000e+09
1995.000000 4.52479000e+09
2005.000000 4.76813000e+09
2015.000000 4.63825000e+09
2025.000000 4.84685000e+09
2035.000000 4.34657000e+09
2045.000000 4.48658000e+09
2055.000000 4.32099000e+09
2065.000000 4.30592000e+09
2074.000000 4.58620000e+09
2078.000000 4.03454000e+09
2085.000000 4.33853000e+09
2095.000000 4.06958000e+09
2105.000000 4.21848000e+09
2115.000000 4.24530000e+09
2125.000000 4.28019000e+09
2135.000000 4.19299000e+09
2145.000000 3.95044000e+09
2155.000000 4.15804000e+09
2165.000000 4.14897000e+09
2175.000000 4.10039000e+09
2185.000000 3.91846000e+09
2195.000000 4.01295000e+09
2205.000000 3.98276000e+09
2215.000000 3.89405000e+09
2225.000000 3.77694000e+09
2235.000000 3.75951000e+09
2245.000000 3.79351000e+09
2255.000000 3.63407000e+09
2265.000000 3.72123000e+09
2275.000000 3.66472000e+09
2285.000000 3.68199000e+09
2295.000000 3.36959000e+09
2305.000000 3.53598000e+09
2315.000000 3.40469000e+09
2325.000000 3.36174000e+09
2335.000000 3.22204000e+09
2345.000000 3.24250000e+09
2355.000000 3.25367000e+09
2365.000000 3.20163000e+09
2375.000000 3.15356000e+09
2385.000000 3.11776000e+09
2395.000000 3.11910000e+09
2405.000000 3.02216000e+09
2415.000000 3.02567000e+09
2425.000000 3.03017000e+09
2435.000000 2.91784000e+09
2445.000000 2.94917000e+09
2455.000000 2.95850000e+09
2465.000000 2.88625000e+09
2475.000000 2.83967000e+09
2485.000000 2.81430000e+09
2495.000000 2.53288000e+09
2505.000000 2.74300000e+09
2513.000000 2.59611000e+09
2518.000000 2.71742000e+09
2525.000000 2.65132000e+09
2535.000000 2.61392000e+09
2545.000000 2.51896000e+09
2555.000000 2.58314000e+09
2565.000000 2.54294000e+09
2575.000000 2.56646000e+09
2585.000000 2.53486000e+09
2595.000000 2.51200000e+09
2605.000000 2.48998000e+09
2615.000000 2.45670000e+09
2625.000000 2.43775000e+09
2635.000000 2.42031000e+09
2645.000000 2.40878000e+09
2655.000000 2.40397000e+09
2665.000000 2.29664000e+09
2675.000000 2.32157000e+09
2685.000000 2.30901000e+09
2695.000000 2.22473000e+09
2705.000000 2.18721000e+09
2715.000000 2.18533000e+09
2725.000000 2.17541000e+09
2735.000000 2.17394000e+09
2745.000000 2.09248000e+09
2755.000000 2.09206000e+09
2765.000000 2.07740000e+09
2775.000000 2.10139000e+09
2785.000000 2.06515000e+09
2795.000000 1.98578000e+09
2805.000000 2.01163000e+09
2815.000000 2.01509000e+09
2825.000000 1.98452000e+09
2835.000000 1.89719000e+09
2845.000000 1.92395000e+09
2855.000000 1.89843000e+09
2865.000000 1.90824000e+09
2875.000000 1.88469000e+09
2885.000000 1.86450000e+09
2895.000000 1.83541000e+09
2910.000000 1.80470000e+09
2930.000000 1.77594000e+09
2950.000000 1.72176000e+09
2970.000000 1.70211000e+09
2990.000000 1.66328000e+09
3010.000000 1.61011000e+09
3030.000000 1.60763000e+09
3050.000000 1.57759000e+09
3070.000000 1.55102000e+09
3090.000000 1.49487000e+09
3110.000000 1.48416000e+09
3130.000000 1.45210000e+09
3150.000000 1.42795000e+09
3170.000000 1.38940000e+09
3190.000000 1.35919000e+09
3210.000000 1.34457000e+09
3230.000000 1.31537000e+09
3250.000000 1.29491000e+09
3270.000000 1.26778000e+09
3290.000000 1.24270000e+09
3310.000000 1.22195000e+09
3330.000000 1.19651000e+09
3350.000000 1.17452000e+09
3370.000000 1.15242000e+09
3390.000000 1.13434000e+09
3410.000000 1.11395000e+09
3430.000000 1.08755000e+09
3450.000000 1.06408000e+09
3470.000000 1.04679000e+09
3490.000000 1.02659000e+09
3510.000000 1.01068000e+09
3530.000000 9.97868000e+08
3550.000000 9.80079000e+08
3570.000000 9.67503000e+08
3590.000000 9.38016000e+08
3610.000000 9.22332000e+08
3630.000000 9.10567000e+08
3640.000000 9.10319000e+08
3650.000000 8.89729000e+08
3670.000000 8.80282000e+08
3690.000000 8.60999000e+08
3710.000000 8.29105000e+08
3730.000000 7.98278000e+08
3750.000000 8.46526000e+08
3770.000000 8.46050000e+08
3790.000000 8.89809000e+08
3810.000000 9.26609000e+08
3830.000000 8.08295000e+08
3850.000000 9.41970000e+08
3870.000000 9.37088000e+08
3890.000000 7.65454000e+08
3910.000000 9.35632000e+08
3930.000000 9.03400000e+08
3950.000000 8.98018000e+08
3970.000000 7.11012000e+08
3990.000000 8.63775000e+08
4010.000000 8.61341000e+08
4030.000000 8.10132000e+08
4050.000000 8.34466000e+08
4070.000000 7.97539000e+08
4090.000000 7.45955000e+08
4110.000000 6.60990000e+08
4130.000000 7.58190000e+08
4150.000000 7.54334000e+08
4170.000000 7.50993000e+08
4190.000000 7.44463000e+08
4210.000000 7.37641000e+08
4230.000000 7.20934000e+08
4250.000000 7.02693000e+08
4270.000000 6.81311000e+08
4290.000000 6.76611000e+08
4310.000000 6.56332000e+08
4330.000000 6.01034000e+08
4350.000000 5.50207000e+08
4370.000000 6.22355000e+08
4390.000000 6.14958000e+08
4410.000000 6.15243000e+08
4430.000000 6.07627000e+08
4450.000000 6.00731000e+08
4470.000000 5.69763000e+08
4490.000000 5.80321000e+08
4510.000000 5.77464000e+08
4530.000000 5.66410000e+08
4550.000000 5.59330000e+08
4570.000000 5.49972000e+08
4590.000000 5.41255000e+08
4610.000000 5.28326000e+08
4630.000000 5.20152000e+08
4650.000000 5.07184000e+08
4670.000000 5.06563000e+08
4690.000000 5.02680000e+08
4710.000000 4.82254000e+08
4730.000000 4.82175000e+08
4750.000000 4.75101000e+08
4770.000000 4.75662000e+08
4790.000000 4.66706000e+08
4810.000000 4.56059000e+08
4830.000000 4.48221000e+08
4850.000000 4.17690000e+08
4870.000000 3.72252000e+08
4890.000000 4.29743000e+08
4910.000000 4.25827000e+08
4930.000000 4.10103000e+08
4950.000000 4.13438000e+08
4970.000000 4.10285000e+08
4990.000000 4.03205000e+08
5010.000000 3.84833000e+08
5030.000000 3.90698000e+08
5050.000000 3.80194000e+08
5070.000000 3.80908000e+08
5090.000000 3.74969000e+08
5110.000000 3.68490000e+08
5130.000000 3.59352000e+08
5150.000000 3.55856000e+08
5170.000000 3.54504000e+08
5190.000000 3.49917000e+08
5210.000000 3.42766000e+08
5230.000000 3.40012000e+08
5250.000000 3.35718000e+08
5270.000000 3.30272000e+08
5290.000000 3.26877000e+08
5310.000000 3.22001000e+08
5330.000000 3.17534000e+08
5350.000000 3.12453000e+08
5370.000000 3.09790000e+08
5390.000000 3.05446000e+08
5410.000000 3.01622000e+08
5430.000000 2.96759000e+08
5450.000000 2.92911000e+08
5470.000000 2.88947000e+08
5490.000000 2.85571000e+08
5510.000000 2.82372000e+08
5530.000000 2.78104000e+08
5550.000000 2.75259000e+08
5570.000000 2.71367000e+08
5590.000000 2.68320000e+08
5610.000000 2.64411000e+08
5630.000000 2.61573000e+08
5650.000000 2.55925000e+08
5670.000000 2.51849000e+08
5690.000000 2.48732000e+08
5710.000000 2.47385000e+08
5730.000000 2.44629000e+08
5750.000000 2.40993000e+08
5770.000000 2.39087000e+08
5790.000000 2.35922000e+08
5810.000000 2.33005000e+08
5830.000000 2.29625000e+08
5850.000000 2.27144000e+08
5870.000000 2.17585000e+08
5890.000000 2.19074000e+08
5910.000000 2.18144000e+08
5930.000000 2.15186000e+08
5950.000000 2.12124000e+08
5970.000000 2.11213000e+08
5990.000000 2.07621000e+08
6010.000000 2.05959000e+08
6030.000000 2.03083000e+08
6050.000000 2.00847000e+08
6070.000000 1.98748000e+08
6090.000000 1.96308000e+08
6110.000000 1.94036000e+08
6130.000000 1.91909000e+08
6150.000000 1.88292000e+08
6170.000000 1.86807000e+08
6190.000000 1.85041000e+08
6210.000000 1.83021000e+08
6230.000000 1.80916000e+08
6250.000000 1.78188000e+08
6270.000000 1.76459000e+08
6290.000000 1.74557000e+08
6310.000000 1.72364000e+08
6330.000000 1.70675000e+08
6350.000000 1.67808000e+08
6370.000000 1.66385000e+08
6390.000000 1.64680000e+08
6410.000000 1.62857000e+08
6430.000000 1.61253000e+08
6450.000000 1.59285000e+08
6470.000000 1.56943000e+08
6490.000000 1.55342000e+08
6510.000000 1.53767000e+08
6530.000000 1.51404000e+08
6550.000000 1.44984000e+08
6570.000000 1.27634000e+08
6590.000000 1.44479000e+08
6610.000000 1.45106000e+08
6630.000000 1.43949000e+08
6650.000000 1.42411000e+08
6670.000000 1.39492000e+08
6690.000000 1.38062000e+08
6710.000000 1.37918000e+08
6730.000000 1.36143000e+08
6750.000000 1.35007000e+08
6770.000000 1.33561000e+08
6790.000000 1.30740000e+08
6810.000000 1.30388000e+08
6830.000000 1.29060000e+08
6850.000000 1.27850000e+08
6870.000000 1.26508000e+08
6890.000000 1.25060000e+08
6910.000000 1.23675000e+08
6930.000000 1.22428000e+08
6950.000000 1.21241000e+08
6970.000000 1.19980000e+08
6990.000000 1.18693000e+08
7010.000000 1.17427000e+08
7030.000000 1.16211000e+08
7050.000000 1.14931000e+08
7070.000000 1.11794000e+08
7090.000000 1.12536000e+08
7110.000000 1.10473000e+08
7130.000000 1.09424000e+08
7150.000000 1.09034000e+08
7170.000000 1.08045000e+08
7190.000000 1.07001000e+08
7210.000000 1.05908000e+08
7230.000000 1.03009000e+08
7250.000000 1.03596000e+08
7270.000000 1.02699000e+08
7290.000000 1.00789000e+08
7310.000000 1.00619000e+08
7330.000000 9.96008000e+07
7350.000000 9.86481000e+07
7370.000000 9.76695000e+07
7390.000000 9.66863000e+07
7410.000000 9.57328000e+07
7430.000000 9.46926000e+07
7450.000000 9.38184000e+07
7470.000000 9.25740000e+07
7490.000000 9.19393000e+07
7510.000000 9.10094000e+07
7530.000000 9.00947000e+07
7550.000000 8.93206000e+07
7570.000000 8.84614000e+07
7590.000000 8.75773000e+07
7610.000000 8.66817000e+07
7630.000000 8.58849000e+07
7650.000000 8.50695000e+07
7670.000000 8.42550000e+07
7690.000000 8.34351000e+07
7710.000000 8.26352000e+07
7730.000000 8.18236000e+07
7750.000000 8.10756000e+07
7770.000000 7.97290000e+07
7790.000000 7.95498000e+07
7810.000000 7.87353000e+07
7830.000000 7.80571000e+07
7850.000000 7.72258000e+07
7870.000000 7.64871000e+07
7890.000000 7.55552000e+07
7910.000000 7.51133000e+07
7930.000000 7.43875000e+07
7950.000000 7.34891000e+07
7970.000000 7.29013000e+07
7990.000000 7.20529000e+07
8010.000000 7.15644000e+07
8030.000000 7.09045000e+07
8050.000000 7.02620000e+07
8070.000000 6.96828000e+07
8090.000000 6.89184000e+07
8110.000000 6.81952000e+07
8130.000000 6.78145000e+07
8150.000000 6.71247000e+07
8170.000000 6.66498000e+07
8190.000000 6.58192000e+07
8210.000000 6.50238000e+07
8230.000000 6.44189000e+07
8250.000000 6.41346000e+07
8270.000000 6.30261000e+07
8290.000000 6.29197000e+07
8310.000000 6.23935000e+07
8330.000000 6.18500000e+07
8350.000000 6.09651000e+07
8370.000000 6.05827000e+07
8390.000000 6.01978000e+07
8410.000000 5.96349000e+07
8430.000000 5.90501000e+07
8450.000000 5.78898000e+07
8470.000000 5.79055000e+07
8490.000000 5.73560000e+07
8510.000000 5.66446000e+07
8530.000000 5.64828000e+07
8550.000000 5.49718000e+07
8570.000000 5.62287000e+07
8590.000000 5.37003000e+07
8610.000000 5.35476000e+07
8630.000000 5.53281000e+07
8650.000000 5.35671000e+07
8670.000000 4.99443000e+07
8690.000000 5.39032000e+07
8710.000000 5.42469000e+07
8730.000000 5.24564000e+07
8750.000000 4.71694000e+07
8770.000000 5.08524000e+07
8790.000000 5.26740000e+07
8810.000000 5.24545000e+07
8830.000000 5.16905000e+07
8850.000000 4.82922000e+07
8870.000000 4.45706000e+07
8890.000000 4.98797000e+07
8910.000000 5.02777000e+07
8930.000000 4.98968000e+07
8950.000000 4.97023000e+07
8970.000000 4.91672000e+07
8990.000000 4.76715000e+07
9010.000000 4.21841000e+07
9030.000000 4.44650000e+07
9050.000000 4.71794000e+07
9070.000000 4.67060000e+07
9090.000000 4.66876000e+07
9110.000000 4.65782000e+07
9130.000000 4.62433000e+07
9150.000000 4.58433000e+07
9170.000000 4.52314000e+07
9190.000000 4.47582000e+07
9210.000000 4.26445000e+07
9230.000000 3.74196000e+07
9250.000000 4.19273000e+07
9270.000000 4.28917000e+07
9290.000000 4.31538000e+07
9310.000000 4.26834000e+07
9330.000000 4.24807000e+07
9350.000000 4.22302000e+07
9370.000000 4.19231000e+07
9390.000000 4.15875000e+07
9410.000000 4.11191000e+07
9430.000000 4.09203000e+07
9450.000000 4.05819000e+07
9470.000000 3.99540000e+07
9490.000000 3.98021000e+07
9510.000000 3.89230000e+07
9530.000000 3.71192000e+07
9550.000000 3.30104000e+07
9570.000000 3.73920000e+07
9590.000000 3.81092000e+07
9610.000000 3.78251000e+07
9630.000000 3.74049000e+07
9650.000000 3.75121000e+07
9670.000000 3.72016000e+07
9690.000000 3.68797000e+07
9710.000000 3.64982000e+07
9730.000000 3.63503000e+07
9750.000000 3.60503000e+07
9770.000000 3.57931000e+07
9790.000000 3.55087000e+07
9810.000000 3.52133000e+07
9830.000000 3.49564000e+07
9850.000000 3.46915000e+07
9870.000000 3.43975000e+07
9890.000000 3.40960000e+07
9910.000000 3.36573000e+07
9930.000000 3.36434000e+07
9950.000000 3.33774000e+07
9970.000000 3.30738000e+07
9990.000000 3.27784000e+07
10025.000000 3.09895000e+07
10075.000000 2.98984000e+07
10125.000000 3.10539000e+07
10175.000000 3.06585000e+07
10225.000000 3.00870000e+07
10275.000000 2.95458000e+07
10325.000000 2.88829000e+07
10375.000000 2.84789000e+07
10425.000000 2.79648000e+07
10475.000000 2.74571000e+07
10525.000000 2.69506000e+07
10575.000000 2.64784000e+07
10625.000000 2.60098000e+07
10675.000000 2.54719000e+07
10725.000000 2.50964000e+07
10775.000000 2.46518000e+07
10825.000000 2.39288000e+07
10875.000000 2.37166000e+07
10925.000000 2.14342000e+07
10975.000000 2.24470000e+07
11025.000000 2.23969000e+07
11075.000000 2.21829000e+07
11125.000000 2.18235000e+07
11175.000000 2.14528000e+07
11225.000000 2.10779000e+07
11275.000000 2.06922000e+07
11325.000000 2.03519000e+07
11375.000000 2.00461000e+07
11425.000000 1.96964000e+07
11475.000000 1.93884000e+07
11525.000000 1.90682000e+07
11575.000000 1.87380000e+07
11625.000000 1.84383000e+07
11675.000000 1.81392000e+07
11725.000000 1.78516000e+07
11775.000000 1.75487000e+07
11825.000000 1.72816000e+07
11875.000000 1.70052000e+07
11925.000000 1.67352000e+07
11975.000000 1.62949000e+07
12025.000000 1.62074000e+07
12075.000000 1.59528000e+07
12125.000000 1.57010000e+07
12175.000000 1.54554000e+07
12225.000000 1.52148000e+07
12275.000000 1.49791000e+07
12325.000000 1.47465000e+07
12375.000000 1.45195000e+07
12425.000000 1.42977000e+07
12475.000000 1.40648000e+07
12525.000000 1.38290000e+07
12575.000000 1.36440000e+07
12625.000000 1.34428000e+07
12675.000000 1.32445000e+07
12725.000000 1.30383000e+07
12775.000000 1.26063000e+07
12825.000000 1.16259000e+07
12875.000000 1.23831000e+07
12925.000000 1.22838000e+07
12975.000000 1.20121000e+07
13025.000000 1.19283000e+07
13075.000000 1.17561000e+07
