# Kurucz ODFNEW /NOVER, alpha: 0.0 (2003)
# teff = 25000 K (value for the effective temperature for the model. Temperatures are given in K)
# logg = 4.5 log(cm/s2) (value for Log(G) for the model.)
# lh = 1.25  (l/Hp where l is the  mixing length of the convective element and Hp is the pressure scale height)
# meta = 0.5  (value for the Metallicity for the model.)
# vtur = 2 km/s (Microturbulence velocity)
# alpha = 0  (Alpha)
#
# column 1: WAVELENGTH (ANGSTROM), Wavelength in Angstrom
# column 2: FLUX (ERG/CM2/S/A), Flux in erg/cm2/s/A
147.200000 8.87689000e-14
151.000000 3.56836000e-13
155.200000 1.53965000e-12
158.800000 5.08562000e-12
162.000000 1.41153000e-11
166.000000 4.79812000e-11
170.300000 1.67503000e-10
173.400000 4.00578000e-10
176.800000 1.00374000e-09
180.200000 2.43426000e-09
181.700000 3.56008000e-09
186.100000 1.05353000e-08
191.000000 3.34266000e-08
193.900000 6.45177000e-08
198.400000 1.72551000e-07
201.800000 3.52952000e-07
205.000000 6.78185000e-07
210.500000 1.99714000e-06
216.200000 5.79169000e-06
219.800000 1.10456000e-05
223.000000 1.92921000e-05
226.800000 3.67060000e-05
230.000000 1.42438000e-03
234.000000 3.20395000e-03
240.000000 7.45545000e-03
246.500000 1.78593000e-02
252.400000 3.84099000e-02
256.800000 6.38106000e-02
260.000000 1.03578000e-01
264.000000 1.61754000e-01
268.500000 2.68719000e-01
273.500000 4.60241000e-01
278.500000 7.76994000e-01
284.000000 1.45239000e+00
290.000000 2.56413000e+00
296.000000 4.45973000e+00
301.000000 6.89124000e+00
308.000000 1.31870000e+01
318.000000 3.07783000e+01
328.000000 6.36088000e+01
338.000000 1.34294000e+02
348.000000 2.61975000e+02
357.000000 1.04119000e+03
366.000000 1.99876000e+03
375.000000 3.02937000e+03
385.000000 5.03034000e+03
395.000000 9.07603000e+03
405.000000 1.38170000e+04
414.000000 2.05606000e+04
422.000000 2.92970000e+04
430.000000 4.19904000e+04
441.000000 6.31999000e+04
451.000000 8.67325000e+04
460.000000 1.15029000e+05
470.000000 1.62737000e+05
480.000000 2.22064000e+05
490.000000 3.02466000e+05
500.000000 3.96907000e+05
506.000000 1.58086000e+06
512.000000 1.89282000e+07
520.000000 2.12328000e+07
530.000000 2.42064000e+07
540.000000 2.59460000e+07
550.000000 3.81337000e+07
560.000000 4.49012000e+07
570.000000 5.32767000e+07
580.000000 5.14095000e+07
590.000000 6.68167000e+07
600.000000 7.28961000e+07
610.000000 8.45955000e+07
620.000000 9.00387000e+07
630.000000 9.02537000e+07
640.000000 7.56641000e+07
650.000000 4.91318000e+07
658.000000 8.15004000e+07
665.000000 1.11232000e+08
675.000000 1.27573000e+08
685.000000 1.31431000e+08
695.000000 1.80774000e+08
705.000000 1.83671000e+08
716.000000 2.08883000e+08
726.000000 2.15491000e+08
735.000000 2.22875000e+08
745.000000 2.55418000e+08
755.000000 2.71808000e+08
765.000000 2.92030000e+08
775.000000 3.10522000e+08
785.000000 3.31609000e+08
795.000000 3.40790000e+08
805.000000 3.51362000e+08
815.000000 3.61067000e+08
825.000000 3.94455000e+08
835.000000 3.38223000e+08
845.000000 3.99968000e+08
855.000000 4.04334000e+08
865.000000 4.32580000e+08
875.000000 4.59614000e+08
885.000000 4.98698000e+08
895.000000 5.20256000e+08
905.000000 5.02889000e+08
915.000000 6.60112000e+08
925.000000 3.42595000e+09
935.000000 7.88687000e+09
945.000000 1.64039000e+10
955.000000 2.27890000e+10
965.000000 2.65043000e+10
975.000000 3.84392000e+09
985.000000 2.05666000e+10
995.000000 2.15754000e+10
1005.000000 2.73047000e+10
1015.000000 2.79896000e+10
1025.000000 1.30249000e+10
1035.000000 2.08322000e+10
1045.000000 3.55228000e+10
1055.000000 3.23141000e+10
1065.000000 2.38332000e+10
1075.000000 2.89286000e+10
1085.000000 2.55839000e+10
1095.000000 2.94597000e+10
1105.000000 2.59012000e+10
1115.000000 2.41081000e+10
1125.000000 1.81283000e+10
1135.000000 2.62676000e+10
1145.000000 2.31568000e+10
1155.000000 2.40526000e+10
1165.000000 2.35121000e+10
1175.000000 1.21307000e+10
1185.000000 2.22264000e+10
1195.000000 2.00061000e+10
1205.000000 1.20435000e+10
1215.000000 1.00285000e+10
1225.000000 1.81154000e+10
1235.000000 2.24135000e+10
1245.000000 2.15121000e+10
1255.000000 2.10642000e+10
1265.000000 2.17662000e+10
1275.000000 2.25501000e+10
1285.000000 2.27141000e+10
1295.000000 1.41457000e+10
1305.000000 1.53548000e+10
1315.000000 2.19037000e+10
1325.000000 1.99291000e+10
1335.000000 1.90787000e+10
1345.000000 1.97821000e+10
1355.000000 1.93623000e+10
1365.000000 1.69498000e+10
1375.000000 1.63466000e+10
1385.000000 1.57289000e+10
1395.000000 1.05547000e+10
1405.000000 1.17416000e+10
1415.000000 1.34113000e+10
1425.000000 1.34143000e+10
1435.000000 1.40454000e+10
1442.000000 1.45051000e+10
1447.000000 1.42542000e+10
1455.000000 1.36861000e+10
1465.000000 1.21964000e+10
1475.000000 1.27509000e+10
1485.000000 1.25569000e+10
1495.000000 1.22743000e+10
1505.000000 1.06872000e+10
1512.000000 9.43231000e+09
1517.000000 9.81567000e+09
1525.000000 1.03146000e+10
1535.000000 8.41740000e+09
1545.000000 8.01224000e+09
1555.000000 7.93398000e+09
1565.000000 8.72212000e+09
1575.000000 9.37729000e+09
1585.000000 9.57920000e+09
1595.000000 9.35580000e+09
1605.000000 9.78332000e+09
1615.000000 9.56071000e+09
1625.000000 9.29688000e+09
1635.000000 1.00894000e+10
1645.000000 1.01053000e+10
1655.000000 9.90738000e+09
1665.000000 1.02714000e+10
1672.000000 9.64644000e+09
1677.000000 1.07346000e+10
1685.000000 1.04226000e+10
1695.000000 9.69903000e+09
1705.000000 9.43617000e+09
1715.000000 8.80398000e+09
1725.000000 8.61915000e+09
1735.000000 9.15997000e+09
1745.000000 8.88653000e+09
1755.000000 8.97844000e+09
1765.000000 8.80927000e+09
1775.000000 8.14579000e+09
1785.000000 8.40085000e+09
1795.000000 8.81379000e+09
1805.000000 8.94026000e+09
1815.000000 7.69281000e+09
1825.000000 8.13017000e+09
1835.000000 7.79622000e+09
1845.000000 6.99888000e+09
1855.000000 7.09168000e+09
1865.000000 7.18761000e+09
1875.000000 7.71499000e+09
1885.000000 6.70616000e+09
1895.000000 6.21751000e+09
1905.000000 6.90347000e+09
1915.000000 6.30025000e+09
1925.000000 5.94461000e+09
1935.000000 6.45533000e+09
1945.000000 6.58909000e+09
1955.000000 5.83464000e+09
1967.000000 6.51671000e+09
1976.000000 6.80097000e+09
1984.000000 6.23908000e+09
1995.000000 6.13412000e+09
2005.000000 6.49817000e+09
2015.000000 6.32564000e+09
2025.000000 6.57495000e+09
2035.000000 5.88989000e+09
2045.000000 6.09475000e+09
2055.000000 5.81701000e+09
2065.000000 5.78157000e+09
2074.000000 6.11940000e+09
2078.000000 5.39433000e+09
2085.000000 5.82033000e+09
2095.000000 5.45950000e+09
2105.000000 5.71612000e+09
2115.000000 5.76376000e+09
2125.000000 5.79474000e+09
2135.000000 5.67289000e+09
2145.000000 5.34730000e+09
2155.000000 5.63201000e+09
2165.000000 5.62061000e+09
2175.000000 5.56044000e+09
2185.000000 5.29890000e+09
2195.000000 5.43291000e+09
2205.000000 5.41776000e+09
2215.000000 5.29631000e+09
2225.000000 5.13132000e+09
2235.000000 5.07947000e+09
2245.000000 5.13590000e+09
2255.000000 4.91131000e+09
2265.000000 5.03466000e+09
2275.000000 4.94318000e+09
2285.000000 4.96077000e+09
2295.000000 4.41781000e+09
2305.000000 4.75635000e+09
2315.000000 4.57933000e+09
2325.000000 4.53459000e+09
2335.000000 4.35536000e+09
2345.000000 4.40023000e+09
2355.000000 4.39276000e+09
2365.000000 4.33892000e+09
2375.000000 4.24615000e+09
2385.000000 4.21651000e+09
2395.000000 4.19142000e+09
2405.000000 4.07444000e+09
2415.000000 4.07552000e+09
2425.000000 4.07241000e+09
2435.000000 3.91697000e+09
2445.000000 3.95785000e+09
2455.000000 3.97418000e+09
2465.000000 3.88235000e+09
2475.000000 3.81636000e+09
2485.000000 3.74715000e+09
2495.000000 3.20258000e+09
2505.000000 3.62932000e+09
2513.000000 3.44446000e+09
2518.000000 3.61719000e+09
2525.000000 3.54629000e+09
2535.000000 3.50242000e+09
2545.000000 3.35594000e+09
2555.000000 3.43776000e+09
2565.000000 3.38203000e+09
2575.000000 3.41416000e+09
2585.000000 3.36824000e+09
2595.000000 3.33757000e+09
2605.000000 3.30067000e+09
2615.000000 3.25289000e+09
2625.000000 3.23269000e+09
2635.000000 3.21053000e+09
2645.000000 3.17451000e+09
2655.000000 3.17458000e+09
2665.000000 2.99708000e+09
2675.000000 3.04263000e+09
2685.000000 3.02942000e+09
2695.000000 2.90059000e+09
2705.000000 2.81421000e+09
2715.000000 2.83349000e+09
2725.000000 2.85164000e+09
2735.000000 2.83662000e+09
2745.000000 2.73934000e+09
2755.000000 2.73696000e+09
2765.000000 2.71410000e+09
2775.000000 2.75675000e+09
2785.000000 2.70411000e+09
2795.000000 2.58873000e+09
2805.000000 2.62158000e+09
2815.000000 2.63917000e+09
2825.000000 2.60060000e+09
2835.000000 2.47171000e+09
2845.000000 2.51580000e+09
2855.000000 2.47164000e+09
2865.000000 2.48714000e+09
2875.000000 2.45797000e+09
2885.000000 2.42417000e+09
2895.000000 2.38295000e+09
2910.000000 2.33696000e+09
2930.000000 2.31578000e+09
2950.000000 2.23882000e+09
2970.000000 2.21077000e+09
2990.000000 2.15757000e+09
3010.000000 2.07224000e+09
3030.000000 2.07739000e+09
3050.000000 2.04299000e+09
3070.000000 2.01489000e+09
3090.000000 1.92486000e+09
3110.000000 1.92398000e+09
3130.000000 1.87417000e+09
3150.000000 1.84699000e+09
3170.000000 1.79069000e+09
3190.000000 1.75813000e+09
3210.000000 1.73775000e+09
3230.000000 1.69413000e+09
3250.000000 1.67138000e+09
3270.000000 1.63193000e+09
3290.000000 1.59962000e+09
3310.000000 1.57072000e+09
3330.000000 1.53472000e+09
3350.000000 1.50947000e+09
3370.000000 1.47718000e+09
3390.000000 1.45691000e+09
3410.000000 1.42938000e+09
3430.000000 1.39739000e+09
3450.000000 1.36658000e+09
3470.000000 1.34214000e+09
3490.000000 1.31443000e+09
3510.000000 1.29124000e+09
3530.000000 1.27550000e+09
3550.000000 1.25151000e+09
3570.000000 1.23478000e+09
3590.000000 1.19218000e+09
3610.000000 1.17409000e+09
3630.000000 1.15899000e+09
3640.000000 1.15965000e+09
3650.000000 1.14072000e+09
3670.000000 1.12897000e+09
3690.000000 1.10857000e+09
3710.000000 1.06348000e+09
3730.000000 1.02180000e+09
3750.000000 1.03724000e+09
3770.000000 1.01892000e+09
3790.000000 1.06721000e+09
3810.000000 1.10926000e+09
3830.000000 9.67345000e+08
3850.000000 1.12344000e+09
3870.000000 1.11908000e+09
3890.000000 9.10274000e+08
3910.000000 1.12498000e+09
3930.000000 1.08875000e+09
3950.000000 1.07341000e+09
3970.000000 8.45776000e+08
3990.000000 1.03486000e+09
4010.000000 1.03757000e+09
4030.000000 9.70929000e+08
4050.000000 1.00009000e+09
4070.000000 9.43842000e+08
4090.000000 8.77476000e+08
4110.000000 7.81912000e+08
4130.000000 9.05486000e+08
4150.000000 9.02226000e+08
4170.000000 9.01716000e+08
4190.000000 8.94094000e+08
4210.000000 8.88000000e+08
4230.000000 8.65874000e+08
4250.000000 8.37471000e+08
4270.000000 8.11379000e+08
4290.000000 8.03626000e+08
4310.000000 7.72518000e+08
4330.000000 7.04234000e+08
4350.000000 6.48797000e+08
4370.000000 7.32670000e+08
4390.000000 7.34298000e+08
4410.000000 7.32534000e+08
4430.000000 7.27355000e+08
4450.000000 7.16514000e+08
4470.000000 6.79157000e+08
4490.000000 6.93694000e+08
4510.000000 6.91760000e+08
4530.000000 6.79277000e+08
4550.000000 6.71680000e+08
4570.000000 6.59735000e+08
4590.000000 6.48527000e+08
4610.000000 6.29493000e+08
4630.000000 6.19567000e+08
4650.000000 6.01112000e+08
4670.000000 6.04231000e+08
4690.000000 6.00682000e+08
4710.000000 5.73124000e+08
4730.000000 5.76623000e+08
4750.000000 5.68070000e+08
4770.000000 5.70668000e+08
4790.000000 5.58721000e+08
4810.000000 5.44168000e+08
4830.000000 5.33922000e+08
4850.000000 4.93876000e+08
4870.000000 4.39617000e+08
4890.000000 5.11919000e+08
4910.000000 5.08320000e+08
4930.000000 4.88844000e+08
4950.000000 4.92727000e+08
4970.000000 4.90844000e+08
4990.000000 4.81682000e+08
5010.000000 4.56501000e+08
5030.000000 4.65862000e+08
5050.000000 4.53360000e+08
5070.000000 4.54979000e+08
5090.000000 4.46801000e+08
5110.000000 4.38261000e+08
5130.000000 4.25431000e+08
5150.000000 4.22332000e+08
5170.000000 4.21889000e+08
5190.000000 4.16812000e+08
5210.000000 4.08261000e+08
5230.000000 4.04538000e+08
5250.000000 3.99507000e+08
5270.000000 3.92181000e+08
5290.000000 3.88885000e+08
5310.000000 3.82821000e+08
5330.000000 3.77593000e+08
5350.000000 3.71234000e+08
5370.000000 3.68265000e+08
5390.000000 3.62931000e+08
5410.000000 3.58515000e+08
5430.000000 3.52684000e+08
5450.000000 3.47805000e+08
5470.000000 3.42975000e+08
5490.000000 3.38843000e+08
5510.000000 3.35569000e+08
5530.000000 3.29733000e+08
5550.000000 3.26982000e+08
5570.000000 3.22222000e+08
5590.000000 3.18702000e+08
5610.000000 3.13896000e+08
5630.000000 3.10565000e+08
5650.000000 3.03307000e+08
5670.000000 2.97796000e+08
5690.000000 2.93647000e+08
5710.000000 2.92622000e+08
5730.000000 2.89734000e+08
5750.000000 2.84941000e+08
5770.000000 2.83399000e+08
5790.000000 2.79344000e+08
5810.000000 2.75895000e+08
5830.000000 2.71489000e+08
5850.000000 2.68667000e+08
5870.000000 2.56923000e+08
5890.000000 2.58287000e+08
5910.000000 2.57318000e+08
5930.000000 2.53721000e+08
5950.000000 2.50039000e+08
5970.000000 2.49889000e+08
5990.000000 2.44716000e+08
6010.000000 2.43340000e+08
6030.000000 2.39512000e+08
6050.000000 2.36922000e+08
6070.000000 2.34760000e+08
6090.000000 2.31880000e+08
6110.000000 2.29093000e+08
6130.000000 2.26718000e+08
6150.000000 2.21740000e+08
6170.000000 2.20087000e+08
6190.000000 2.18333000e+08
6210.000000 2.16108000e+08
6230.000000 2.13703000e+08
6250.000000 2.10004000e+08
6270.000000 2.08053000e+08
6290.000000 2.06009000e+08
6310.000000 2.03276000e+08
6330.000000 2.01420000e+08
6350.000000 1.97789000e+08
6370.000000 1.96401000e+08
6390.000000 1.94186000e+08
6410.000000 1.92041000e+08
6430.000000 1.90201000e+08
6450.000000 1.87801000e+08
6470.000000 1.84572000e+08
6490.000000 1.82837000e+08
6510.000000 1.80951000e+08
6530.000000 1.77883000e+08
6550.000000 1.69527000e+08
6570.000000 1.48379000e+08
6590.000000 1.69462000e+08
6610.000000 1.70542000e+08
6630.000000 1.69386000e+08
6650.000000 1.67500000e+08
6670.000000 1.63956000e+08
6690.000000 1.62279000e+08
6710.000000 1.62275000e+08
6730.000000 1.59906000e+08
6750.000000 1.58836000e+08
6770.000000 1.57118000e+08
6790.000000 1.53179000e+08
6810.000000 1.53174000e+08
6830.000000 1.51576000e+08
6850.000000 1.50290000e+08
6870.000000 1.48658000e+08
6890.000000 1.46828000e+08
6910.000000 1.45056000e+08
6930.000000 1.43852000e+08
6950.000000 1.42432000e+08
6970.000000 1.40957000e+08
6990.000000 1.39380000e+08
7010.000000 1.37850000e+08
7030.000000 1.36373000e+08
7050.000000 1.34888000e+08
7070.000000 1.30900000e+08
7090.000000 1.31692000e+08
7110.000000 1.29081000e+08
7130.000000 1.27869000e+08
7150.000000 1.27531000e+08
7170.000000 1.26615000e+08
7190.000000 1.25511000e+08
7210.000000 1.24214000e+08
7230.000000 1.20392000e+08
7250.000000 1.21356000e+08
7270.000000 1.20390000e+08
7290.000000 1.18114000e+08
7310.000000 1.17913000e+08
7330.000000 1.16653000e+08
7350.000000 1.15580000e+08
7370.000000 1.14433000e+08
7390.000000 1.13277000e+08
7410.000000 1.12138000e+08
7430.000000 1.10866000e+08
7450.000000 1.09844000e+08
7470.000000 1.08014000e+08
7490.000000 1.07552000e+08
7510.000000 1.06499000e+08
7530.000000 1.05323000e+08
7550.000000 1.04515000e+08
7570.000000 1.03496000e+08
7590.000000 1.02435000e+08
7610.000000 1.01273000e+08
7630.000000 1.00406000e+08
7650.000000 9.94634000e+07
7670.000000 9.85099000e+07
7690.000000 9.75395000e+07
7710.000000 9.65588000e+07
7730.000000 9.55806000e+07
7750.000000 9.47618000e+07
7770.000000 9.30390000e+07
7790.000000 9.29468000e+07
7810.000000 9.20020000e+07
7830.000000 9.11762000e+07
7850.000000 9.01620000e+07
7870.000000 8.92055000e+07
7890.000000 8.80337000e+07
7910.000000 8.75770000e+07
7930.000000 8.67524000e+07
7950.000000 8.57622000e+07
7970.000000 8.51069000e+07
7990.000000 8.40440000e+07
8010.000000 8.34957000e+07
8030.000000 8.27064000e+07
8050.000000 8.19646000e+07
8070.000000 8.12291000e+07
8090.000000 8.04135000e+07
8110.000000 7.92384000e+07
8130.000000 7.90371000e+07
8150.000000 7.82867000e+07
8170.000000 7.76781000e+07
8190.000000 7.65016000e+07
8210.000000 7.58052000e+07
8230.000000 7.48421000e+07
8250.000000 7.47785000e+07
8270.000000 7.32550000e+07
8290.000000 7.33460000e+07
8310.000000 7.27697000e+07
8330.000000 7.21547000e+07
8350.000000 7.11340000e+07
8370.000000 7.06439000e+07
8390.000000 7.02326000e+07
8410.000000 6.95368000e+07
8430.000000 6.89315000e+07
8450.000000 6.74924000e+07
8470.000000 6.76886000e+07
8490.000000 6.68579000e+07
8510.000000 6.62683000e+07
8530.000000 6.57456000e+07
8550.000000 6.46757000e+07
8570.000000 6.50974000e+07
8590.000000 6.27984000e+07
8610.000000 6.27915000e+07
8630.000000 6.38514000e+07
8650.000000 6.19956000e+07
8670.000000 5.91038000e+07
8690.000000 6.20648000e+07
8710.000000 6.23363000e+07
8730.000000 6.04000000e+07
8750.000000 5.53857000e+07
8770.000000 5.85523000e+07
8790.000000 6.04900000e+07
8810.000000 6.03807000e+07
8830.000000 5.93247000e+07
8850.000000 5.54735000e+07
8870.000000 5.16707000e+07
8890.000000 5.71872000e+07
8910.000000 5.78751000e+07
8930.000000 5.75169000e+07
8950.000000 5.72837000e+07
8970.000000 5.65837000e+07
8990.000000 5.46401000e+07
9010.000000 4.84717000e+07
9030.000000 5.08307000e+07
9050.000000 5.41342000e+07
9070.000000 5.37309000e+07
9090.000000 5.38184000e+07
9110.000000 5.36550000e+07
9130.000000 5.32530000e+07
9150.000000 5.27774000e+07
9170.000000 5.21039000e+07
9190.000000 5.14224000e+07
9210.000000 4.87388000e+07
9230.000000 4.26430000e+07
9250.000000 4.77502000e+07
9270.000000 4.91534000e+07
9290.000000 4.96535000e+07
9310.000000 4.91274000e+07
9330.000000 4.88651000e+07
9350.000000 4.86520000e+07
9370.000000 4.83029000e+07
9390.000000 4.79179000e+07
9410.000000 4.73570000e+07
9430.000000 4.71225000e+07
9450.000000 4.66954000e+07
9470.000000 4.59649000e+07
9490.000000 4.57337000e+07
9510.000000 4.46293000e+07
9530.000000 4.22893000e+07
9550.000000 3.74265000e+07
9570.000000 4.26071000e+07
9590.000000 4.37281000e+07
9610.000000 4.34565000e+07
9630.000000 4.29634000e+07
9650.000000 4.31900000e+07
9670.000000 4.28262000e+07
9690.000000 4.24490000e+07
9710.000000 4.19707000e+07
9730.000000 4.18301000e+07
9750.000000 4.14764000e+07
9770.000000 4.11963000e+07
9790.000000 4.08552000e+07
9810.000000 4.04813000e+07
9830.000000 4.02153000e+07
9850.000000 3.98969000e+07
9870.000000 3.95304000e+07
9890.000000 3.91396000e+07
9910.000000 3.85636000e+07
9930.000000 3.86873000e+07
9950.000000 3.83569000e+07
9970.000000 3.79341000e+07
9990.000000 3.76280000e+07
10025.000000 3.53036000e+07
10075.000000 3.40051000e+07
10125.000000 3.56115000e+07
10175.000000 3.52274000e+07
10225.000000 3.45749000e+07
10275.000000 3.39431000e+07
10325.000000 3.31617000e+07
10375.000000 3.27085000e+07
10425.000000 3.21140000e+07
10475.000000 3.15263000e+07
10525.000000 3.09258000e+07
10575.000000 3.03902000e+07
10625.000000 2.98485000e+07
10675.000000 2.92258000e+07
10725.000000 2.87911000e+07
10775.000000 2.82727000e+07
10825.000000 2.74174000e+07
10875.000000 2.71375000e+07
10925.000000 2.42412000e+07
10975.000000 2.55380000e+07
11025.000000 2.56354000e+07
11075.000000 2.54051000e+07
11125.000000 2.49983000e+07
11175.000000 2.45736000e+07
11225.000000 2.41423000e+07
11275.000000 2.36818000e+07
11325.000000 2.32698000e+07
11375.000000 2.29429000e+07
11425.000000 2.25246000e+07
11475.000000 2.21868000e+07
11525.000000 2.18186000e+07
11575.000000 2.14202000e+07
11625.000000 2.10841000e+07
11675.000000 2.07342000e+07
11725.000000 2.04150000e+07
11775.000000 2.00615000e+07
11825.000000 1.97540000e+07
11875.000000 1.94376000e+07
11925.000000 1.91277000e+07
11975.000000 1.85732000e+07
12025.000000 1.85175000e+07
12075.000000 1.82252000e+07
12125.000000 1.79340000e+07
12175.000000 1.76513000e+07
12225.000000 1.73738000e+07
12275.000000 1.71028000e+07
12325.000000 1.68327000e+07
12375.000000 1.65715000e+07
12425.000000 1.63190000e+07
12475.000000 1.60386000e+07
12525.000000 1.57670000e+07
12575.000000 1.55546000e+07
12625.000000 1.53258000e+07
12675.000000 1.51038000e+07
12725.000000 1.48502000e+07
12775.000000 1.43041000e+07
12825.000000 1.30446000e+07
12875.000000 1.40698000e+07
12925.000000 1.39873000e+07
12975.000000 1.36627000e+07
13025.000000 1.35855000e+07
13075.000000 1.33937000e+07
