# Kurucz ODFNEW /NOVER, alpha: 0.0 (2003)
# teff = 18000 K (value for the effective temperature for the model. Temperatures are given in K)
# logg = 4 log(cm/s2) (value for Log(G) for the model.)
# lh = 1.25  (l/Hp where l is the  mixing length of the convective element and Hp is the pressure scale height)
# meta = 0.2  (value for the Metallicity for the model.)
# vtur = 2 km/s (Microturbulence velocity)
# alpha = 0  (Alpha)
#
# column 1: WAVELENGTH (ANGSTROM), Wavelength in Angstrom
# column 2: FLUX (ERG/CM2/S/A), Flux in erg/cm2/s/A
147.200000 2.35171000e-23
151.000000 4.76525000e-22
155.200000 3.96295000e-21
158.800000 2.17575000e-20
162.000000 9.26536000e-20
166.000000 5.24189000e-19
170.300000 3.08103000e-18
173.400000 1.04859000e-17
176.800000 3.81993000e-17
180.200000 1.32607000e-16
181.700000 2.26175000e-16
186.100000 1.03274000e-15
191.000000 5.16398000e-15
193.900000 1.28478000e-14
198.400000 5.02111000e-14
201.800000 1.35527000e-13
205.000000 3.35547000e-13
210.500000 1.48786000e-12
216.200000 6.44114000e-12
219.800000 1.56393000e-11
223.000000 3.35298000e-11
226.800000 8.07975000e-11
230.000000 2.49581000e-10
234.000000 6.62717000e-10
240.000000 2.33356000e-09
246.500000 8.42774000e-09
252.400000 2.55745000e-08
256.800000 5.59025000e-08
260.000000 9.91645000e-08
264.000000 1.96008000e-07
268.500000 4.10904000e-07
273.500000 9.07850000e-07
278.500000 1.95553000e-06
284.000000 4.41238000e-06
290.000000 1.03047000e-05
296.000000 2.31973000e-05
301.000000 4.45542000e-05
308.000000 1.06418000e-04
318.000000 3.51158000e-04
328.000000 1.05885000e-03
338.000000 3.01891000e-03
348.000000 8.04451000e-03
357.000000 1.87394000e-02
366.000000 4.15410000e-02
375.000000 8.75673000e-02
385.000000 1.93091000e-01
395.000000 4.07285000e-01
405.000000 8.27760000e-01
414.000000 1.52100000e+00
422.000000 2.54278000e+00
430.000000 4.16277000e+00
441.000000 8.00623000e+00
451.000000 1.40563000e+01
460.000000 2.27604000e+01
470.000000 3.80822000e+01
480.000000 6.21587000e+01
490.000000 9.94654000e+01
500.000000 1.55785000e+02
506.000000 1.31264000e+03
512.000000 8.26596000e+03
520.000000 1.08450000e+04
530.000000 1.59208000e+04
540.000000 1.91840000e+04
550.000000 2.98307000e+04
560.000000 3.83036000e+04
570.000000 5.15919000e+04
580.000000 5.66617000e+04
590.000000 8.16370000e+04
600.000000 1.06656000e+05
610.000000 1.38461000e+05
620.000000 1.66951000e+05
630.000000 2.04586000e+05
640.000000 2.34288000e+05
650.000000 2.56693000e+05
658.000000 3.41469000e+05
665.000000 3.78582000e+05
675.000000 4.39780000e+05
685.000000 5.12419000e+05
695.000000 6.29129000e+05
705.000000 7.21624000e+05
716.000000 8.51039000e+05
726.000000 9.72851000e+05
735.000000 1.08969000e+06
745.000000 1.28150000e+06
755.000000 1.47136000e+06
765.000000 1.68124000e+06
775.000000 1.91725000e+06
785.000000 2.17243000e+06
795.000000 2.40465000e+06
805.000000 2.68142000e+06
815.000000 2.95769000e+06
825.000000 3.34345000e+06
835.000000 3.55162000e+06
845.000000 3.98111000e+06
855.000000 4.39583000e+06
865.000000 4.87280000e+06
875.000000 5.41309000e+06
885.000000 6.04037000e+06
895.000000 6.59985000e+06
905.000000 6.87890000e+06
915.000000 1.41719000e+07
925.000000 7.02010000e+07
935.000000 2.01912000e+08
945.000000 7.16230000e+08
955.000000 1.54219000e+09
965.000000 2.12669000e+09
975.000000 3.68171000e+08
985.000000 2.49415000e+09
995.000000 2.58502000e+09
1005.000000 3.32842000e+09
1015.000000 3.09761000e+09
1025.000000 6.40202000e+08
1035.000000 1.76783000e+09
1045.000000 4.46649000e+09
1055.000000 4.49324000e+09
1065.000000 3.44005000e+09
1075.000000 4.43909000e+09
1085.000000 3.80434000e+09
1095.000000 4.61178000e+09
1105.000000 3.94956000e+09
1115.000000 3.75510000e+09
1125.000000 3.58803000e+09
1135.000000 4.81240000e+09
1145.000000 4.15314000e+09
1155.000000 4.53338000e+09
1165.000000 4.81395000e+09
1175.000000 3.50254000e+09
1185.000000 4.89482000e+09
1195.000000 2.84732000e+09
1205.000000 1.53795000e+09
1215.000000 6.30109000e+08
1225.000000 2.58203000e+09
1235.000000 4.84267000e+09
1245.000000 5.22965000e+09
1255.000000 5.12081000e+09
1265.000000 4.49187000e+09
1275.000000 4.98482000e+09
1285.000000 5.30224000e+09
1295.000000 3.13734000e+09
1305.000000 2.74701000e+09
1315.000000 4.89793000e+09
1325.000000 4.63888000e+09
1335.000000 3.92726000e+09
1345.000000 4.86014000e+09
1355.000000 4.64791000e+09
1365.000000 4.01068000e+09
1375.000000 4.15561000e+09
1385.000000 4.23015000e+09
1395.000000 3.65264000e+09
1405.000000 3.85618000e+09
1415.000000 3.73921000e+09
1425.000000 3.90398000e+09
1435.000000 3.90464000e+09
1442.000000 4.12319000e+09
1447.000000 4.07837000e+09
1455.000000 3.97207000e+09
1465.000000 3.66527000e+09
1475.000000 3.65747000e+09
1485.000000 3.61777000e+09
1495.000000 3.62432000e+09
1505.000000 3.33448000e+09
1512.000000 2.96009000e+09
1517.000000 3.15653000e+09
1525.000000 3.21227000e+09
1535.000000 2.83304000e+09
1545.000000 2.93379000e+09
1555.000000 2.77855000e+09
1565.000000 2.83821000e+09
1575.000000 3.00427000e+09
1585.000000 3.07355000e+09
1595.000000 3.09999000e+09
1605.000000 3.04656000e+09
1615.000000 3.06846000e+09
1625.000000 2.89514000e+09
1635.000000 3.07714000e+09
1645.000000 3.06476000e+09
1655.000000 2.82991000e+09
1665.000000 3.09621000e+09
1672.000000 2.94044000e+09
1677.000000 3.02259000e+09
1685.000000 3.11006000e+09
1695.000000 2.91232000e+09
1705.000000 2.76227000e+09
1715.000000 2.56518000e+09
1725.000000 2.54046000e+09
1735.000000 2.69911000e+09
1745.000000 2.59118000e+09
1755.000000 2.71219000e+09
1765.000000 2.49893000e+09
1775.000000 2.49453000e+09
1785.000000 2.55191000e+09
1795.000000 2.68315000e+09
1805.000000 2.68565000e+09
1815.000000 2.38202000e+09
1825.000000 2.49115000e+09
1835.000000 2.35398000e+09
1845.000000 2.16275000e+09
1855.000000 2.05672000e+09
1865.000000 2.12148000e+09
1875.000000 2.37078000e+09
1885.000000 2.11201000e+09
1895.000000 1.96997000e+09
1905.000000 2.16070000e+09
1915.000000 2.00054000e+09
1925.000000 1.94646000e+09
1935.000000 2.05066000e+09
1945.000000 2.07354000e+09
1955.000000 1.90010000e+09
1967.000000 2.09713000e+09
1976.000000 2.17514000e+09
1984.000000 2.01005000e+09
1995.000000 1.95018000e+09
2005.000000 2.02973000e+09
2015.000000 1.92845000e+09
2025.000000 2.07390000e+09
2035.000000 1.88618000e+09
2045.000000 1.93715000e+09
2055.000000 1.84911000e+09
2065.000000 1.87436000e+09
2074.000000 1.97803000e+09
2078.000000 1.80038000e+09
2085.000000 1.90010000e+09
2095.000000 1.77437000e+09
2105.000000 1.81638000e+09
2115.000000 1.82106000e+09
2125.000000 1.84559000e+09
2135.000000 1.75785000e+09
2145.000000 1.72438000e+09
2155.000000 1.79594000e+09
2165.000000 1.75480000e+09
2175.000000 1.73392000e+09
2185.000000 1.66687000e+09
2195.000000 1.71599000e+09
2205.000000 1.67482000e+09
2215.000000 1.62080000e+09
2225.000000 1.55162000e+09
2235.000000 1.61636000e+09
2245.000000 1.57859000e+09
2255.000000 1.50684000e+09
2265.000000 1.54864000e+09
2275.000000 1.56162000e+09
2285.000000 1.57150000e+09
2295.000000 1.49632000e+09
2305.000000 1.47564000e+09
2315.000000 1.41491000e+09
2325.000000 1.39391000e+09
2335.000000 1.32997000e+09
2345.000000 1.31516000e+09
2355.000000 1.33947000e+09
2365.000000 1.28775000e+09
2375.000000 1.29590000e+09
2385.000000 1.24326000e+09
2395.000000 1.30246000e+09
2405.000000 1.23739000e+09
2415.000000 1.25371000e+09
2425.000000 1.26992000e+09
2435.000000 1.20925000e+09
2445.000000 1.25187000e+09
2455.000000 1.23088000e+09
2465.000000 1.21633000e+09
2475.000000 1.18038000e+09
2485.000000 1.21977000e+09
2495.000000 1.17267000e+09
2505.000000 1.20907000e+09
2513.000000 1.13553000e+09
2518.000000 1.18123000e+09
2525.000000 1.12635000e+09
2535.000000 1.12300000e+09
2545.000000 1.08598000e+09
2555.000000 1.12257000e+09
2565.000000 1.10587000e+09
2575.000000 1.13838000e+09
2585.000000 1.13162000e+09
2595.000000 1.12811000e+09
2605.000000 1.10082000e+09
2615.000000 1.09093000e+09
2625.000000 1.08640000e+09
2635.000000 1.08561000e+09
2645.000000 1.10488000e+09
2655.000000 1.09561000e+09
2665.000000 1.05197000e+09
2675.000000 1.06949000e+09
2685.000000 1.05658000e+09
2695.000000 1.03039000e+09
2705.000000 1.03025000e+09
2715.000000 1.00857000e+09
2725.000000 9.95953000e+08
2735.000000 1.01432000e+09
2745.000000 9.55395000e+08
2755.000000 9.51648000e+08
2765.000000 9.56751000e+08
2775.000000 9.72128000e+08
2785.000000 9.64479000e+08
2795.000000 9.15731000e+08
2805.000000 9.39953000e+08
2815.000000 9.46123000e+08
2825.000000 9.30515000e+08
2835.000000 8.89229000e+08
2845.000000 8.83827000e+08
2855.000000 8.87352000e+08
2865.000000 9.00215000e+08
2875.000000 8.83390000e+08
2885.000000 8.80309000e+08
2895.000000 8.72845000e+08
2910.000000 8.71076000e+08
2930.000000 8.48693000e+08
2950.000000 8.28610000e+08
2970.000000 8.20606000e+08
2990.000000 8.03554000e+08
3010.000000 7.94949000e+08
3030.000000 7.87443000e+08
3050.000000 7.70549000e+08
3070.000000 7.56305000e+08
3090.000000 7.43390000e+08
3110.000000 7.28757000e+08
3130.000000 7.18012000e+08
3150.000000 7.05924000e+08
3170.000000 6.91496000e+08
3190.000000 6.70969000e+08
3210.000000 6.67533000e+08
3230.000000 6.57342000e+08
3250.000000 6.46994000e+08
3270.000000 6.37060000e+08
3290.000000 6.26415000e+08
3310.000000 6.17664000e+08
3330.000000 6.06530000e+08
3350.000000 5.94710000e+08
3370.000000 5.85715000e+08
3390.000000 5.76432000e+08
3410.000000 5.67778000e+08
3430.000000 5.56661000e+08
3450.000000 5.46396000e+08
3470.000000 5.38176000e+08
3490.000000 5.29768000e+08
3510.000000 5.22800000e+08
3530.000000 5.15532000e+08
3550.000000 5.07557000e+08
3570.000000 5.01088000e+08
3590.000000 4.89733000e+08
3610.000000 4.82789000e+08
3630.000000 4.75740000e+08
3640.000000 4.74580000e+08
3650.000000 4.68533000e+08
3670.000000 4.63133000e+08
3690.000000 4.51707000e+08
3710.000000 4.39022000e+08
3730.000000 4.26014000e+08
3750.000000 4.72328000e+08
3770.000000 4.81537000e+08
3790.000000 5.23074000e+08
3810.000000 5.55695000e+08
3830.000000 4.72681000e+08
3850.000000 5.76284000e+08
3870.000000 5.89510000e+08
3890.000000 4.43548000e+08
3910.000000 5.87046000e+08
3930.000000 5.72184000e+08
3950.000000 5.67973000e+08
3970.000000 4.13781000e+08
3990.000000 5.42586000e+08
4010.000000 5.46817000e+08
4030.000000 5.12268000e+08
4050.000000 5.35402000e+08
4070.000000 5.17463000e+08
4090.000000 4.69107000e+08
4110.000000 3.98672000e+08
4130.000000 4.84956000e+08
4150.000000 4.84624000e+08
4170.000000 4.82045000e+08
4190.000000 4.78463000e+08
4210.000000 4.72652000e+08
4230.000000 4.63729000e+08
4250.000000 4.55079000e+08
4270.000000 4.40805000e+08
4290.000000 4.39979000e+08
4310.000000 4.29071000e+08
4330.000000 3.77194000e+08
4350.000000 3.38813000e+08
4370.000000 4.06618000e+08
4390.000000 3.95122000e+08
4410.000000 4.00573000e+08
4430.000000 3.92664000e+08
4450.000000 3.90722000e+08
4470.000000 3.67078000e+08
4490.000000 3.74728000e+08
4510.000000 3.73931000e+08
4530.000000 3.66451000e+08
4550.000000 3.61489000e+08
4570.000000 3.57087000e+08
4590.000000 3.51515000e+08
4610.000000 3.45635000e+08
4630.000000 3.39193000e+08
4650.000000 3.34365000e+08
4670.000000 3.30886000e+08
4690.000000 3.27059000e+08
4710.000000 3.14761000e+08
4730.000000 3.14479000e+08
4750.000000 3.09832000e+08
4770.000000 3.09210000e+08
4790.000000 3.03727000e+08
4810.000000 2.96908000e+08
4830.000000 2.91095000e+08
4850.000000 2.62593000e+08
4870.000000 2.29737000e+08
4890.000000 2.78560000e+08
4910.000000 2.77170000e+08
4930.000000 2.66912000e+08
4950.000000 2.71033000e+08
4970.000000 2.68063000e+08
4990.000000 2.63664000e+08
5010.000000 2.53143000e+08
5030.000000 2.55095000e+08
5050.000000 2.47923000e+08
5070.000000 2.49298000e+08
5090.000000 2.45655000e+08
5110.000000 2.41457000e+08
5130.000000 2.37488000e+08
5150.000000 2.33971000e+08
5170.000000 2.32587000e+08
5190.000000 2.29595000e+08
5210.000000 2.23755000e+08
5230.000000 2.23411000e+08
5250.000000 2.20755000e+08
5270.000000 2.17319000e+08
5290.000000 2.15544000e+08
5310.000000 2.12267000e+08
5330.000000 2.09324000e+08
5350.000000 2.05972000e+08
5370.000000 2.04506000e+08
5390.000000 2.01824000e+08
5410.000000 1.98932000e+08
5430.000000 1.95744000e+08
5450.000000 1.93625000e+08
5470.000000 1.90915000e+08
5490.000000 1.89252000e+08
5510.000000 1.86627000e+08
5530.000000 1.84368000e+08
5550.000000 1.82283000e+08
5570.000000 1.79859000e+08
5590.000000 1.77779000e+08
5610.000000 1.75340000e+08
5630.000000 1.73764000e+08
5650.000000 1.69621000e+08
5670.000000 1.67876000e+08
5690.000000 1.66547000e+08
5710.000000 1.65105000e+08
5730.000000 1.63185000e+08
5750.000000 1.61152000e+08
5770.000000 1.59380000e+08
5790.000000 1.57371000e+08
5810.000000 1.55430000e+08
5830.000000 1.53512000e+08
5850.000000 1.51760000e+08
5870.000000 1.45556000e+08
5890.000000 1.47045000e+08
5910.000000 1.46256000e+08
5930.000000 1.44661000e+08
5950.000000 1.42253000e+08
5970.000000 1.41302000e+08
5990.000000 1.39331000e+08
6010.000000 1.38155000e+08
6030.000000 1.36452000e+08
6050.000000 1.34924000e+08
6070.000000 1.33351000e+08
6090.000000 1.31705000e+08
6110.000000 1.30370000e+08
6130.000000 1.28899000e+08
6150.000000 1.26647000e+08
6170.000000 1.25847000e+08
6190.000000 1.24534000e+08
6210.000000 1.23098000e+08
6230.000000 1.21620000e+08
6250.000000 1.19849000e+08
6270.000000 1.18904000e+08
6290.000000 1.17530000e+08
6310.000000 1.16048000e+08
6330.000000 1.14996000e+08
6350.000000 1.12881000e+08
6370.000000 1.11941000e+08
6390.000000 1.11103000e+08
6410.000000 1.09824000e+08
6430.000000 1.08878000e+08
6450.000000 1.07533000e+08
6470.000000 1.06294000e+08
6490.000000 1.05157000e+08
6510.000000 1.03694000e+08
6530.000000 1.02114000e+08
6550.000000 9.60911000e+07
6570.000000 8.35335000e+07
6590.000000 9.75133000e+07
6610.000000 9.82605000e+07
6630.000000 9.75657000e+07
6650.000000 9.66305000e+07
6670.000000 9.47139000e+07
6690.000000 9.37697000e+07
6710.000000 9.35881000e+07
6730.000000 9.26001000e+07
6750.000000 9.16884000e+07
6770.000000 9.07529000e+07
6790.000000 8.94101000e+07
6810.000000 8.87720000e+07
6830.000000 8.78006000e+07
6850.000000 8.69996000e+07
6870.000000 8.61187000e+07
6890.000000 8.52306000e+07
6910.000000 8.43513000e+07
6930.000000 8.33317000e+07
6950.000000 8.26500000e+07
6970.000000 8.18352000e+07
6990.000000 8.09743000e+07
7010.000000 8.01296000e+07
7030.000000 7.93237000e+07
7050.000000 7.83740000e+07
7070.000000 7.66047000e+07
7090.000000 7.70050000e+07
7110.000000 7.60731000e+07
7130.000000 7.53505000e+07
7150.000000 7.46569000e+07
7170.000000 7.39478000e+07
7190.000000 7.32601000e+07
7210.000000 7.25353000e+07
7230.000000 7.10406000e+07
7250.000000 7.10355000e+07
7270.000000 7.04192000e+07
7290.000000 6.92876000e+07
7310.000000 6.90465000e+07
7330.000000 6.83778000e+07
7350.000000 6.77377000e+07
7370.000000 6.70786000e+07
7390.000000 6.64311000e+07
7410.000000 6.57924000e+07
7430.000000 6.50572000e+07
7450.000000 6.44945000e+07
7470.000000 6.37857000e+07
7490.000000 6.32374000e+07
7510.000000 6.26519000e+07
7530.000000 6.20783000e+07
7550.000000 6.15133000e+07
7570.000000 6.09447000e+07
7590.000000 6.03389000e+07
7610.000000 5.98153000e+07
7630.000000 5.92471000e+07
7650.000000 5.86899000e+07
7670.000000 5.81454000e+07
7690.000000 5.76006000e+07
7710.000000 5.70753000e+07
7730.000000 5.65287000e+07
7750.000000 5.60166000e+07
7770.000000 5.49773000e+07
7790.000000 5.49939000e+07
7810.000000 5.44816000e+07
7830.000000 5.40034000e+07
7850.000000 5.33434000e+07
7870.000000 5.28968000e+07
7890.000000 5.23046000e+07
7910.000000 5.20537000e+07
7930.000000 5.16159000e+07
7950.000000 5.09661000e+07
7970.000000 5.06514000e+07
7990.000000 4.99650000e+07
8010.000000 4.97686000e+07
8030.000000 4.93025000e+07
8050.000000 4.88532000e+07
8070.000000 4.84436000e+07
8090.000000 4.79603000e+07
8110.000000 4.75442000e+07
8130.000000 4.71481000e+07
8150.000000 4.67077000e+07
8170.000000 4.63512000e+07
8190.000000 4.58836000e+07
8210.000000 4.53132000e+07
8230.000000 4.48991000e+07
8250.000000 4.47210000e+07
8270.000000 4.42009000e+07
8290.000000 4.39046000e+07
8310.000000 4.35495000e+07
8330.000000 4.31907000e+07
8350.000000 4.26810000e+07
8370.000000 4.23718000e+07
8390.000000 4.21010000e+07
8410.000000 4.16986000e+07
8430.000000 4.12725000e+07
8450.000000 4.05376000e+07
8470.000000 4.03863000e+07
8490.000000 4.01806000e+07
8510.000000 3.94343000e+07
8530.000000 3.96990000e+07
8550.000000 3.80618000e+07
8570.000000 3.95796000e+07
8590.000000 3.76024000e+07
8610.000000 3.72511000e+07
8630.000000 3.91136000e+07
8650.000000 3.77658000e+07
8670.000000 3.44193000e+07
8690.000000 3.81254000e+07
8710.000000 3.86507000e+07
8730.000000 3.73028000e+07
8750.000000 3.25908000e+07
8770.000000 3.59131000e+07
8790.000000 3.76422000e+07
8810.000000 3.76074000e+07
8830.000000 3.69125000e+07
8850.000000 3.41258000e+07
8870.000000 3.09674000e+07
8890.000000 3.54773000e+07
8910.000000 3.60623000e+07
8930.000000 3.58447000e+07
8950.000000 3.57327000e+07
8970.000000 3.53038000e+07
8990.000000 3.41051000e+07
9010.000000 2.95657000e+07
9030.000000 3.12552000e+07
9050.000000 3.37639000e+07
9070.000000 3.35968000e+07
9090.000000 3.35499000e+07
9110.000000 3.34981000e+07
9130.000000 3.32575000e+07
9150.000000 3.30078000e+07
9170.000000 3.25804000e+07
9190.000000 3.21140000e+07
9210.000000 3.04718000e+07
9230.000000 2.61928000e+07
9250.000000 2.97619000e+07
9270.000000 3.07244000e+07
9290.000000 3.10785000e+07
9310.000000 3.08404000e+07
9330.000000 3.07204000e+07
9350.000000 3.05189000e+07
9370.000000 3.02999000e+07
9390.000000 3.00445000e+07
9410.000000 2.96076000e+07
9430.000000 2.95898000e+07
9450.000000 2.93588000e+07
9470.000000 2.89173000e+07
9490.000000 2.87508000e+07
9510.000000 2.81022000e+07
9530.000000 2.65521000e+07
9550.000000 2.32484000e+07
9570.000000 2.67078000e+07
9590.000000 2.74842000e+07
9610.000000 2.74005000e+07
9630.000000 2.70426000e+07
9650.000000 2.71750000e+07
9670.000000 2.69306000e+07
9690.000000 2.67353000e+07
9710.000000 2.65010000e+07
9730.000000 2.63587000e+07
9750.000000 2.61437000e+07
9770.000000 2.59630000e+07
9790.000000 2.57615000e+07
9810.000000 2.55645000e+07
9830.000000 2.53530000e+07
9850.000000 2.51795000e+07
9870.000000 2.49820000e+07
9890.000000 2.47686000e+07
9910.000000 2.45222000e+07
9930.000000 2.44300000e+07
9950.000000 2.42326000e+07
9970.000000 2.40013000e+07
9990.000000 2.37770000e+07
10025.000000 2.23127000e+07
10075.000000 2.14394000e+07
10125.000000 2.25301000e+07
10175.000000 2.22903000e+07
10225.000000 2.18988000e+07
10275.000000 2.15124000e+07
10325.000000 2.10576000e+07
10375.000000 2.07490000e+07
10425.000000 2.03834000e+07
10475.000000 2.00159000e+07
10525.000000 1.96561000e+07
10575.000000 1.93184000e+07
10625.000000 1.89869000e+07
10675.000000 1.85777000e+07
10725.000000 1.83233000e+07
10775.000000 1.80109000e+07
10825.000000 1.75115000e+07
10875.000000 1.73053000e+07
10925.000000 1.54968000e+07
10975.000000 1.62851000e+07
11025.000000 1.64102000e+07
11075.000000 1.62445000e+07
11125.000000 1.59856000e+07
11175.000000 1.57159000e+07
11225.000000 1.54530000e+07
11275.000000 1.51464000e+07
11325.000000 1.49143000e+07
11375.000000 1.47063000e+07
11425.000000 1.44630000e+07
11475.000000 1.42340000e+07
11525.000000 1.40030000e+07
11575.000000 1.37751000e+07
11625.000000 1.35395000e+07
11675.000000 1.33262000e+07
11725.000000 1.31237000e+07
11775.000000 1.28837000e+07
11825.000000 1.27136000e+07
11875.000000 1.25087000e+07
11925.000000 1.23208000e+07
11975.000000 1.20395000e+07
12025.000000 1.19407000e+07
12075.000000 1.17549000e+07
12125.000000 1.15728000e+07
12175.000000 1.13956000e+07
12225.000000 1.12204000e+07
12275.000000 1.10487000e+07
12325.000000 1.08811000e+07
12375.000000 1.07178000e+07
12425.000000 1.05578000e+07
12475.000000 1.03872000e+07
12525.000000 1.02290000e+07
12575.000000 1.00821000e+07
12625.000000 9.93759000e+06
12675.000000 9.79298000e+06
12725.000000 9.63218000e+06
12775.000000 9.32055000e+06
12825.000000 8.50822000e+06
12875.000000 9.13883000e+06
12925.000000 9.08811000e+06
12975.000000 8.92444000e+06
13025.000000 8.83895000e+06
13075.000000 8.71198000e+06
