# Kurucz ODFNEW /NOVER, alpha: 0.0 (2003)
# teff = 27000 K (value for the effective temperature for the model. Temperatures are given in K)
# logg = 4.5 log(cm/s2) (value for Log(G) for the model.)
# lh = 1.25  (l/Hp where l is the  mixing length of the convective element and Hp is the pressure scale height)
# meta = -1.5  (value for the Metallicity for the model.)
# vtur = 2 km/s (Microturbulence velocity)
# alpha = 0  (Alpha)
#
# column 1: WAVELENGTH (ANGSTROM), Wavelength in Angstrom
# column 2: FLUX (ERG/CM2/S/A), Flux in erg/cm2/s/A
147.200000 6.26803000e-12
151.000000 2.58494000e-11
155.200000 1.14372000e-10
158.800000 3.84880000e-10
162.000000 1.08264000e-09
166.000000 3.73052000e-09
170.300000 1.32235000e-08
173.400000 3.16656000e-08
176.800000 7.96407000e-08
180.200000 1.93388000e-07
181.700000 2.82990000e-07
186.100000 8.34276000e-07
191.000000 2.61968000e-06
193.900000 5.01478000e-06
198.400000 1.32143000e-05
201.800000 2.66807000e-05
205.000000 5.05817000e-05
210.500000 1.44995000e-04
216.200000 4.07304000e-04
219.800000 7.59845000e-04
223.000000 1.29968000e-03
226.800000 2.40854000e-03
230.000000 8.81575000e-02
234.000000 2.03687000e-01
240.000000 4.44658000e-01
246.500000 9.94613000e-01
252.400000 2.01298000e+00
256.800000 3.08364000e+00
260.000000 4.66253000e+00
264.000000 7.05881000e+00
268.500000 1.11651000e+01
273.500000 1.81943000e+01
278.500000 2.91476000e+01
284.000000 4.81094000e+01
290.000000 8.07258000e+01
296.000000 1.32390000e+02
301.000000 1.95215000e+02
308.000000 3.15151000e+02
318.000000 6.90358000e+02
328.000000 1.34042000e+03
338.000000 2.53311000e+03
348.000000 4.56509000e+03
357.000000 7.60086000e+03
366.000000 1.23166000e+04
375.000000 1.90458000e+04
385.000000 3.06594000e+04
395.000000 4.76849000e+04
405.000000 7.23922000e+04
414.000000 1.03968000e+05
422.000000 1.39836000e+05
430.000000 1.86468000e+05
441.000000 2.73577000e+05
451.000000 3.80913000e+05
460.000000 5.02140000e+05
470.000000 6.79000000e+05
480.000000 9.00177000e+05
490.000000 1.18059000e+06
500.000000 1.53027000e+06
506.000000 8.60044000e+06
512.000000 2.92538000e+07
520.000000 3.32007000e+07
530.000000 4.04491000e+07
540.000000 4.18291000e+07
550.000000 5.34545000e+07
560.000000 5.91823000e+07
570.000000 6.79041000e+07
580.000000 6.71808000e+07
590.000000 8.17030000e+07
600.000000 9.12188000e+07
610.000000 1.02064000e+08
620.000000 1.10931000e+08
630.000000 1.22216000e+08
640.000000 1.28452000e+08
650.000000 1.41846000e+08
658.000000 1.53410000e+08
665.000000 1.62550000e+08
675.000000 1.71040000e+08
685.000000 1.81554000e+08
695.000000 2.04890000e+08
705.000000 2.14998000e+08
716.000000 2.34890000e+08
726.000000 2.48391000e+08
735.000000 2.64012000e+08
745.000000 2.84034000e+08
755.000000 3.01641000e+08
765.000000 3.19125000e+08
775.000000 3.39406000e+08
785.000000 3.60342000e+08
795.000000 3.76846000e+08
805.000000 3.96539000e+08
815.000000 4.13786000e+08
825.000000 4.37762000e+08
835.000000 4.42728000e+08
845.000000 4.73818000e+08
855.000000 4.92963000e+08
865.000000 5.17495000e+08
875.000000 5.43327000e+08
885.000000 5.67529000e+08
895.000000 5.89486000e+08
905.000000 6.04497000e+08
915.000000 7.82955000e+08
925.000000 4.21061000e+09
935.000000 1.06586000e+10
945.000000 2.72651000e+10
955.000000 3.62191000e+10
965.000000 4.75754000e+10
975.000000 1.81710000e+10
985.000000 5.08700000e+10
995.000000 4.78777000e+10
1005.000000 5.02530000e+10
1015.000000 4.59144000e+10
1025.000000 1.72852000e+10
1035.000000 4.08196000e+10
1045.000000 4.96188000e+10
1055.000000 4.79515000e+10
1065.000000 4.33983000e+10
1075.000000 4.49614000e+10
1085.000000 4.10387000e+10
1095.000000 4.37770000e+10
1105.000000 4.17757000e+10
1115.000000 4.10479000e+10
1125.000000 3.78687000e+10
1135.000000 3.94239000e+10
1145.000000 3.68906000e+10
1155.000000 3.74294000e+10
1165.000000 3.67257000e+10
1175.000000 3.05286000e+10
1185.000000 3.44958000e+10
1195.000000 3.25306000e+10
1205.000000 2.81738000e+10
1215.000000 1.19484000e+10
1225.000000 2.78664000e+10
1235.000000 3.07934000e+10
1245.000000 3.01573000e+10
1255.000000 2.97982000e+10
1265.000000 2.91289000e+10
1275.000000 2.89518000e+10
1285.000000 2.83136000e+10
1295.000000 2.58832000e+10
1305.000000 2.59968000e+10
1315.000000 2.64591000e+10
1325.000000 2.54561000e+10
1335.000000 2.44463000e+10
1345.000000 2.44506000e+10
1355.000000 2.42716000e+10
1365.000000 2.33876000e+10
1375.000000 2.29769000e+10
1385.000000 2.25461000e+10
1395.000000 2.08244000e+10
1405.000000 2.08076000e+10
1415.000000 2.09756000e+10
1425.000000 2.04373000e+10
1435.000000 2.02376000e+10
1442.000000 2.01413000e+10
1447.000000 1.98656000e+10
1455.000000 1.94929000e+10
1465.000000 1.89819000e+10
1475.000000 1.86319000e+10
1485.000000 1.82657000e+10
1495.000000 1.78789000e+10
1505.000000 1.72079000e+10
1512.000000 1.68034000e+10
1517.000000 1.67747000e+10
1525.000000 1.65133000e+10
1535.000000 1.55658000e+10
1545.000000 1.53809000e+10
1555.000000 1.48666000e+10
1565.000000 1.50598000e+10
1575.000000 1.50055000e+10
1585.000000 1.47747000e+10
1595.000000 1.45515000e+10
1605.000000 1.40083000e+10
1615.000000 1.37081000e+10
1625.000000 1.36372000e+10
1635.000000 1.35297000e+10
1645.000000 1.30493000e+10
1655.000000 1.30939000e+10
1665.000000 1.29227000e+10
1672.000000 1.26533000e+10
1677.000000 1.28060000e+10
1685.000000 1.25586000e+10
1695.000000 1.22494000e+10
1705.000000 1.19482000e+10
1715.000000 1.16178000e+10
1725.000000 1.14407000e+10
1735.000000 1.13600000e+10
1745.000000 1.11386000e+10
1755.000000 1.10244000e+10
1765.000000 1.06536000e+10
1775.000000 1.05082000e+10
1785.000000 1.04234000e+10
1795.000000 1.03126000e+10
1805.000000 1.02023000e+10
1815.000000 9.89631000e+09
1825.000000 9.79109000e+09
1835.000000 9.61787000e+09
1845.000000 9.14901000e+09
1855.000000 8.96885000e+09
1865.000000 8.97084000e+09
1875.000000 8.96660000e+09
1885.000000 8.48802000e+09
1895.000000 8.16860000e+09
1905.000000 8.35516000e+09
1915.000000 8.05496000e+09
1925.000000 7.85712000e+09
1935.000000 7.93549000e+09
1945.000000 7.94293000e+09
1955.000000 7.51404000e+09
1967.000000 7.63344000e+09
1976.000000 7.69798000e+09
1984.000000 7.40757000e+09
1995.000000 7.18176000e+09
2005.000000 7.23672000e+09
2015.000000 7.21211000e+09
2025.000000 7.17395000e+09
2035.000000 6.93341000e+09
2045.000000 6.83586000e+09
2055.000000 6.57894000e+09
2065.000000 6.50310000e+09
2074.000000 6.59234000e+09
2078.000000 6.40009000e+09
2085.000000 6.40095000e+09
2095.000000 6.25518000e+09
2105.000000 6.30599000e+09
2115.000000 6.25476000e+09
2125.000000 6.21547000e+09
2135.000000 6.10771000e+09
2145.000000 5.97712000e+09
2155.000000 5.93532000e+09
2165.000000 5.86028000e+09
2175.000000 5.76774000e+09
2185.000000 5.69313000e+09
2195.000000 5.62863000e+09
2205.000000 5.54732000e+09
2215.000000 5.47047000e+09
2225.000000 5.38716000e+09
2235.000000 5.30482000e+09
2245.000000 5.24885000e+09
2255.000000 5.16372000e+09
2265.000000 5.10604000e+09
2275.000000 5.03686000e+09
2285.000000 4.97173000e+09
2295.000000 4.82879000e+09
2305.000000 4.83152000e+09
2315.000000 4.76154000e+09
2325.000000 4.69962000e+09
2335.000000 4.62774000e+09
2345.000000 4.57684000e+09
2355.000000 4.52033000e+09
2365.000000 4.46015000e+09
2375.000000 4.39783000e+09
2385.000000 4.33752000e+09
2395.000000 4.28259000e+09
2405.000000 4.22783000e+09
2415.000000 4.17054000e+09
2425.000000 4.12328000e+09
2435.000000 4.06400000e+09
2445.000000 4.01513000e+09
2455.000000 3.96711000e+09
2465.000000 3.91577000e+09
2475.000000 3.86531000e+09
2485.000000 3.81572000e+09
2495.000000 3.67783000e+09
2505.000000 3.71661000e+09
2513.000000 3.64132000e+09
2518.000000 3.65587000e+09
2525.000000 3.62653000e+09
2535.000000 3.58138000e+09
2545.000000 3.51927000e+09
2555.000000 3.48866000e+09
2565.000000 3.44960000e+09
2575.000000 3.40945000e+09
2585.000000 3.36812000e+09
2595.000000 3.32711000e+09
2605.000000 3.30645000e+09
2615.000000 3.26677000e+09
2625.000000 3.22810000e+09
2635.000000 3.18606000e+09
2645.000000 3.14705000e+09
2655.000000 3.10623000e+09
2665.000000 3.05978000e+09
2675.000000 3.02110000e+09
2685.000000 3.00512000e+09
2695.000000 2.94183000e+09
2705.000000 2.93109000e+09
2715.000000 2.89783000e+09
2725.000000 2.84088000e+09
2735.000000 2.82941000e+09
2745.000000 2.79389000e+09
2755.000000 2.76391000e+09
2765.000000 2.70937000e+09
2775.000000 2.70338000e+09
2785.000000 2.67142000e+09
2795.000000 2.61598000e+09
2805.000000 2.60262000e+09
2815.000000 2.58188000e+09
2825.000000 2.52417000e+09
2835.000000 2.49529000e+09
2845.000000 2.49500000e+09
2855.000000 2.46595000e+09
2865.000000 2.43922000e+09
2875.000000 2.41193000e+09
2885.000000 2.38528000e+09
2895.000000 2.35854000e+09
2910.000000 2.31872000e+09
2930.000000 2.26808000e+09
2950.000000 2.20124000e+09
2970.000000 2.17106000e+09
2990.000000 2.12352000e+09
3010.000000 2.07698000e+09
3030.000000 2.03492000e+09
3050.000000 1.99212000e+09
3070.000000 1.95042000e+09
3090.000000 1.90580000e+09
3110.000000 1.86964000e+09
3130.000000 1.83206000e+09
3150.000000 1.79478000e+09
3170.000000 1.75748000e+09
3190.000000 1.70645000e+09
3210.000000 1.68638000e+09
3230.000000 1.65209000e+09
3250.000000 1.61902000e+09
3270.000000 1.58856000e+09
3290.000000 1.55473000e+09
3310.000000 1.52674000e+09
3330.000000 1.49674000e+09
3350.000000 1.46489000e+09
3370.000000 1.43923000e+09
3390.000000 1.41161000e+09
3410.000000 1.38463000e+09
3430.000000 1.35169000e+09
3450.000000 1.32109000e+09
3470.000000 1.30006000e+09
3490.000000 1.27552000e+09
3510.000000 1.25433000e+09
3530.000000 1.23375000e+09
3550.000000 1.21118000e+09
3570.000000 1.19632000e+09
3590.000000 1.16540000e+09
3610.000000 1.14804000e+09
3630.000000 1.12382000e+09
3640.000000 1.12255000e+09
3650.000000 1.10159000e+09
3670.000000 1.08673000e+09
3690.000000 1.06627000e+09
3710.000000 1.02995000e+09
3730.000000 9.88201000e+08
3750.000000 1.00209000e+09
3770.000000 9.89555000e+08
3790.000000 1.03658000e+09
3810.000000 1.07887000e+09
3830.000000 9.42511000e+08
3850.000000 1.10712000e+09
3870.000000 1.12079000e+09
3890.000000 8.88366000e+08
3910.000000 1.10081000e+09
3930.000000 1.08907000e+09
3950.000000 1.06508000e+09
3970.000000 8.25244000e+08
3990.000000 1.01981000e+09
4010.000000 1.01819000e+09
4030.000000 9.55457000e+08
4050.000000 9.94965000e+08
4070.000000 9.70474000e+08
4090.000000 8.86011000e+08
4110.000000 7.74173000e+08
4130.000000 9.09770000e+08
4150.000000 9.03210000e+08
4170.000000 8.96625000e+08
4190.000000 8.83687000e+08
4210.000000 8.69380000e+08
4230.000000 8.54547000e+08
4250.000000 8.39494000e+08
4270.000000 8.22247000e+08
4290.000000 8.09849000e+08
4310.000000 7.90913000e+08
4330.000000 7.10302000e+08
4350.000000 6.47901000e+08
4370.000000 7.50188000e+08
4390.000000 7.23097000e+08
4410.000000 7.33600000e+08
4430.000000 7.20253000e+08
4450.000000 7.11510000e+08
4470.000000 6.66034000e+08
4490.000000 6.88070000e+08
4510.000000 6.78536000e+08
4530.000000 6.67692000e+08
4550.000000 6.56831000e+08
4570.000000 6.46333000e+08
4590.000000 6.36313000e+08
4610.000000 6.26444000e+08
4630.000000 6.16702000e+08
4650.000000 6.05206000e+08
4670.000000 5.97667000e+08
4690.000000 5.88299000e+08
4710.000000 5.71562000e+08
4730.000000 5.70662000e+08
4750.000000 5.61609000e+08
4770.000000 5.54127000e+08
4790.000000 5.45651000e+08
4810.000000 5.36042000e+08
4830.000000 5.24475000e+08
4850.000000 4.80343000e+08
4870.000000 4.29340000e+08
4890.000000 4.99363000e+08
4910.000000 4.96366000e+08
4930.000000 4.77606000e+08
4950.000000 4.84102000e+08
4970.000000 4.77346000e+08
4990.000000 4.70380000e+08
5010.000000 4.57072000e+08
5030.000000 4.56898000e+08
5050.000000 4.47422000e+08
5070.000000 4.43943000e+08
5090.000000 4.37611000e+08
5110.000000 4.31393000e+08
5130.000000 4.25159000e+08
5150.000000 4.19179000e+08
5170.000000 4.13419000e+08
5190.000000 4.07665000e+08
5210.000000 4.01932000e+08
5230.000000 3.96399000e+08
5250.000000 3.90924000e+08
5270.000000 3.85521000e+08
5290.000000 3.80228000e+08
5310.000000 3.75018000e+08
5330.000000 3.69915000e+08
5350.000000 3.64851000e+08
5370.000000 3.59956000e+08
5390.000000 3.55073000e+08
5410.000000 3.50290000e+08
5430.000000 3.45593000e+08
5450.000000 3.40969000e+08
5470.000000 3.36440000e+08
5490.000000 3.31968000e+08
5510.000000 3.27590000e+08
5530.000000 3.23266000e+08
5550.000000 3.19032000e+08
5570.000000 3.14839000e+08
5590.000000 3.10733000e+08
5610.000000 3.06678000e+08
5630.000000 3.02720000e+08
5650.000000 2.98764000e+08
5670.000000 2.94832000e+08
5690.000000 2.90947000e+08
5710.000000 2.87411000e+08
5730.000000 2.83744000e+08
5750.000000 2.80076000e+08
5770.000000 2.76610000e+08
5790.000000 2.73118000e+08
5810.000000 2.69678000e+08
5830.000000 2.66268000e+08
5850.000000 2.62954000e+08
5870.000000 2.51259000e+08
5890.000000 2.55854000e+08
5910.000000 2.53252000e+08
5930.000000 2.50089000e+08
5950.000000 2.47006000e+08
5970.000000 2.44022000e+08
5990.000000 2.41010000e+08
6010.000000 2.38084000e+08
6030.000000 2.35181000e+08
6050.000000 2.32352000e+08
6070.000000 2.29545000e+08
6090.000000 2.26781000e+08
6110.000000 2.24057000e+08
6130.000000 2.21374000e+08
6150.000000 2.18692000e+08
6170.000000 2.16109000e+08
6190.000000 2.13564000e+08
6210.000000 2.11038000e+08
6230.000000 2.08549000e+08
6250.000000 2.06088000e+08
6270.000000 2.03674000e+08
6290.000000 2.01295000e+08
6310.000000 1.98942000e+08
6330.000000 1.96634000e+08
6350.000000 1.94323000e+08
6370.000000 1.92093000e+08
6390.000000 1.89887000e+08
6410.000000 1.87704000e+08
6430.000000 1.85563000e+08
6450.000000 1.83436000e+08
6470.000000 1.81314000e+08
6490.000000 1.79259000e+08
6510.000000 1.77013000e+08
6530.000000 1.74207000e+08
6550.000000 1.65725000e+08
6570.000000 1.47053000e+08
6590.000000 1.67076000e+08
6610.000000 1.67007000e+08
6630.000000 1.65658000e+08
6650.000000 1.63913000e+08
6670.000000 1.60273000e+08
6690.000000 1.58558000e+08
6710.000000 1.58552000e+08
6730.000000 1.56796000e+08
6750.000000 1.55099000e+08
6770.000000 1.53403000e+08
6790.000000 1.51675000e+08
6810.000000 1.50079000e+08
6830.000000 1.48458000e+08
6850.000000 1.46854000e+08
6870.000000 1.45274000e+08
6890.000000 1.43710000e+08
6910.000000 1.42169000e+08
6930.000000 1.40651000e+08
6950.000000 1.39156000e+08
6970.000000 1.37677000e+08
6990.000000 1.36219000e+08
7010.000000 1.34784000e+08
7030.000000 1.33362000e+08
7050.000000 1.31955000e+08
7070.000000 1.28383000e+08
7090.000000 1.29211000e+08
7110.000000 1.27859000e+08
7130.000000 1.26535000e+08
7150.000000 1.25217000e+08
7170.000000 1.23903000e+08
7190.000000 1.22647000e+08
7210.000000 1.21380000e+08
7230.000000 1.19852000e+08
7250.000000 1.18898000e+08
7270.000000 1.17696000e+08
7290.000000 1.15491000e+08
7310.000000 1.15290000e+08
7330.000000 1.14143000e+08
7350.000000 1.12986000e+08
7370.000000 1.11846000e+08
7390.000000 1.10724000e+08
7410.000000 1.09613000e+08
7430.000000 1.08512000e+08
7450.000000 1.07448000e+08
7470.000000 1.06367000e+08
7490.000000 1.05316000e+08
7510.000000 1.04235000e+08
7530.000000 1.03243000e+08
7550.000000 1.02228000e+08
7570.000000 1.01222000e+08
7590.000000 1.00231000e+08
7610.000000 9.92432000e+07
7630.000000 9.82771000e+07
7650.000000 9.73198000e+07
7670.000000 9.63774000e+07
7690.000000 9.54436000e+07
7710.000000 9.45181000e+07
7730.000000 9.36072000e+07
7750.000000 9.27044000e+07
7770.000000 9.17973000e+07
7790.000000 9.09416000e+07
7810.000000 9.00194000e+07
7830.000000 8.92098000e+07
7850.000000 8.84502000e+07
7870.000000 8.76058000e+07
7890.000000 8.67205000e+07
7910.000000 8.59694000e+07
7930.000000 8.51589000e+07
7950.000000 8.43435000e+07
7970.000000 8.33929000e+07
7990.000000 8.25983000e+07
8010.000000 8.18105000e+07
8030.000000 8.10354000e+07
8050.000000 8.02903000e+07
8070.000000 7.95920000e+07
8090.000000 7.87327000e+07
8110.000000 7.81100000e+07
8130.000000 7.74469000e+07
8150.000000 7.66702000e+07
8170.000000 7.60696000e+07
8190.000000 7.52716000e+07
8210.000000 7.43856000e+07
8230.000000 7.39077000e+07
8250.000000 7.32619000e+07
8270.000000 7.22470000e+07
8290.000000 7.18988000e+07
8310.000000 7.12859000e+07
8330.000000 7.06073000e+07
8350.000000 6.96265000e+07
8370.000000 6.92458000e+07
8390.000000 6.87287000e+07
8410.000000 6.81146000e+07
8430.000000 6.74578000e+07
8450.000000 6.63896000e+07
8470.000000 6.62445000e+07
8490.000000 6.55042000e+07
8510.000000 6.49626000e+07
8530.000000 6.43425000e+07
8550.000000 6.33822000e+07
8570.000000 6.37432000e+07
8590.000000 6.15373000e+07
8610.000000 6.15160000e+07
8630.000000 6.25008000e+07
8650.000000 6.07520000e+07
8670.000000 5.80113000e+07
8690.000000 6.08725000e+07
8710.000000 6.10998000e+07
8730.000000 5.91494000e+07
8750.000000 5.44409000e+07
8770.000000 5.73718000e+07
8790.000000 5.93003000e+07
8810.000000 5.90896000e+07
8830.000000 5.82086000e+07
8850.000000 5.44105000e+07
8870.000000 5.08806000e+07
8890.000000 5.59764000e+07
8910.000000 5.66792000e+07
8930.000000 5.63831000e+07
8950.000000 5.60750000e+07
8970.000000 5.54038000e+07
8990.000000 5.35261000e+07
9010.000000 4.77803000e+07
9030.000000 4.99020000e+07
9050.000000 5.29981000e+07
9070.000000 5.26639000e+07
9090.000000 5.27652000e+07
9110.000000 5.25701000e+07
9130.000000 5.21728000e+07
9150.000000 5.17065000e+07
9170.000000 5.10422000e+07
9190.000000 5.03875000e+07
9210.000000 4.78062000e+07
9230.000000 4.23785000e+07
9250.000000 4.70370000e+07
9270.000000 4.86536000e+07
9290.000000 4.86844000e+07
9310.000000 4.81756000e+07
9330.000000 4.81207000e+07
9350.000000 4.76953000e+07
9370.000000 4.73589000e+07
9390.000000 4.69736000e+07
9410.000000 4.65912000e+07
9430.000000 4.62201000e+07
9450.000000 4.58306000e+07
9470.000000 4.50449000e+07
9490.000000 4.48804000e+07
9510.000000 4.37629000e+07
9530.000000 4.15095000e+07
9550.000000 3.70920000e+07
9570.000000 4.18049000e+07
9590.000000 4.28392000e+07
9610.000000 4.26855000e+07
9630.000000 4.23297000e+07
9650.000000 4.23243000e+07
9670.000000 4.19923000e+07
9690.000000 4.16185000e+07
9710.000000 4.11995000e+07
9730.000000 4.10104000e+07
9750.000000 4.06917000e+07
9770.000000 4.03753000e+07
9790.000000 4.00572000e+07
9810.000000 3.97453000e+07
9830.000000 3.94395000e+07
9850.000000 3.91358000e+07
9870.000000 3.88304000e+07
9890.000000 3.85310000e+07
9910.000000 3.82023000e+07
9930.000000 3.79427000e+07
9950.000000 3.76514000e+07
9970.000000 3.72826000e+07
9990.000000 3.69074000e+07
10025.000000 3.47207000e+07
10075.000000 3.35605000e+07
10125.000000 3.50132000e+07
10175.000000 3.45652000e+07
10225.000000 3.39062000e+07
10275.000000 3.32958000e+07
10325.000000 3.25380000e+07
10375.000000 3.20841000e+07
10425.000000 3.14987000e+07
10475.000000 3.09265000e+07
10525.000000 3.03674000e+07
10575.000000 2.98208000e+07
10625.000000 2.92866000e+07
10675.000000 2.86998000e+07
10725.000000 2.82533000e+07
10775.000000 2.77535000e+07
10825.000000 2.69486000e+07
10875.000000 2.66374000e+07
10925.000000 2.39704000e+07
10975.000000 2.51061000e+07
11025.000000 2.51845000e+07
11075.000000 2.49453000e+07
11125.000000 2.45493000e+07
11175.000000 2.41301000e+07
11225.000000 2.37054000e+07
11275.000000 2.33175000e+07
11325.000000 2.29247000e+07
11375.000000 2.25402000e+07
11425.000000 2.21629000e+07
11475.000000 2.17946000e+07
11525.000000 2.14331000e+07
11575.000000 2.10788000e+07
11625.000000 2.07326000e+07
11675.000000 2.03929000e+07
11725.000000 2.00606000e+07
11775.000000 1.97347000e+07
11825.000000 1.94156000e+07
11875.000000 1.91029000e+07
11925.000000 1.87963000e+07
11975.000000 1.82721000e+07
12025.000000 1.82015000e+07
12075.000000 1.79131000e+07
12125.000000 1.76301000e+07
12175.000000 1.73529000e+07
12225.000000 1.70809000e+07
12275.000000 1.68146000e+07
12325.000000 1.65532000e+07
12375.000000 1.62967000e+07
12425.000000 1.60452000e+07
12475.000000 1.57985000e+07
12525.000000 1.55196000e+07
12575.000000 1.53195000e+07
12625.000000 1.50868000e+07
12675.000000 1.48585000e+07
12725.000000 1.46103000e+07
12775.000000 1.40950000e+07
12825.000000 1.29319000e+07
12875.000000 1.38460000e+07
12925.000000 1.37632000e+07
12975.000000 1.34573000e+07
13025.000000 1.33755000e+07
13075.000000 1.31793000e+07
