# Kurucz ODFNEW /NOVER, alpha: 0.0 (2003)
# teff = 27000 K (value for the effective temperature for the model. Temperatures are given in K)
# logg = 5 log(cm/s2) (value for Log(G) for the model.)
# lh = 1.25  (l/Hp where l is the  mixing length of the convective element and Hp is the pressure scale height)
# meta = 0.2  (value for the Metallicity for the model.)
# vtur = 2 km/s (Microturbulence velocity)
# alpha = 0  (Alpha)
#
# column 1: WAVELENGTH (ANGSTROM), Wavelength in Angstrom
# column 2: FLUX (ERG/CM2/S/A), Flux in erg/cm2/s/A
147.200000 1.74439000e-11
151.000000 6.15777000e-11
155.200000 2.31790000e-10
158.800000 6.84949000e-10
162.000000 1.72890000e-09
166.000000 5.25160000e-09
170.300000 1.63788000e-08
173.400000 3.61436000e-08
176.800000 8.33889000e-08
180.200000 1.86856000e-07
181.700000 2.64299000e-07
186.100000 7.11727000e-07
191.000000 2.04273000e-06
193.900000 3.72208000e-06
198.400000 9.14782000e-06
201.800000 1.76101000e-05
205.000000 3.20263000e-05
210.500000 8.61856000e-05
216.200000 2.28782000e-04
219.800000 4.13691000e-04
223.000000 6.90073000e-04
226.800000 1.24741000e-03
230.000000 8.89551000e-02
234.000000 1.95382000e-01
240.000000 4.12519000e-01
246.500000 8.96652000e-01
252.400000 1.77177000e+00
256.800000 2.74271000e+00
260.000000 4.25426000e+00
264.000000 6.33288000e+00
268.500000 9.98675000e+00
273.500000 1.61117000e+01
278.500000 2.55208000e+01
284.000000 4.46371000e+01
290.000000 7.36526000e+01
296.000000 1.19899000e+02
301.000000 1.75518000e+02
308.000000 3.05640000e+02
318.000000 6.57984000e+02
328.000000 1.24087000e+03
338.000000 2.40232000e+03
348.000000 4.32307000e+03
357.000000 1.30800000e+04
366.000000 2.33337000e+04
375.000000 3.37898000e+04
385.000000 5.34271000e+04
395.000000 8.94251000e+04
405.000000 1.29470000e+05
414.000000 1.84665000e+05
422.000000 2.43891000e+05
430.000000 3.32720000e+05
441.000000 4.76101000e+05
451.000000 6.34084000e+05
460.000000 8.09612000e+05
470.000000 1.09509000e+06
480.000000 1.43489000e+06
490.000000 1.87957000e+06
500.000000 2.39283000e+06
506.000000 9.25638000e+06
512.000000 6.68816000e+07
520.000000 7.33968000e+07
530.000000 8.30159000e+07
540.000000 8.56814000e+07
550.000000 1.17155000e+08
560.000000 1.34150000e+08
570.000000 1.54112000e+08
580.000000 1.48463000e+08
590.000000 1.83570000e+08
600.000000 1.95146000e+08
610.000000 2.20803000e+08
620.000000 2.36720000e+08
630.000000 2.43455000e+08
640.000000 2.23821000e+08
650.000000 2.08392000e+08
658.000000 2.56258000e+08
665.000000 2.98061000e+08
675.000000 3.18268000e+08
685.000000 3.20380000e+08
695.000000 4.13570000e+08
705.000000 4.16883000e+08
716.000000 4.66752000e+08
726.000000 4.79893000e+08
735.000000 4.92138000e+08
745.000000 5.49131000e+08
755.000000 5.76840000e+08
765.000000 6.11876000e+08
775.000000 6.44980000e+08
785.000000 6.83490000e+08
795.000000 6.99068000e+08
805.000000 7.18607000e+08
815.000000 7.33693000e+08
825.000000 7.88689000e+08
835.000000 7.11935000e+08
845.000000 8.02342000e+08
855.000000 8.13625000e+08
865.000000 8.59823000e+08
875.000000 9.04101000e+08
885.000000 9.63294000e+08
895.000000 9.97103000e+08
905.000000 9.83100000e+08
915.000000 1.12448000e+09
925.000000 4.37942000e+09
935.000000 1.01949000e+10
945.000000 2.42159000e+10
955.000000 3.47205000e+10
965.000000 4.54636000e+10
975.000000 7.92633000e+09
985.000000 4.30187000e+10
995.000000 3.99780000e+10
1005.000000 4.65007000e+10
1015.000000 4.48430000e+10
1025.000000 1.66028000e+10
1035.000000 3.53123000e+10
1045.000000 5.57043000e+10
1055.000000 5.15529000e+10
1065.000000 3.99805000e+10
1075.000000 4.64447000e+10
1085.000000 4.13203000e+10
1095.000000 4.64320000e+10
1105.000000 4.19485000e+10
1115.000000 4.04631000e+10
1125.000000 3.15671000e+10
1135.000000 4.10821000e+10
1145.000000 3.61406000e+10
1155.000000 3.73701000e+10
1165.000000 3.65453000e+10
1175.000000 2.13061000e+10
1185.000000 3.41497000e+10
1195.000000 3.12722000e+10
1205.000000 2.21893000e+10
1215.000000 1.25190000e+10
1225.000000 2.60161000e+10
1235.000000 3.21371000e+10
1245.000000 3.13094000e+10
1255.000000 3.07478000e+10
1265.000000 3.14478000e+10
1275.000000 3.22797000e+10
1285.000000 3.20530000e+10
1295.000000 2.32863000e+10
1305.000000 2.46165000e+10
1315.000000 3.07684000e+10
1325.000000 2.83101000e+10
1335.000000 2.73464000e+10
1345.000000 2.73724000e+10
1355.000000 2.71607000e+10
1365.000000 2.45401000e+10
1375.000000 2.37201000e+10
1385.000000 2.31000000e+10
1395.000000 1.67793000e+10
1405.000000 1.81248000e+10
1415.000000 2.02568000e+10
1425.000000 1.96247000e+10
1435.000000 2.03346000e+10
1442.000000 2.08859000e+10
1447.000000 2.05061000e+10
1455.000000 1.97794000e+10
1465.000000 1.81113000e+10
1475.000000 1.84293000e+10
1485.000000 1.80760000e+10
1495.000000 1.77221000e+10
1505.000000 1.57579000e+10
1512.000000 1.41682000e+10
1517.000000 1.45745000e+10
1525.000000 1.50711000e+10
1535.000000 1.26100000e+10
1545.000000 1.20981000e+10
1555.000000 1.17879000e+10
1565.000000 1.28195000e+10
1575.000000 1.36044000e+10
1585.000000 1.36132000e+10
1595.000000 1.34753000e+10
1605.000000 1.36607000e+10
1615.000000 1.32017000e+10
1625.000000 1.30477000e+10
1635.000000 1.37486000e+10
1645.000000 1.36714000e+10
1655.000000 1.35312000e+10
1665.000000 1.37267000e+10
1672.000000 1.30155000e+10
1677.000000 1.42677000e+10
1685.000000 1.37438000e+10
1695.000000 1.29754000e+10
1705.000000 1.25218000e+10
1715.000000 1.18834000e+10
1725.000000 1.15237000e+10
1735.000000 1.20244000e+10
1745.000000 1.17615000e+10
1755.000000 1.17876000e+10
1765.000000 1.15225000e+10
1775.000000 1.08241000e+10
1785.000000 1.10060000e+10
1795.000000 1.13101000e+10
1805.000000 1.13526000e+10
1815.000000 1.01652000e+10
1825.000000 1.05205000e+10
1835.000000 1.01405000e+10
1845.000000 9.18686000e+09
1855.000000 9.31175000e+09
1865.000000 9.42889000e+09
1875.000000 9.79580000e+09
1885.000000 8.69561000e+09
1895.000000 8.08237000e+09
1905.000000 8.73967000e+09
1915.000000 8.19847000e+09
1925.000000 7.73583000e+09
1935.000000 8.24016000e+09
1945.000000 8.45151000e+09
1955.000000 7.55800000e+09
1967.000000 8.19730000e+09
1976.000000 8.58467000e+09
1984.000000 7.86687000e+09
1995.000000 7.75111000e+09
2005.000000 8.01060000e+09
2015.000000 7.89576000e+09
2025.000000 8.11710000e+09
2035.000000 7.37862000e+09
2045.000000 7.49644000e+09
2055.000000 7.15050000e+09
2065.000000 7.16199000e+09
2074.000000 7.44214000e+09
2078.000000 6.76861000e+09
2085.000000 7.08270000e+09
2095.000000 6.69723000e+09
2105.000000 7.01413000e+09
2115.000000 7.01946000e+09
2125.000000 7.07744000e+09
2135.000000 6.91634000e+09
2145.000000 6.56534000e+09
2155.000000 6.81873000e+09
2165.000000 6.75766000e+09
2175.000000 6.66070000e+09
2185.000000 6.44916000e+09
2195.000000 6.51798000e+09
2205.000000 6.46922000e+09
2215.000000 6.35535000e+09
2225.000000 6.18078000e+09
2235.000000 6.08147000e+09
2245.000000 6.11390000e+09
2255.000000 5.90777000e+09
2265.000000 5.96895000e+09
2275.000000 5.86775000e+09
2285.000000 5.84342000e+09
2295.000000 5.35523000e+09
2305.000000 5.62603000e+09
2315.000000 5.46526000e+09
2325.000000 5.40553000e+09
2335.000000 5.24988000e+09
2345.000000 5.26734000e+09
2355.000000 5.23601000e+09
2365.000000 5.16913000e+09
2375.000000 5.04935000e+09
2385.000000 5.01120000e+09
2395.000000 4.95506000e+09
2405.000000 4.85428000e+09
2415.000000 4.81138000e+09
2425.000000 4.79856000e+09
2435.000000 4.64823000e+09
2445.000000 4.64822000e+09
2455.000000 4.63850000e+09
2465.000000 4.55903000e+09
2475.000000 4.48794000e+09
2485.000000 4.40962000e+09
2495.000000 3.91398000e+09
2505.000000 4.27279000e+09
2513.000000 4.06404000e+09
2518.000000 4.21672000e+09
2525.000000 4.17470000e+09
2535.000000 4.12395000e+09
2545.000000 3.98481000e+09
2555.000000 4.02028000e+09
2565.000000 3.96282000e+09
2575.000000 3.95750000e+09
2585.000000 3.91279000e+09
2595.000000 3.87061000e+09
2605.000000 3.82851000e+09
2615.000000 3.77753000e+09
2625.000000 3.74678000e+09
2635.000000 3.71031000e+09
2645.000000 3.65964000e+09
2655.000000 3.63982000e+09
2665.000000 3.49548000e+09
2675.000000 3.50362000e+09
2685.000000 3.49273000e+09
2695.000000 3.35974000e+09
2705.000000 3.30076000e+09
2715.000000 3.29928000e+09
2725.000000 3.28288000e+09
2735.000000 3.26445000e+09
2745.000000 3.17437000e+09
2755.000000 3.16606000e+09
2765.000000 3.12122000e+09
2775.000000 3.14984000e+09
2785.000000 3.09578000e+09
2795.000000 2.97472000e+09
2805.000000 2.99908000e+09
2815.000000 3.00938000e+09
2825.000000 2.94893000e+09
2835.000000 2.83798000e+09
2845.000000 2.88946000e+09
2855.000000 2.83995000e+09
2865.000000 2.83228000e+09
2875.000000 2.79916000e+09
2885.000000 2.76314000e+09
2895.000000 2.72520000e+09
2910.000000 2.66693000e+09
2930.000000 2.62832000e+09
2950.000000 2.54159000e+09
2970.000000 2.51093000e+09
2990.000000 2.44614000e+09
3010.000000 2.36559000e+09
3030.000000 2.35022000e+09
3050.000000 2.30675000e+09
3070.000000 2.26800000e+09
3090.000000 2.17840000e+09
3110.000000 2.16570000e+09
3130.000000 2.11104000e+09
3150.000000 2.07510000e+09
3170.000000 2.01900000e+09
3190.000000 1.97115000e+09
3210.000000 1.95065000e+09
3230.000000 1.90302000e+09
3250.000000 1.87218000e+09
3270.000000 1.83008000e+09
3290.000000 1.79220000e+09
3310.000000 1.75967000e+09
3330.000000 1.72056000e+09
3350.000000 1.68829000e+09
3370.000000 1.65382000e+09
3390.000000 1.62715000e+09
3410.000000 1.59545000e+09
3430.000000 1.55874000e+09
3450.000000 1.52300000e+09
3470.000000 1.49585000e+09
3490.000000 1.46583000e+09
3510.000000 1.43997000e+09
3530.000000 1.41768000e+09
3550.000000 1.39108000e+09
3570.000000 1.37412000e+09
3590.000000 1.32848000e+09
3610.000000 1.31013000e+09
3630.000000 1.28673000e+09
3640.000000 1.28823000e+09
3650.000000 1.26017000e+09
3670.000000 1.24560000e+09
3690.000000 1.22458000e+09
3710.000000 1.17947000e+09
3730.000000 1.14216000e+09
3750.000000 1.12787000e+09
3770.000000 1.09250000e+09
3790.000000 1.13123000e+09
3810.000000 1.17394000e+09
3830.000000 1.02531000e+09
3850.000000 1.20116000e+09
3870.000000 1.21341000e+09
3890.000000 9.58921000e+08
3910.000000 1.21128000e+09
3930.000000 1.18986000e+09
3950.000000 1.16376000e+09
3970.000000 8.90522000e+08
3990.000000 1.11579000e+09
4010.000000 1.12927000e+09
4030.000000 1.04901000e+09
4050.000000 1.09731000e+09
4070.000000 1.04088000e+09
4090.000000 9.44498000e+08
4110.000000 8.33140000e+08
4130.000000 9.90387000e+08
4150.000000 9.90707000e+08
4170.000000 9.89329000e+08
4190.000000 9.78062000e+08
4210.000000 9.69790000e+08
4230.000000 9.47566000e+08
4250.000000 9.19376000e+08
4270.000000 8.91548000e+08
4290.000000 8.83049000e+08
4310.000000 8.50841000e+08
4330.000000 7.57964000e+08
4350.000000 6.93393000e+08
4370.000000 8.05385000e+08
4390.000000 7.95053000e+08
4410.000000 8.01631000e+08
4430.000000 7.95426000e+08
4450.000000 7.82414000e+08
4470.000000 7.30649000e+08
4490.000000 7.55772000e+08
4510.000000 7.52881000e+08
4530.000000 7.39804000e+08
4550.000000 7.29311000e+08
4570.000000 7.16664000e+08
4590.000000 7.04514000e+08
4610.000000 6.87087000e+08
4630.000000 6.75839000e+08
4650.000000 6.56465000e+08
4670.000000 6.57885000e+08
4690.000000 6.52114000e+08
4710.000000 6.23866000e+08
4730.000000 6.27694000e+08
4750.000000 6.17911000e+08
4770.000000 6.17327000e+08
4790.000000 6.05204000e+08
4810.000000 5.90559000e+08
4830.000000 5.75650000e+08
4850.000000 5.21664000e+08
4870.000000 4.64175000e+08
4890.000000 5.49699000e+08
4910.000000 5.48590000e+08
4930.000000 5.25718000e+08
4950.000000 5.33748000e+08
4970.000000 5.30452000e+08
4990.000000 5.21473000e+08
5010.000000 4.97476000e+08
5030.000000 5.05157000e+08
5050.000000 4.92256000e+08
5070.000000 4.92366000e+08
5090.000000 4.84084000e+08
5110.000000 4.76003000e+08
5130.000000 4.64826000e+08
5150.000000 4.59390000e+08
5170.000000 4.56816000e+08
5190.000000 4.51036000e+08
5210.000000 4.43111000e+08
5230.000000 4.38172000e+08
5250.000000 4.32284000e+08
5270.000000 4.25292000e+08
5290.000000 4.20480000e+08
5310.000000 4.14273000e+08
5330.000000 4.08544000e+08
5350.000000 4.01981000e+08
5370.000000 3.97921000e+08
5390.000000 3.92211000e+08
5410.000000 3.87219000e+08
5430.000000 3.81394000e+08
5450.000000 3.76089000e+08
5470.000000 3.70977000e+08
5490.000000 3.66229000e+08
5510.000000 3.62011000e+08
5530.000000 3.56429000e+08
5550.000000 3.52556000e+08
5570.000000 3.47624000e+08
5590.000000 3.43429000e+08
5610.000000 3.38543000e+08
5630.000000 3.34514000e+08
5650.000000 3.28291000e+08
5670.000000 3.22651000e+08
5690.000000 3.17908000e+08
5710.000000 3.16032000e+08
5730.000000 3.12521000e+08
5750.000000 3.07605000e+08
5770.000000 3.05216000e+08
5790.000000 3.01054000e+08
5810.000000 2.97267000e+08
5830.000000 2.92859000e+08
5850.000000 2.89539000e+08
5870.000000 2.75389000e+08
5890.000000 2.78887000e+08
5910.000000 2.77887000e+08
5930.000000 2.74098000e+08
5950.000000 2.70407000e+08
5970.000000 2.68883000e+08
5990.000000 2.64287000e+08
6010.000000 2.61978000e+08
6030.000000 2.58254000e+08
6050.000000 2.55356000e+08
6070.000000 2.52633000e+08
6090.000000 2.49534000e+08
6110.000000 2.46530000e+08
6130.000000 2.43751000e+08
6150.000000 2.39300000e+08
6170.000000 2.37147000e+08
6190.000000 2.34841000e+08
6210.000000 2.32236000e+08
6230.000000 2.29544000e+08
6250.000000 2.26168000e+08
6270.000000 2.23807000e+08
6290.000000 2.21358000e+08
6310.000000 2.18566000e+08
6330.000000 2.16275000e+08
6350.000000 2.12916000e+08
6370.000000 2.11033000e+08
6390.000000 2.08625000e+08
6410.000000 2.06225000e+08
6430.000000 2.04060000e+08
6450.000000 2.01583000e+08
6470.000000 1.98350000e+08
6490.000000 1.96360000e+08
6510.000000 1.94027000e+08
6530.000000 1.90437000e+08
6550.000000 1.79344000e+08
6570.000000 1.57116000e+08
6590.000000 1.81156000e+08
6610.000000 1.82760000e+08
6630.000000 1.81556000e+08
6650.000000 1.79699000e+08
6670.000000 1.75464000e+08
6690.000000 1.73634000e+08
6710.000000 1.73989000e+08
6730.000000 1.71676000e+08
6750.000000 1.70247000e+08
6770.000000 1.68387000e+08
6790.000000 1.64986000e+08
6810.000000 1.64392000e+08
6830.000000 1.62631000e+08
6850.000000 1.61073000e+08
6870.000000 1.59322000e+08
6890.000000 1.57423000e+08
6910.000000 1.55590000e+08
6930.000000 1.54175000e+08
6950.000000 1.52579000e+08
6970.000000 1.50960000e+08
6990.000000 1.49319000e+08
7010.000000 1.47702000e+08
7030.000000 1.46123000e+08
7050.000000 1.44545000e+08
7070.000000 1.40351000e+08
7090.000000 1.41427000e+08
7110.000000 1.39410000e+08
7130.000000 1.37999000e+08
7150.000000 1.36978000e+08
7170.000000 1.35694000e+08
7190.000000 1.34343000e+08
7210.000000 1.32939000e+08
7230.000000 1.29452000e+08
7250.000000 1.30000000e+08
7270.000000 1.28844000e+08
7290.000000 1.26351000e+08
7310.000000 1.26190000e+08
7330.000000 1.24871000e+08
7350.000000 1.23648000e+08
7370.000000 1.22402000e+08
7390.000000 1.21161000e+08
7410.000000 1.19932000e+08
7430.000000 1.18652000e+08
7450.000000 1.17507000e+08
7470.000000 1.15846000e+08
7490.000000 1.15107000e+08
7510.000000 1.13954000e+08
7530.000000 1.12771000e+08
7550.000000 1.11771000e+08
7570.000000 1.10669000e+08
7590.000000 1.09563000e+08
7610.000000 1.08351000e+08
7630.000000 1.07388000e+08
7650.000000 1.06351000e+08
7670.000000 1.05317000e+08
7690.000000 1.04280000e+08
7710.000000 1.03251000e+08
7730.000000 1.02220000e+08
7750.000000 1.01285000e+08
7770.000000 9.97845000e+07
7790.000000 9.93349000e+07
7810.000000 9.83265000e+07
7830.000000 9.74316000e+07
7850.000000 9.64650000e+07
7870.000000 9.54401000e+07
7890.000000 9.43093000e+07
7910.000000 9.37186000e+07
7930.000000 9.28211000e+07
7950.000000 9.18718000e+07
7970.000000 9.10199000e+07
7990.000000 9.00573000e+07
8010.000000 8.92676000e+07
8030.000000 8.84145000e+07
8050.000000 8.75978000e+07
8070.000000 8.67766000e+07
8090.000000 8.59164000e+07
8110.000000 8.47657000e+07
8130.000000 8.44347000e+07
8150.000000 8.36181000e+07
8170.000000 8.29270000e+07
8190.000000 8.18373000e+07
8210.000000 8.09975000e+07
8230.000000 8.01371000e+07
8250.000000 7.97822000e+07
8270.000000 7.83888000e+07
8290.000000 7.82961000e+07
8310.000000 7.76632000e+07
8330.000000 7.69487000e+07
8350.000000 7.59105000e+07
8370.000000 7.54084000e+07
8390.000000 7.49101000e+07
8410.000000 7.42027000e+07
8430.000000 7.35330000e+07
8450.000000 7.21987000e+07
8470.000000 7.22467000e+07
8490.000000 7.13997000e+07
8510.000000 7.08721000e+07
8530.000000 7.01414000e+07
8550.000000 6.94169000e+07
8570.000000 6.91907000e+07
8590.000000 6.72861000e+07
8610.000000 6.73805000e+07
8630.000000 6.76705000e+07
8650.000000 6.60136000e+07
8670.000000 6.41858000e+07
8690.000000 6.58113000e+07
8710.000000 6.58868000e+07
8730.000000 6.39392000e+07
8750.000000 6.02226000e+07
8770.000000 6.21230000e+07
8790.000000 6.38446000e+07
8810.000000 6.37541000e+07
8830.000000 6.26007000e+07
8850.000000 5.87202000e+07
8870.000000 5.56497000e+07
8890.000000 6.02046000e+07
8910.000000 6.11542000e+07
8930.000000 6.09325000e+07
8950.000000 6.06229000e+07
8970.000000 5.97676000e+07
8990.000000 5.74789000e+07
9010.000000 5.16831000e+07
9030.000000 5.35704000e+07
9050.000000 5.69723000e+07
9070.000000 5.68037000e+07
9090.000000 5.70738000e+07
9110.000000 5.69143000e+07
9130.000000 5.64889000e+07
9150.000000 5.59588000e+07
9170.000000 5.51684000e+07
9190.000000 5.42505000e+07
9210.000000 5.11594000e+07
9230.000000 4.54280000e+07
9250.000000 5.01411000e+07
9270.000000 5.20512000e+07
9290.000000 5.25737000e+07
9310.000000 5.21004000e+07
9330.000000 5.18729000e+07
9350.000000 5.16426000e+07
9370.000000 5.12979000e+07
9390.000000 5.08831000e+07
9410.000000 5.03437000e+07
9430.000000 5.00075000e+07
9450.000000 4.95134000e+07
9470.000000 4.86996000e+07
9490.000000 4.84193000e+07
9510.000000 4.70370000e+07
9530.000000 4.42721000e+07
9550.000000 3.95613000e+07
9570.000000 4.45897000e+07
9590.000000 4.60957000e+07
9610.000000 4.60509000e+07
9630.000000 4.56161000e+07
9650.000000 4.57630000e+07
9670.000000 4.54530000e+07
9690.000000 4.50610000e+07
9710.000000 4.45559000e+07
9730.000000 4.44047000e+07
9750.000000 4.40404000e+07
9770.000000 4.37182000e+07
9790.000000 4.33668000e+07
9810.000000 4.29905000e+07
9830.000000 4.26910000e+07
9850.000000 4.23470000e+07
9870.000000 4.19861000e+07
9890.000000 4.16046000e+07
9910.000000 4.09995000e+07
9930.000000 4.10485000e+07
9950.000000 4.06515000e+07
9970.000000 4.02309000e+07
9990.000000 3.98095000e+07
10025.000000 3.70913000e+07
10075.000000 3.57684000e+07
10125.000000 3.77370000e+07
10175.000000 3.73598000e+07
10225.000000 3.66746000e+07
10275.000000 3.60081000e+07
10325.000000 3.51577000e+07
10375.000000 3.46905000e+07
10425.000000 3.40552000e+07
10475.000000 3.34322000e+07
10525.000000 3.28102000e+07
10575.000000 3.22268000e+07
10625.000000 3.16482000e+07
10675.000000 3.09957000e+07
10725.000000 3.05230000e+07
10775.000000 2.99750000e+07
10825.000000 2.90580000e+07
10875.000000 2.86675000e+07
10925.000000 2.54586000e+07
10975.000000 2.68069000e+07
11025.000000 2.71365000e+07
11075.000000 2.69000000e+07
11125.000000 2.64962000e+07
11175.000000 2.60433000e+07
11225.000000 2.55840000e+07
11275.000000 2.51273000e+07
11325.000000 2.46942000e+07
11375.000000 2.43142000e+07
11425.000000 2.38834000e+07
11475.000000 2.35083000e+07
11525.000000 2.31173000e+07
11575.000000 2.27099000e+07
11625.000000 2.23486000e+07
11675.000000 2.19741000e+07
11725.000000 2.16278000e+07
11775.000000 2.12655000e+07
11825.000000 2.09273000e+07
11875.000000 2.05907000e+07
11925.000000 2.02583000e+07
11975.000000 1.96266000e+07
12025.000000 1.96120000e+07
12075.000000 1.93008000e+07
12125.000000 1.89928000e+07
12175.000000 1.86925000e+07
12225.000000 1.83980000e+07
12275.000000 1.81102000e+07
12325.000000 1.78259000e+07
12375.000000 1.75478000e+07
12425.000000 1.72771000e+07
12475.000000 1.69941000e+07
12525.000000 1.66954000e+07
12575.000000 1.64785000e+07
12625.000000 1.62310000e+07
12675.000000 1.59855000e+07
12725.000000 1.56896000e+07
12775.000000 1.50601000e+07
12825.000000 1.36621000e+07
12875.000000 1.48169000e+07
12925.000000 1.47748000e+07
12975.000000 1.44450000e+07
13025.000000 1.43810000e+07
13075.000000 1.41749000e+07
