# Kurucz ODFNEW /NOVER, alpha: 0.0 (2003)
# teff = 27000 K (value for the effective temperature for the model. Temperatures are given in K)
# logg = 3.5 log(cm/s2) (value for Log(G) for the model.)
# lh = 1.25  (l/Hp where l is the  mixing length of the convective element and Hp is the pressure scale height)
# meta = 0.2  (value for the Metallicity for the model.)
# vtur = 2 km/s (Microturbulence velocity)
# alpha = 0  (Alpha)
#
# column 1: WAVELENGTH (ANGSTROM), Wavelength in Angstrom
# column 2: FLUX (ERG/CM2/S/A), Flux in erg/cm2/s/A
147.200000 4.91605000e-12
151.000000 1.84441000e-11
155.200000 7.41508000e-11
158.800000 2.31528000e-10
162.000000 6.13327000e-10
166.000000 1.97347000e-09
170.300000 6.52396000e-09
173.400000 1.49764000e-08
176.800000 3.60239000e-08
180.200000 8.39821000e-08
181.700000 1.20796000e-07
186.100000 3.40461000e-07
191.000000 1.02393000e-06
193.900000 1.91545000e-06
198.400000 4.88903000e-06
201.800000 9.66264000e-06
205.000000 1.79808000e-05
210.500000 5.01589000e-05
216.200000 1.37555000e-04
219.800000 2.53445000e-04
223.000000 4.29191000e-04
226.800000 8.00577000e-04
230.000000 9.03723000e-02
234.000000 2.00377000e-01
240.000000 4.15056000e-01
246.500000 9.09362000e-01
252.400000 1.79868000e+00
256.800000 2.78282000e+00
260.000000 4.65701000e+00
264.000000 7.23178000e+00
268.500000 1.16757000e+01
273.500000 1.88686000e+01
278.500000 2.93968000e+01
284.000000 5.87589000e+01
290.000000 9.76092000e+01
296.000000 1.56942000e+02
301.000000 2.27316000e+02
308.000000 4.37077000e+02
318.000000 1.00191000e+03
328.000000 1.86383000e+03
338.000000 3.67186000e+03
348.000000 6.67949000e+03
357.000000 3.43567000e+04
366.000000 8.17996000e+04
375.000000 1.13336000e+05
385.000000 1.86846000e+05
395.000000 4.56735000e+05
405.000000 6.31408000e+05
414.000000 9.59254000e+05
422.000000 1.23063000e+06
430.000000 1.68230000e+06
441.000000 2.34602000e+06
451.000000 2.87287000e+06
460.000000 3.49632000e+06
470.000000 4.73001000e+06
480.000000 6.13346000e+06
490.000000 7.78783000e+06
500.000000 9.65964000e+06
506.000000 3.13848000e+07
512.000000 2.89304000e+08
520.000000 2.87465000e+08
530.000000 2.78235000e+08
540.000000 2.74162000e+08
550.000000 3.99856000e+08
560.000000 4.96115000e+08
570.000000 5.38622000e+08
580.000000 4.86053000e+08
590.000000 5.85094000e+08
600.000000 5.36191000e+08
610.000000 6.74286000e+08
620.000000 7.74353000e+08
630.000000 7.72196000e+08
640.000000 6.80918000e+08
650.000000 4.95170000e+08
658.000000 6.61976000e+08
665.000000 8.41553000e+08
675.000000 9.16719000e+08
685.000000 7.90736000e+08
695.000000 1.15283000e+09
705.000000 9.83692000e+08
716.000000 1.27762000e+09
726.000000 1.24181000e+09
735.000000 1.28439000e+09
745.000000 1.38338000e+09
755.000000 1.41968000e+09
765.000000 1.49211000e+09
775.000000 1.59373000e+09
785.000000 1.68983000e+09
795.000000 1.70875000e+09
805.000000 1.68958000e+09
815.000000 1.68484000e+09
825.000000 1.84981000e+09
835.000000 1.41863000e+09
845.000000 1.79668000e+09
855.000000 1.78309000e+09
865.000000 1.88217000e+09
875.000000 1.96679000e+09
885.000000 2.09056000e+09
895.000000 2.15152000e+09
905.000000 2.09265000e+09
915.000000 3.19405000e+09
925.000000 1.83014000e+10
935.000000 2.98845000e+10
945.000000 3.70572000e+10
955.000000 3.88496000e+10
965.000000 4.02514000e+10
975.000000 9.74890000e+09
985.000000 2.77181000e+10
995.000000 2.97864000e+10
1005.000000 3.46060000e+10
1015.000000 3.67396000e+10
1025.000000 3.00347000e+10
1035.000000 3.23715000e+10
1045.000000 4.25915000e+10
1055.000000 3.92223000e+10
1065.000000 3.23747000e+10
1075.000000 3.57455000e+10
1085.000000 3.27823000e+10
1095.000000 3.56487000e+10
1105.000000 3.34668000e+10
1115.000000 3.26420000e+10
1125.000000 2.44884000e+10
1135.000000 3.24024000e+10
1145.000000 3.07355000e+10
1155.000000 3.02027000e+10
1165.000000 2.93117000e+10
1175.000000 1.56354000e+10
1185.000000 2.66418000e+10
1195.000000 2.61712000e+10
1205.000000 2.17838000e+10
1215.000000 2.02870000e+10
1225.000000 2.50187000e+10
1235.000000 2.71576000e+10
1245.000000 2.56148000e+10
1255.000000 2.57559000e+10
1265.000000 2.65604000e+10
1275.000000 2.75822000e+10
1285.000000 2.75196000e+10
1295.000000 2.24844000e+10
1305.000000 2.38179000e+10
1315.000000 2.71410000e+10
1325.000000 2.56814000e+10
1335.000000 2.48035000e+10
1345.000000 2.49733000e+10
1355.000000 2.45302000e+10
1365.000000 2.32056000e+10
1375.000000 2.22655000e+10
1385.000000 2.11773000e+10
1395.000000 1.36118000e+10
1405.000000 1.53371000e+10
1415.000000 1.94289000e+10
1425.000000 1.82678000e+10
1435.000000 1.94455000e+10
1442.000000 1.96195000e+10
1447.000000 1.93852000e+10
1455.000000 1.84803000e+10
1465.000000 1.72626000e+10
1475.000000 1.78873000e+10
1485.000000 1.77617000e+10
1495.000000 1.72619000e+10
1505.000000 1.59469000e+10
1512.000000 1.46403000e+10
1517.000000 1.50861000e+10
1525.000000 1.50658000e+10
1535.000000 1.25396000e+10
1545.000000 1.13182000e+10
1555.000000 1.11366000e+10
1565.000000 1.26563000e+10
1575.000000 1.36655000e+10
1585.000000 1.37785000e+10
1595.000000 1.35818000e+10
1605.000000 1.33805000e+10
1615.000000 1.28188000e+10
1625.000000 1.29366000e+10
1635.000000 1.35816000e+10
1645.000000 1.37050000e+10
1655.000000 1.35235000e+10
1665.000000 1.35613000e+10
1672.000000 1.25475000e+10
1677.000000 1.47231000e+10
1685.000000 1.38512000e+10
1695.000000 1.30823000e+10
1705.000000 1.29606000e+10
1715.000000 1.21194000e+10
1725.000000 1.18504000e+10
1735.000000 1.23081000e+10
1745.000000 1.21300000e+10
1755.000000 1.21091000e+10
1765.000000 1.21004000e+10
1775.000000 1.12978000e+10
1785.000000 1.15859000e+10
1795.000000 1.16256000e+10
1805.000000 1.17123000e+10
1815.000000 1.06902000e+10
1825.000000 1.09576000e+10
1835.000000 1.07708000e+10
1845.000000 9.82754000e+09
1855.000000 1.01839000e+10
1865.000000 1.02865000e+10
1875.000000 1.03865000e+10
1885.000000 9.37597000e+09
1895.000000 8.80855000e+09
1905.000000 9.46520000e+09
1915.000000 9.00890000e+09
1925.000000 8.42247000e+09
1935.000000 9.08272000e+09
1945.000000 9.32476000e+09
1955.000000 8.23536000e+09
1967.000000 8.97100000e+09
1976.000000 9.39022000e+09
1984.000000 8.74930000e+09
1995.000000 8.59080000e+09
2005.000000 8.91241000e+09
2015.000000 8.86462000e+09
2025.000000 9.04206000e+09
2035.000000 8.26076000e+09
2045.000000 8.35988000e+09
2055.000000 7.51438000e+09
2065.000000 7.41298000e+09
2074.000000 7.94933000e+09
2078.000000 7.33134000e+09
2085.000000 7.88976000e+09
2095.000000 7.59369000e+09
2105.000000 7.88169000e+09
2115.000000 7.93972000e+09
2125.000000 7.97071000e+09
2135.000000 7.84440000e+09
2145.000000 7.46036000e+09
2155.000000 7.73946000e+09
2165.000000 7.61283000e+09
2175.000000 7.56561000e+09
2185.000000 7.34959000e+09
2195.000000 7.45276000e+09
2205.000000 7.41298000e+09
2215.000000 7.27194000e+09
2225.000000 7.11076000e+09
2235.000000 6.96009000e+09
2245.000000 6.98717000e+09
2255.000000 6.80199000e+09
2265.000000 6.82864000e+09
2275.000000 6.74654000e+09
2285.000000 6.66799000e+09
2295.000000 5.75835000e+09
2305.000000 6.40047000e+09
2315.000000 6.27029000e+09
2325.000000 6.22162000e+09
2335.000000 6.08747000e+09
2345.000000 6.13424000e+09
2355.000000 6.03518000e+09
2365.000000 5.97031000e+09
2375.000000 5.82296000e+09
2385.000000 5.73490000e+09
2395.000000 5.67121000e+09
2405.000000 5.61881000e+09
2415.000000 5.54602000e+09
2425.000000 5.52004000e+09
2435.000000 5.38171000e+09
2445.000000 5.36758000e+09
2455.000000 5.33907000e+09
2465.000000 5.25064000e+09
2475.000000 5.15344000e+09
2485.000000 4.96563000e+09
2495.000000 3.59329000e+09
2505.000000 4.70421000e+09
2513.000000 4.65348000e+09
2518.000000 4.79794000e+09
2525.000000 4.83661000e+09
2535.000000 4.80961000e+09
2545.000000 4.63933000e+09
2555.000000 4.65214000e+09
2565.000000 4.59744000e+09
2575.000000 4.57197000e+09
2585.000000 4.51175000e+09
2595.000000 4.46429000e+09
2605.000000 4.42958000e+09
2615.000000 4.34200000e+09
2625.000000 4.31652000e+09
2635.000000 4.27547000e+09
2645.000000 4.20147000e+09
2655.000000 4.17062000e+09
2665.000000 4.01287000e+09
2675.000000 3.99214000e+09
2685.000000 4.00771000e+09
2695.000000 3.86407000e+09
2705.000000 3.78643000e+09
2715.000000 3.78399000e+09
2725.000000 3.78468000e+09
2735.000000 3.73132000e+09
2745.000000 3.69244000e+09
2755.000000 3.66563000e+09
2765.000000 3.60763000e+09
2775.000000 3.62277000e+09
2785.000000 3.55541000e+09
2795.000000 3.42711000e+09
2805.000000 3.45577000e+09
2815.000000 3.45726000e+09
2825.000000 3.41216000e+09
2835.000000 3.30122000e+09
2845.000000 3.32926000e+09
2855.000000 3.26368000e+09
2865.000000 3.24622000e+09
2875.000000 3.21028000e+09
2885.000000 3.17557000e+09
2895.000000 3.13020000e+09
2910.000000 3.05504000e+09
2930.000000 3.02603000e+09
2950.000000 2.93262000e+09
2970.000000 2.88173000e+09
2990.000000 2.80820000e+09
3010.000000 2.70107000e+09
3030.000000 2.67595000e+09
3050.000000 2.64053000e+09
3070.000000 2.60196000e+09
3090.000000 2.49172000e+09
3110.000000 2.48883000e+09
3130.000000 2.41910000e+09
3150.000000 2.38161000e+09
3170.000000 2.31926000e+09
3190.000000 2.27631000e+09
3210.000000 2.23509000e+09
3230.000000 2.17709000e+09
3250.000000 2.14995000e+09
3270.000000 2.09255000e+09
3290.000000 2.05369000e+09
3310.000000 2.01343000e+09
3330.000000 1.96462000e+09
3350.000000 1.92841000e+09
3370.000000 1.88814000e+09
3390.000000 1.86396000e+09
3410.000000 1.82774000e+09
3430.000000 1.79141000e+09
3450.000000 1.74921000e+09
3470.000000 1.71709000e+09
3490.000000 1.68154000e+09
3510.000000 1.65341000e+09
3530.000000 1.63161000e+09
3550.000000 1.59788000e+09
3570.000000 1.57019000e+09
3590.000000 1.52710000e+09
3610.000000 1.50003000e+09
3630.000000 1.47648000e+09
3640.000000 1.46983000e+09
3650.000000 1.42845000e+09
3670.000000 1.41054000e+09
3690.000000 1.37642000e+09
3710.000000 1.33037000e+09
3730.000000 1.29561000e+09
3750.000000 1.35400000e+09
3770.000000 1.33633000e+09
3790.000000 1.36596000e+09
3810.000000 1.39612000e+09
3830.000000 1.26557000e+09
3850.000000 1.38240000e+09
3870.000000 1.33701000e+09
3890.000000 1.20611000e+09
3910.000000 1.33323000e+09
3930.000000 1.28508000e+09
3950.000000 1.26752000e+09
3970.000000 1.11351000e+09
3990.000000 1.23487000e+09
4010.000000 1.21663000e+09
4030.000000 1.17278000e+09
4050.000000 1.17407000e+09
4070.000000 1.12219000e+09
4090.000000 1.07516000e+09
4110.000000 9.96904000e+08
4130.000000 1.07427000e+09
4150.000000 1.06416000e+09
4170.000000 1.05783000e+09
4190.000000 1.04274000e+09
4210.000000 1.03045000e+09
4230.000000 1.01016000e+09
4250.000000 9.82135000e+08
4270.000000 9.57976000e+08
4290.000000 9.42453000e+08
4310.000000 9.15292000e+08
4330.000000 8.74807000e+08
4350.000000 8.17865000e+08
4370.000000 8.73878000e+08
4390.000000 8.70176000e+08
4410.000000 8.57477000e+08
4430.000000 8.51768000e+08
4450.000000 8.35568000e+08
4470.000000 8.11365000e+08
4490.000000 8.12935000e+08
4510.000000 8.00352000e+08
4530.000000 7.90455000e+08
4550.000000 7.77789000e+08
4570.000000 7.66306000e+08
4590.000000 7.52364000e+08
4610.000000 7.35693000e+08
4630.000000 7.23692000e+08
4650.000000 6.92583000e+08
4670.000000 7.02072000e+08
4690.000000 6.95052000e+08
4710.000000 6.73555000e+08
4730.000000 6.76442000e+08
4750.000000 6.64830000e+08
4770.000000 6.63175000e+08
4790.000000 6.52000000e+08
4810.000000 6.39522000e+08
4830.000000 6.28343000e+08
4850.000000 6.06451000e+08
4870.000000 5.54700000e+08
4890.000000 6.02131000e+08
4910.000000 5.94048000e+08
4930.000000 5.77675000e+08
4950.000000 5.73554000e+08
4970.000000 5.70991000e+08
4990.000000 5.61869000e+08
5010.000000 5.40327000e+08
5030.000000 5.43945000e+08
5050.000000 5.34106000e+08
5070.000000 5.30442000e+08
5090.000000 5.21774000e+08
5110.000000 5.13543000e+08
5130.000000 5.03391000e+08
5150.000000 4.97585000e+08
5170.000000 4.92150000e+08
5190.000000 4.86239000e+08
5210.000000 4.79501000e+08
5230.000000 4.72535000e+08
5250.000000 4.65634000e+08
5270.000000 4.58295000e+08
5290.000000 4.53355000e+08
5310.000000 4.46780000e+08
5330.000000 4.41259000e+08
5350.000000 4.35057000e+08
5370.000000 4.29340000e+08
5390.000000 4.22840000e+08
5410.000000 4.17210000e+08
5430.000000 4.12276000e+08
5450.000000 4.06453000e+08
5470.000000 4.00993000e+08
5490.000000 3.95527000e+08
5510.000000 3.90936000e+08
5530.000000 3.84947000e+08
5550.000000 3.80882000e+08
5570.000000 3.75504000e+08
5590.000000 3.70604000e+08
5610.000000 3.65991000e+08
5630.000000 3.61398000e+08
5650.000000 3.55882000e+08
5670.000000 3.49650000e+08
5690.000000 3.42623000e+08
5710.000000 3.40250000e+08
5730.000000 3.36422000e+08
5750.000000 3.30907000e+08
5770.000000 3.28594000e+08
5790.000000 3.24058000e+08
5810.000000 3.20023000e+08
5830.000000 3.15171000e+08
5850.000000 3.12139000e+08
5870.000000 3.01979000e+08
5890.000000 3.02560000e+08
5910.000000 3.00235000e+08
5930.000000 2.96156000e+08
5950.000000 2.92551000e+08
5970.000000 2.90837000e+08
5990.000000 2.85780000e+08
6010.000000 2.83224000e+08
6030.000000 2.79090000e+08
6050.000000 2.76013000e+08
6070.000000 2.73215000e+08
6090.000000 2.70022000e+08
6110.000000 2.66653000e+08
6130.000000 2.63642000e+08
6150.000000 2.59340000e+08
6170.000000 2.56524000e+08
6190.000000 2.54033000e+08
6210.000000 2.51296000e+08
6230.000000 2.48403000e+08
6250.000000 2.44965000e+08
6270.000000 2.42312000e+08
6290.000000 2.39659000e+08
6310.000000 2.36610000e+08
6330.000000 2.34158000e+08
6350.000000 2.31041000e+08
6370.000000 2.28785000e+08
6390.000000 2.25998000e+08
6410.000000 2.23407000e+08
6430.000000 2.20972000e+08
6450.000000 2.18336000e+08
6470.000000 2.15080000e+08
6490.000000 2.12728000e+08
6510.000000 2.10668000e+08
6530.000000 2.07948000e+08
6550.000000 2.03203000e+08
6570.000000 1.83831000e+08
6590.000000 1.99737000e+08
6610.000000 1.98909000e+08
6630.000000 1.96966000e+08
6650.000000 1.94573000e+08
6670.000000 1.91147000e+08
6690.000000 1.89071000e+08
6710.000000 1.88331000e+08
6730.000000 1.85649000e+08
6750.000000 1.84286000e+08
6770.000000 1.82352000e+08
6790.000000 1.79074000e+08
6810.000000 1.78153000e+08
6830.000000 1.76150000e+08
6850.000000 1.74457000e+08
6870.000000 1.72517000e+08
6890.000000 1.70350000e+08
6910.000000 1.68261000e+08
6930.000000 1.67087000e+08
6950.000000 1.65308000e+08
6970.000000 1.63546000e+08
6990.000000 1.61748000e+08
7010.000000 1.60006000e+08
7030.000000 1.58182000e+08
7050.000000 1.56612000e+08
7070.000000 1.52795000e+08
7090.000000 1.53380000e+08
7110.000000 1.50633000e+08
7130.000000 1.49204000e+08
7150.000000 1.48614000e+08
7170.000000 1.47024000e+08
7190.000000 1.45566000e+08
7210.000000 1.44049000e+08
7230.000000 1.40702000e+08
7250.000000 1.40701000e+08
7270.000000 1.39614000e+08
7290.000000 1.37190000e+08
7310.000000 1.36729000e+08
7330.000000 1.35290000e+08
7350.000000 1.33976000e+08
7370.000000 1.32647000e+08
7390.000000 1.31302000e+08
7410.000000 1.29970000e+08
7430.000000 1.28650000e+08
7450.000000 1.27342000e+08
7470.000000 1.25446000e+08
7490.000000 1.24663000e+08
7510.000000 1.23506000e+08
7530.000000 1.22206000e+08
7550.000000 1.21130000e+08
7570.000000 1.19925000e+08
7590.000000 1.18666000e+08
7610.000000 1.17334000e+08
7630.000000 1.16351000e+08
7650.000000 1.15222000e+08
7670.000000 1.14135000e+08
7690.000000 1.12969000e+08
7710.000000 1.11845000e+08
7730.000000 1.10693000e+08
7750.000000 1.09746000e+08
7770.000000 1.08564000e+08
7790.000000 1.07660000e+08
7810.000000 1.06566000e+08
7830.000000 1.05598000e+08
7850.000000 1.04620000e+08
7870.000000 1.03426000e+08
7890.000000 1.02291000e+08
7910.000000 1.01510000e+08
7930.000000 1.00477000e+08
7950.000000 9.96207000e+07
7970.000000 9.86054000e+07
7990.000000 9.77288000e+07
8010.000000 9.67188000e+07
8030.000000 9.58403000e+07
8050.000000 9.50333000e+07
8070.000000 9.41695000e+07
8090.000000 9.31864000e+07
8110.000000 9.18109000e+07
8130.000000 9.16048000e+07
8150.000000 9.06340000e+07
8170.000000 8.99537000e+07
8190.000000 8.86612000e+07
8210.000000 8.76877000e+07
8230.000000 8.67336000e+07
8250.000000 8.64188000e+07
8270.000000 8.48060000e+07
8290.000000 8.47207000e+07
8310.000000 8.40461000e+07
8330.000000 8.32683000e+07
8350.000000 8.21675000e+07
8370.000000 8.15548000e+07
8390.000000 8.10006000e+07
8410.000000 8.01737000e+07
8430.000000 7.94597000e+07
8450.000000 7.83243000e+07
8470.000000 7.78130000e+07
8490.000000 7.73789000e+07
8510.000000 7.59804000e+07
8530.000000 7.62252000e+07
8550.000000 7.39467000e+07
8570.000000 7.56486000e+07
8590.000000 7.27338000e+07
8610.000000 7.22082000e+07
8630.000000 7.42311000e+07
8650.000000 7.24785000e+07
8670.000000 6.78995000e+07
8690.000000 7.23915000e+07
8710.000000 7.22580000e+07
8730.000000 7.06174000e+07
8750.000000 6.47298000e+07
8770.000000 6.89020000e+07
8790.000000 6.99394000e+07
8810.000000 6.94475000e+07
8830.000000 6.86453000e+07
8850.000000 6.57909000e+07
8870.000000 6.13718000e+07
8890.000000 6.67065000e+07
8910.000000 6.65307000e+07
8930.000000 6.59685000e+07
8950.000000 6.55376000e+07
8970.000000 6.49647000e+07
8990.000000 6.36598000e+07
9010.000000 5.80872000e+07
9030.000000 6.07131000e+07
9050.000000 6.26115000e+07
9070.000000 6.18228000e+07
9090.000000 6.15921000e+07
9110.000000 6.12856000e+07
9130.000000 6.07960000e+07
9150.000000 6.02965000e+07
9170.000000 5.96574000e+07
9190.000000 5.91661000e+07
9210.000000 5.73861000e+07
9230.000000 5.18311000e+07
9250.000000 5.65738000e+07
9270.000000 5.71015000e+07
9290.000000 5.68341000e+07
9310.000000 5.61860000e+07
9330.000000 5.57419000e+07
9350.000000 5.54175000e+07
9370.000000 5.50096000e+07
9390.000000 5.45875000e+07
9410.000000 5.41004000e+07
9430.000000 5.36806000e+07
9450.000000 5.32300000e+07
9470.000000 5.26105000e+07
9490.000000 5.23514000e+07
9510.000000 5.14691000e+07
9530.000000 5.01043000e+07
9550.000000 4.55574000e+07
9570.000000 5.00647000e+07
9590.000000 5.02699000e+07
9610.000000 4.97508000e+07
9630.000000 4.92600000e+07
9650.000000 4.91855000e+07
9670.000000 4.87969000e+07
9690.000000 4.83710000e+07
9710.000000 4.75766000e+07
9730.000000 4.76001000e+07
9750.000000 4.72663000e+07
9770.000000 4.69112000e+07
9790.000000 4.65349000e+07
9810.000000 4.61144000e+07
9830.000000 4.58178000e+07
9850.000000 4.54378000e+07
9870.000000 4.50605000e+07
9890.000000 4.46358000e+07
9910.000000 4.41412000e+07
9930.000000 4.40667000e+07
9950.000000 4.37185000e+07
9970.000000 4.33462000e+07
9990.000000 4.30483000e+07
10025.000000 4.13613000e+07
10075.000000 4.00536000e+07
10125.000000 4.07210000e+07
10175.000000 4.01398000e+07
10225.000000 3.93699000e+07
10275.000000 3.86522000e+07
10325.000000 3.78194000e+07
10375.000000 3.72457000e+07
10425.000000 3.65635000e+07
10475.000000 3.58960000e+07
10525.000000 3.52292000e+07
10575.000000 3.46038000e+07
10625.000000 3.39785000e+07
10675.000000 3.33271000e+07
10725.000000 3.27780000e+07
10775.000000 3.21932000e+07
10825.000000 3.13039000e+07
10875.000000 3.10454000e+07
10925.000000 2.87746000e+07
10975.000000 2.96647000e+07
11025.000000 2.93321000e+07
11075.000000 2.89542000e+07
11125.000000 2.84549000e+07
11175.000000 2.79734000e+07
11225.000000 2.74844000e+07
11275.000000 2.70189000e+07
11325.000000 2.65218000e+07
11375.000000 2.61112000e+07
11425.000000 2.56621000e+07
11475.000000 2.52481000e+07
11525.000000 2.48344000e+07
11575.000000 2.44043000e+07
11625.000000 2.40053000e+07
11675.000000 2.35876000e+07
11725.000000 2.32372000e+07
11775.000000 2.28523000e+07
11825.000000 2.24797000e+07
11875.000000 2.21206000e+07
11925.000000 2.17647000e+07
11975.000000 2.12607000e+07
12025.000000 2.10715000e+07
12075.000000 2.07374000e+07
12125.000000 2.04040000e+07
12175.000000 2.00840000e+07
12225.000000 1.97678000e+07
12275.000000 1.94593000e+07
12325.000000 1.91507000e+07
12375.000000 1.88524000e+07
12425.000000 1.85653000e+07
12475.000000 1.82650000e+07
12525.000000 1.79480000e+07
12575.000000 1.77074000e+07
12625.000000 1.74388000e+07
12675.000000 1.71845000e+07
12725.000000 1.69250000e+07
12775.000000 1.64655000e+07
12825.000000 1.54990000e+07
12875.000000 1.61355000e+07
12925.000000 1.59297000e+07
12975.000000 1.56057000e+07
13025.000000 1.54468000e+07
13075.000000 1.52337000e+07
