# Kurucz ODFNEW /NOVER, alpha: 0.0 (2003)
# teff = 27000 K (value for the effective temperature for the model. Temperatures are given in K)
# logg = 4 log(cm/s2) (value for Log(G) for the model.)
# lh = 1.25  (l/Hp where l is the  mixing length of the convective element and Hp is the pressure scale height)
# meta = -0.5  (value for the Metallicity for the model.)
# vtur = 2 km/s (Microturbulence velocity)
# alpha = 0  (Alpha)
#
# column 1: WAVELENGTH (ANGSTROM), Wavelength in Angstrom
# column 2: FLUX (ERG/CM2/S/A), Flux in erg/cm2/s/A
147.200000 3.78766000e-12
151.000000 1.48453000e-11
155.200000 6.26333000e-11
158.800000 2.03637000e-10
162.000000 5.58132000e-10
166.000000 1.87066000e-09
170.300000 6.46512000e-09
173.400000 1.52533000e-08
176.800000 3.78161000e-08
180.200000 9.07017000e-08
181.700000 1.32070000e-07
186.100000 3.84635000e-07
191.000000 1.19511000e-06
193.900000 2.27598000e-06
198.400000 5.95837000e-06
201.800000 1.19828000e-05
205.000000 2.26396000e-05
210.500000 6.45937000e-05
216.200000 1.80819000e-04
219.800000 3.36843000e-04
223.000000 5.75590000e-04
226.800000 1.06746000e-03
230.000000 2.17777000e-01
234.000000 5.00538000e-01
240.000000 1.03856000e+00
246.500000 2.24671000e+00
252.400000 4.40178000e+00
256.800000 6.47417000e+00
260.000000 1.03389000e+01
264.000000 1.52419000e+01
268.500000 2.39994000e+01
273.500000 3.84142000e+01
278.500000 5.98980000e+01
284.000000 1.04164000e+02
290.000000 1.70017000e+02
296.000000 2.72481000e+02
301.000000 3.89661000e+02
308.000000 6.40723000e+02
318.000000 1.42441000e+03
328.000000 2.63823000e+03
338.000000 5.01299000e+03
348.000000 8.88131000e+03
357.000000 2.19332000e+04
366.000000 3.75672000e+04
375.000000 5.45464000e+04
385.000000 8.62417000e+04
395.000000 1.38153000e+05
405.000000 1.99857000e+05
414.000000 2.82795000e+05
422.000000 3.63182000e+05
430.000000 4.85021000e+05
441.000000 6.88969000e+05
451.000000 9.23260000e+05
460.000000 1.17416000e+06
470.000000 1.57111000e+06
480.000000 2.03489000e+06
490.000000 2.63601000e+06
500.000000 3.35937000e+06
506.000000 1.78465000e+07
512.000000 7.82534000e+07
520.000000 8.40717000e+07
530.000000 9.36580000e+07
540.000000 9.48813000e+07
550.000000 1.25087000e+08
560.000000 1.43952000e+08
570.000000 1.63725000e+08
580.000000 1.57792000e+08
590.000000 1.93008000e+08
600.000000 2.06113000e+08
610.000000 2.32851000e+08
620.000000 2.56282000e+08
630.000000 2.71427000e+08
640.000000 2.67233000e+08
650.000000 2.64959000e+08
658.000000 3.09257000e+08
665.000000 3.41959000e+08
675.000000 3.53160000e+08
685.000000 3.58990000e+08
695.000000 4.32975000e+08
705.000000 4.33854000e+08
716.000000 4.84712000e+08
726.000000 4.98641000e+08
735.000000 5.14621000e+08
745.000000 5.65523000e+08
755.000000 5.91393000e+08
765.000000 6.24976000e+08
775.000000 6.59092000e+08
785.000000 6.99201000e+08
795.000000 7.20347000e+08
805.000000 7.43198000e+08
815.000000 7.57457000e+08
825.000000 8.10110000e+08
835.000000 7.54080000e+08
845.000000 8.38114000e+08
855.000000 8.57893000e+08
865.000000 9.01009000e+08
875.000000 9.46910000e+08
885.000000 9.99273000e+08
895.000000 1.03416000e+09
905.000000 1.04041000e+09
915.000000 1.39118000e+09
925.000000 8.73330000e+09
935.000000 1.89786000e+10
945.000000 3.42667000e+10
955.000000 3.96695000e+10
965.000000 4.69645000e+10
975.000000 1.37123000e+10
985.000000 4.19742000e+10
995.000000 3.91180000e+10
1005.000000 4.24426000e+10
1015.000000 4.22796000e+10
1025.000000 2.43043000e+10
1035.000000 3.65924000e+10
1045.000000 4.69832000e+10
1055.000000 4.40625000e+10
1065.000000 3.79279000e+10
1075.000000 4.12092000e+10
1085.000000 3.73553000e+10
1095.000000 4.07576000e+10
1105.000000 3.81535000e+10
1115.000000 3.76176000e+10
1125.000000 3.20880000e+10
1135.000000 3.70786000e+10
1145.000000 3.41550000e+10
1155.000000 3.45912000e+10
1165.000000 3.40638000e+10
1175.000000 2.34593000e+10
1185.000000 3.17218000e+10
1195.000000 3.01563000e+10
1205.000000 2.51621000e+10
1215.000000 1.68150000e+10
1225.000000 2.75626000e+10
1235.000000 2.98029000e+10
1245.000000 2.89251000e+10
1255.000000 2.85855000e+10
1265.000000 2.86604000e+10
1275.000000 2.89935000e+10
1285.000000 2.85189000e+10
1295.000000 2.40838000e+10
1305.000000 2.49792000e+10
1315.000000 2.72587000e+10
1325.000000 2.58488000e+10
1335.000000 2.50170000e+10
1345.000000 2.48984000e+10
1355.000000 2.47682000e+10
1365.000000 2.34320000e+10
1375.000000 2.28812000e+10
1385.000000 2.24420000e+10
1395.000000 1.80352000e+10
1405.000000 1.88574000e+10
1415.000000 2.04807000e+10
1425.000000 1.95023000e+10
1435.000000 1.99906000e+10
1442.000000 2.02373000e+10
1447.000000 1.98566000e+10
1455.000000 1.92847000e+10
1465.000000 1.83623000e+10
1475.000000 1.83497000e+10
1485.000000 1.80897000e+10
1495.000000 1.76564000e+10
1505.000000 1.65470000e+10
1512.000000 1.52974000e+10
1517.000000 1.56154000e+10
1525.000000 1.56715000e+10
1535.000000 1.37311000e+10
1545.000000 1.34149000e+10
1555.000000 1.28755000e+10
1565.000000 1.37102000e+10
1575.000000 1.42805000e+10
1585.000000 1.41501000e+10
1595.000000 1.40361000e+10
1605.000000 1.36203000e+10
1615.000000 1.32017000e+10
1625.000000 1.32034000e+10
1635.000000 1.35513000e+10
1645.000000 1.32886000e+10
1655.000000 1.32905000e+10
1665.000000 1.32035000e+10
1672.000000 1.26958000e+10
1677.000000 1.36274000e+10
1685.000000 1.31306000e+10
1695.000000 1.25934000e+10
1705.000000 1.22255000e+10
1715.000000 1.17161000e+10
1725.000000 1.14761000e+10
1735.000000 1.16938000e+10
1745.000000 1.14736000e+10
1755.000000 1.14393000e+10
1765.000000 1.12001000e+10
1775.000000 1.07166000e+10
1785.000000 1.07915000e+10
1795.000000 1.08288000e+10
1805.000000 1.08231000e+10
1815.000000 1.00688000e+10
1825.000000 1.02158000e+10
1835.000000 9.98663000e+09
1845.000000 9.17524000e+09
1855.000000 9.25351000e+09
1865.000000 9.36520000e+09
1875.000000 9.46446000e+09
1885.000000 8.60549000e+09
1895.000000 8.06485000e+09
1905.000000 8.54907000e+09
1915.000000 8.18460000e+09
1925.000000 7.79144000e+09
1935.000000 8.16862000e+09
1945.000000 8.32424000e+09
1955.000000 7.56046000e+09
1967.000000 8.00003000e+09
1976.000000 8.31809000e+09
1984.000000 7.75499000e+09
1995.000000 7.58972000e+09
2005.000000 7.71925000e+09
2015.000000 7.70230000e+09
2025.000000 7.81236000e+09
2035.000000 7.25517000e+09
2045.000000 7.26628000e+09
2055.000000 6.86396000e+09
2065.000000 6.83723000e+09
2074.000000 7.11415000e+09
2078.000000 6.65728000e+09
2085.000000 6.84413000e+09
2095.000000 6.62152000e+09
2105.000000 6.81561000e+09
2115.000000 6.77894000e+09
2125.000000 6.82724000e+09
2135.000000 6.68988000e+09
2145.000000 6.41034000e+09
2155.000000 6.54998000e+09
2165.000000 6.47506000e+09
2175.000000 6.37879000e+09
2185.000000 6.25094000e+09
2195.000000 6.25361000e+09
2205.000000 6.18176000e+09
2215.000000 6.09420000e+09
2225.000000 5.96527000e+09
2235.000000 5.85349000e+09
2245.000000 5.85191000e+09
2255.000000 5.71641000e+09
2265.000000 5.70107000e+09
2275.000000 5.62646000e+09
2285.000000 5.57003000e+09
2295.000000 5.22970000e+09
2305.000000 5.39189000e+09
2315.000000 5.28411000e+09
2325.000000 5.21820000e+09
2335.000000 5.11404000e+09
2345.000000 5.11319000e+09
2355.000000 5.05560000e+09
2365.000000 4.99562000e+09
2375.000000 4.90168000e+09
2385.000000 4.84397000e+09
2395.000000 4.77819000e+09
2405.000000 4.71769000e+09
2415.000000 4.65028000e+09
2425.000000 4.61765000e+09
2435.000000 4.51982000e+09
2445.000000 4.48740000e+09
2455.000000 4.45216000e+09
2465.000000 4.39193000e+09
2475.000000 4.32595000e+09
2485.000000 4.25972000e+09
2495.000000 3.81963000e+09
2505.000000 4.13128000e+09
2513.000000 3.98684000e+09
2518.000000 4.06978000e+09
2525.000000 4.05469000e+09
2535.000000 4.00940000e+09
2545.000000 3.90088000e+09
2555.000000 3.88893000e+09
2565.000000 3.85042000e+09
2575.000000 3.81677000e+09
2585.000000 3.76954000e+09
2595.000000 3.72633000e+09
2605.000000 3.69661000e+09
2615.000000 3.64790000e+09
2625.000000 3.61103000e+09
2635.000000 3.56755000e+09
2645.000000 3.51844000e+09
2655.000000 3.48205000e+09
2665.000000 3.40388000e+09
2675.000000 3.37647000e+09
2685.000000 3.36297000e+09
2695.000000 3.26799000e+09
2705.000000 3.24315000e+09
2715.000000 3.21940000e+09
2725.000000 3.17745000e+09
2735.000000 3.15300000e+09
2745.000000 3.10627000e+09
2755.000000 3.08118000e+09
2765.000000 3.02814000e+09
2775.000000 3.02631000e+09
2785.000000 2.98325000e+09
2795.000000 2.89553000e+09
2805.000000 2.89996000e+09
2815.000000 2.89000000e+09
2825.000000 2.83601000e+09
2835.000000 2.77235000e+09
2845.000000 2.79037000e+09
2855.000000 2.74867000e+09
2865.000000 2.72516000e+09
2875.000000 2.69529000e+09
2885.000000 2.66673000e+09
2895.000000 2.63251000e+09
2910.000000 2.58249000e+09
2930.000000 2.53305000e+09
2950.000000 2.45903000e+09
2970.000000 2.42218000e+09
2990.000000 2.36667000e+09
3010.000000 2.30060000e+09
3030.000000 2.26877000e+09
3050.000000 2.22462000e+09
3070.000000 2.18110000e+09
3090.000000 2.11125000e+09
3110.000000 2.08773000e+09
3130.000000 2.04056000e+09
3150.000000 2.00068000e+09
3170.000000 1.95628000e+09
3190.000000 1.90691000e+09
3210.000000 1.88063000e+09
3230.000000 1.83918000e+09
3250.000000 1.80580000e+09
3270.000000 1.76846000e+09
3290.000000 1.73171000e+09
3310.000000 1.70036000e+09
3330.000000 1.66484000e+09
3350.000000 1.63146000e+09
3370.000000 1.60067000e+09
3390.000000 1.57204000e+09
3410.000000 1.54206000e+09
3430.000000 1.50629000e+09
3450.000000 1.47254000e+09
3470.000000 1.44739000e+09
3490.000000 1.41925000e+09
3510.000000 1.39646000e+09
3530.000000 1.37433000e+09
3550.000000 1.34851000e+09
3570.000000 1.32954000e+09
3590.000000 1.29428000e+09
3610.000000 1.27307000e+09
3630.000000 1.24945000e+09
3640.000000 1.24708000e+09
3650.000000 1.22086000e+09
3670.000000 1.20535000e+09
3690.000000 1.17973000e+09
3710.000000 1.13866000e+09
3730.000000 1.09619000e+09
3750.000000 1.13556000e+09
3770.000000 1.12649000e+09
3790.000000 1.16805000e+09
3810.000000 1.20464000e+09
3830.000000 1.07092000e+09
3850.000000 1.21773000e+09
3870.000000 1.20820000e+09
3890.000000 1.01509000e+09
3910.000000 1.18964000e+09
3930.000000 1.15925000e+09
3950.000000 1.14464000e+09
3970.000000 9.41363000e+08
3990.000000 1.10278000e+09
4010.000000 1.09218000e+09
4030.000000 1.03927000e+09
4050.000000 1.06146000e+09
4070.000000 1.02487000e+09
4090.000000 9.64226000e+08
4110.000000 8.65500000e+08
4130.000000 9.71348000e+08
4150.000000 9.63036000e+08
4170.000000 9.54969000e+08
4190.000000 9.40466000e+08
4210.000000 9.28555000e+08
4230.000000 9.11142000e+08
4250.000000 8.90969000e+08
4270.000000 8.69150000e+08
4290.000000 8.59345000e+08
4310.000000 8.38673000e+08
4330.000000 7.79062000e+08
4350.000000 7.16687000e+08
4370.000000 7.97593000e+08
4390.000000 7.79239000e+08
4410.000000 7.78637000e+08
4430.000000 7.68781000e+08
4450.000000 7.57169000e+08
4470.000000 7.21749000e+08
4490.000000 7.32843000e+08
4510.000000 7.24099000e+08
4530.000000 7.12505000e+08
4550.000000 7.00396000e+08
4570.000000 6.88813000e+08
4590.000000 6.77816000e+08
4610.000000 6.66010000e+08
4630.000000 6.55910000e+08
4650.000000 6.37003000e+08
4670.000000 6.35446000e+08
4690.000000 6.27537000e+08
4710.000000 6.08022000e+08
4730.000000 6.07909000e+08
4750.000000 5.97808000e+08
4770.000000 5.93021000e+08
4790.000000 5.83580000e+08
4810.000000 5.73478000e+08
4830.000000 5.62020000e+08
4850.000000 5.29816000e+08
4870.000000 4.79122000e+08
4890.000000 5.37726000e+08
4910.000000 5.32120000e+08
4930.000000 5.14558000e+08
4950.000000 5.16159000e+08
4970.000000 5.10808000e+08
4990.000000 5.03075000e+08
5010.000000 4.87075000e+08
5030.000000 4.88421000e+08
5050.000000 4.78444000e+08
5070.000000 4.74896000e+08
5090.000000 4.67827000e+08
5110.000000 4.60998000e+08
5130.000000 4.53417000e+08
5150.000000 4.47232000e+08
5170.000000 4.41819000e+08
5190.000000 4.35931000e+08
5210.000000 4.29634000e+08
5230.000000 4.23807000e+08
5250.000000 4.18001000e+08
5270.000000 4.11999000e+08
5290.000000 4.06601000e+08
5310.000000 4.00885000e+08
5330.000000 3.95548000e+08
5350.000000 3.90016000e+08
5370.000000 3.84961000e+08
5390.000000 3.79594000e+08
5410.000000 3.74579000e+08
5430.000000 3.69563000e+08
5450.000000 3.64534000e+08
5470.000000 3.59695000e+08
5490.000000 3.54942000e+08
5510.000000 3.50434000e+08
5530.000000 3.45613000e+08
5550.000000 3.41292000e+08
5570.000000 3.36732000e+08
5590.000000 3.32422000e+08
5610.000000 3.28045000e+08
5630.000000 3.23876000e+08
5650.000000 3.19310000e+08
5670.000000 3.14553000e+08
5690.000000 3.09809000e+08
5710.000000 3.07088000e+08
5730.000000 3.03285000e+08
5750.000000 2.98911000e+08
5770.000000 2.95858000e+08
5790.000000 2.92019000e+08
5810.000000 2.88372000e+08
5830.000000 2.84501000e+08
5850.000000 2.81128000e+08
5870.000000 2.70426000e+08
5890.000000 2.73066000e+08
5910.000000 2.70509000e+08
5930.000000 2.66974000e+08
5950.000000 2.63617000e+08
5970.000000 2.60998000e+08
5990.000000 2.57368000e+08
6010.000000 2.54521000e+08
6030.000000 2.51240000e+08
6050.000000 2.48316000e+08
6070.000000 2.45435000e+08
6090.000000 2.42495000e+08
6110.000000 2.39578000e+08
6130.000000 2.36734000e+08
6150.000000 2.33543000e+08
6170.000000 2.30903000e+08
6190.000000 2.28302000e+08
6210.000000 2.25662000e+08
6230.000000 2.23022000e+08
6250.000000 2.20266000e+08
6270.000000 2.17751000e+08
6290.000000 2.15254000e+08
6310.000000 2.12681000e+08
6330.000000 2.10267000e+08
6350.000000 2.07665000e+08
6370.000000 2.05397000e+08
6390.000000 2.03006000e+08
6410.000000 2.00687000e+08
6430.000000 1.98429000e+08
6450.000000 1.96141000e+08
6470.000000 1.93643000e+08
6490.000000 1.91504000e+08
6510.000000 1.89484000e+08
6530.000000 1.86762000e+08
6550.000000 1.80310000e+08
6570.000000 1.61610000e+08
6590.000000 1.79186000e+08
6610.000000 1.78888000e+08
6630.000000 1.77082000e+08
6650.000000 1.75133000e+08
6670.000000 1.71755000e+08
6690.000000 1.69913000e+08
6710.000000 1.69479000e+08
6730.000000 1.67434000e+08
6750.000000 1.65798000e+08
6770.000000 1.63990000e+08
6790.000000 1.61742000e+08
6810.000000 1.60363000e+08
6830.000000 1.58618000e+08
6850.000000 1.56962000e+08
6870.000000 1.55267000e+08
6890.000000 1.53526000e+08
6910.000000 1.51826000e+08
6930.000000 1.50316000e+08
6950.000000 1.48726000e+08
6970.000000 1.47145000e+08
6990.000000 1.45572000e+08
7010.000000 1.44045000e+08
7030.000000 1.42510000e+08
7050.000000 1.41013000e+08
7070.000000 1.37465000e+08
7090.000000 1.38077000e+08
7110.000000 1.36459000e+08
7130.000000 1.35109000e+08
7150.000000 1.33794000e+08
7170.000000 1.32397000e+08
7190.000000 1.31049000e+08
7210.000000 1.29700000e+08
7230.000000 1.27311000e+08
7250.000000 1.26947000e+08
7270.000000 1.25743000e+08
7290.000000 1.23509000e+08
7310.000000 1.23172000e+08
7330.000000 1.21926000e+08
7350.000000 1.20705000e+08
7370.000000 1.19489000e+08
7390.000000 1.18285000e+08
7410.000000 1.17098000e+08
7430.000000 1.15916000e+08
7450.000000 1.14772000e+08
7470.000000 1.13456000e+08
7490.000000 1.12488000e+08
7510.000000 1.11342000e+08
7530.000000 1.10253000e+08
7550.000000 1.09194000e+08
7570.000000 1.08118000e+08
7590.000000 1.07052000e+08
7610.000000 1.05950000e+08
7630.000000 1.04962000e+08
7650.000000 1.03944000e+08
7670.000000 1.02929000e+08
7690.000000 1.01929000e+08
7710.000000 1.00938000e+08
7730.000000 9.99561000e+07
7750.000000 9.90081000e+07
7770.000000 9.79499000e+07
7790.000000 9.71186000e+07
7810.000000 9.61339000e+07
7830.000000 9.52686000e+07
7850.000000 9.44231000e+07
7870.000000 9.34876000e+07
7890.000000 9.25180000e+07
7910.000000 9.17677000e+07
7930.000000 9.08681000e+07
7950.000000 8.99883000e+07
7970.000000 8.90450000e+07
7990.000000 8.82044000e+07
8010.000000 8.73534000e+07
8030.000000 8.65391000e+07
8050.000000 8.57782000e+07
8070.000000 8.50238000e+07
8090.000000 8.41032000e+07
8110.000000 8.32478000e+07
8130.000000 8.27134000e+07
8150.000000 8.18542000e+07
8170.000000 8.12282000e+07
8190.000000 8.03040000e+07
8210.000000 7.93878000e+07
8230.000000 7.87800000e+07
8250.000000 7.81992000e+07
8270.000000 7.70062000e+07
8290.000000 7.67118000e+07
8310.000000 7.60539000e+07
8330.000000 7.53471000e+07
8350.000000 7.43328000e+07
8370.000000 7.38650000e+07
8390.000000 7.33153000e+07
8410.000000 7.26421000e+07
8430.000000 7.19373000e+07
8450.000000 7.08321000e+07
8470.000000 7.05610000e+07
8490.000000 6.98997000e+07
8510.000000 6.90982000e+07
8530.000000 6.87435000e+07
8550.000000 6.72473000e+07
8570.000000 6.82417000e+07
8590.000000 6.56575000e+07
8610.000000 6.54189000e+07
8630.000000 6.69724000e+07
8650.000000 6.51626000e+07
8670.000000 6.14794000e+07
8690.000000 6.52775000e+07
8710.000000 6.54151000e+07
8730.000000 6.35586000e+07
8750.000000 5.81264000e+07
8770.000000 6.17801000e+07
8790.000000 6.34301000e+07
8810.000000 6.30503000e+07
8830.000000 6.22721000e+07
8850.000000 5.88116000e+07
8870.000000 5.48262000e+07
8890.000000 6.01760000e+07
8910.000000 6.04329000e+07
8930.000000 5.99782000e+07
8950.000000 5.96305000e+07
8970.000000 5.90325000e+07
8990.000000 5.74975000e+07
9010.000000 5.17712000e+07
9030.000000 5.41387000e+07
9050.000000 5.67377000e+07
9070.000000 5.61580000e+07
9090.000000 5.60935000e+07
9110.000000 5.58611000e+07
9130.000000 5.54359000e+07
9150.000000 5.49688000e+07
9170.000000 5.43037000e+07
9190.000000 5.37509000e+07
9210.000000 5.16035000e+07
9230.000000 4.61134000e+07
9250.000000 5.08631000e+07
9270.000000 5.18846000e+07
9290.000000 5.17749000e+07
9310.000000 5.12180000e+07
9330.000000 5.09511000e+07
9350.000000 5.05825000e+07
9370.000000 5.02080000e+07
9390.000000 4.98107000e+07
9410.000000 4.93822000e+07
9430.000000 4.89992000e+07
9450.000000 4.86022000e+07
9470.000000 4.79351000e+07
9490.000000 4.77123000e+07
9510.000000 4.67537000e+07
9530.000000 4.49358000e+07
9550.000000 4.04754000e+07
9570.000000 4.51121000e+07
9590.000000 4.56943000e+07
9610.000000 4.53778000e+07
9630.000000 4.49661000e+07
9650.000000 4.48770000e+07
9670.000000 4.45224000e+07
9690.000000 4.41341000e+07
9710.000000 4.36808000e+07
9730.000000 4.34815000e+07
9750.000000 4.31408000e+07
9770.000000 4.28065000e+07
9790.000000 4.24707000e+07
9810.000000 4.21293000e+07
9830.000000 4.18177000e+07
9850.000000 4.14889000e+07
9870.000000 4.11585000e+07
9890.000000 4.08266000e+07
9910.000000 4.04011000e+07
9930.000000 4.02270000e+07
9950.000000 3.99171000e+07
9970.000000 3.95979000e+07
9990.000000 3.92357000e+07
10025.000000 3.73518000e+07
10075.000000 3.61458000e+07
10125.000000 3.72078000e+07
10175.000000 3.66466000e+07
10225.000000 3.59503000e+07
10275.000000 3.52994000e+07
10325.000000 3.45223000e+07
10375.000000 3.40136000e+07
10425.000000 3.33928000e+07
10475.000000 3.27857000e+07
10525.000000 3.21899000e+07
10575.000000 3.16127000e+07
10625.000000 3.10459000e+07
10675.000000 3.04357000e+07
10725.000000 2.99499000e+07
10775.000000 2.94195000e+07
10825.000000 2.86037000e+07
10875.000000 2.83266000e+07
10925.000000 2.59039000e+07
10975.000000 2.69133000e+07
11025.000000 2.67698000e+07
11075.000000 2.64586000e+07
11125.000000 2.60198000e+07
11175.000000 2.55763000e+07
11225.000000 2.51283000e+07
11275.000000 2.47098000e+07
11325.000000 2.42865000e+07
11375.000000 2.38885000e+07
11425.000000 2.34851000e+07
11475.000000 2.30989000e+07
11525.000000 2.27160000e+07
11575.000000 2.23357000e+07
11625.000000 2.19711000e+07
11675.000000 2.16067000e+07
11725.000000 2.12603000e+07
11775.000000 2.09133000e+07
11825.000000 2.05755000e+07
11875.000000 2.02444000e+07
11925.000000 1.99195000e+07
11975.000000 1.94251000e+07
12025.000000 1.92882000e+07
12075.000000 1.89825000e+07
12125.000000 1.86820000e+07
12175.000000 1.83881000e+07
12225.000000 1.80996000e+07
12275.000000 1.78169000e+07
12325.000000 1.75395000e+07
12375.000000 1.72676000e+07
12425.000000 1.70013000e+07
12475.000000 1.67360000e+07
12525.000000 1.64476000e+07
12575.000000 1.62284000e+07
12625.000000 1.59824000e+07
12675.000000 1.57424000e+07
12725.000000 1.55035000e+07
12775.000000 1.50283000e+07
12825.000000 1.39761000e+07
12875.000000 1.47373000e+07
12925.000000 1.45971000e+07
12975.000000 1.42866000e+07
13025.000000 1.41675000e+07
13075.000000 1.39613000e+07
