# Kurucz ODFNEW /NOVER, alpha: 0.0 (2003)
# teff = 30000 K (value for the effective temperature for the model. Temperatures are given in K)
# logg = 4.5 log(cm/s2) (value for Log(G) for the model.)
# lh = 1.25  (l/Hp where l is the  mixing length of the convective element and Hp is the pressure scale height)
# meta = -0.5  (value for the Metallicity for the model.)
# vtur = 2 km/s (Microturbulence velocity)
# alpha = 0  (Alpha)
#
# column 1: WAVELENGTH (ANGSTROM), Wavelength in Angstrom
# column 2: FLUX (ERG/CM2/S/A), Flux in erg/cm2/s/A
147.200000 4.78635000e-09
151.000000 1.55678000e-08
155.200000 5.38606000e-08
158.800000 1.48677000e-07
162.000000 3.54049000e-07
166.000000 1.00172000e-06
170.300000 2.90671000e-06
173.400000 6.07527000e-06
176.800000 1.32429000e-05
180.200000 2.80528000e-05
181.700000 3.87194000e-05
186.100000 9.68735000e-05
191.000000 2.56144000e-04
193.900000 4.45035000e-04
198.400000 1.01574000e-03
201.800000 1.84899000e-03
205.000000 3.19025000e-03
210.500000 7.84088000e-03
216.200000 1.89572000e-02
219.800000 3.23283000e-02
223.000000 5.11955000e-02
226.800000 8.71033000e-02
230.000000 2.87881000e+01
234.000000 6.84898000e+01
240.000000 1.25511000e+02
246.500000 2.41498000e+02
252.400000 4.26565000e+02
256.800000 5.78980000e+02
260.000000 9.10114000e+02
264.000000 1.28058000e+03
268.500000 1.91029000e+03
273.500000 2.83778000e+03
278.500000 4.05861000e+03
284.000000 7.01930000e+03
290.000000 1.06223000e+04
296.000000 1.55742000e+04
301.000000 2.07569000e+04
308.000000 3.25981000e+04
318.000000 6.79070000e+04
328.000000 1.11821000e+05
338.000000 1.93868000e+05
348.000000 3.13848000e+05
357.000000 6.56865000e+05
366.000000 1.07333000e+06
375.000000 1.44766000e+06
385.000000 2.14450000e+06
395.000000 3.23380000e+06
405.000000 4.34023000e+06
414.000000 5.80801000e+06
422.000000 7.02840000e+06
430.000000 8.84896000e+06
441.000000 1.17435000e+07
451.000000 1.48591000e+07
460.000000 1.78484000e+07
470.000000 2.25628000e+07
480.000000 2.77544000e+07
490.000000 3.39370000e+07
500.000000 4.15156000e+07
506.000000 1.61382000e+08
512.000000 7.95928000e+08
520.000000 7.90045000e+08
530.000000 8.12027000e+08
540.000000 7.66314000e+08
550.000000 9.51675000e+08
560.000000 1.07082000e+09
570.000000 1.15518000e+09
580.000000 1.08201000e+09
590.000000 1.23452000e+09
600.000000 1.23034000e+09
610.000000 1.35363000e+09
620.000000 1.48202000e+09
630.000000 1.51432000e+09
640.000000 1.48162000e+09
650.000000 1.56916000e+09
658.000000 1.60571000e+09
665.000000 1.70805000e+09
675.000000 1.73835000e+09
685.000000 1.67833000e+09
695.000000 1.98713000e+09
705.000000 1.92047000e+09
716.000000 2.13983000e+09
726.000000 2.15112000e+09
735.000000 2.19207000e+09
745.000000 2.32503000e+09
755.000000 2.36992000e+09
765.000000 2.45430000e+09
775.000000 2.53545000e+09
785.000000 2.65289000e+09
795.000000 2.68588000e+09
805.000000 2.71316000e+09
815.000000 2.73337000e+09
825.000000 2.86882000e+09
835.000000 2.64117000e+09
845.000000 2.89512000e+09
855.000000 2.92860000e+09
865.000000 3.03010000e+09
875.000000 3.12268000e+09
885.000000 3.23187000e+09
895.000000 3.30312000e+09
905.000000 3.28931000e+09
915.000000 3.74545000e+09
925.000000 1.61232000e+10
935.000000 3.16505000e+10
945.000000 5.67652000e+10
955.000000 6.59011000e+10
965.000000 8.06395000e+10
975.000000 2.88785000e+10
985.000000 7.37015000e+10
995.000000 6.71284000e+10
1005.000000 7.13195000e+10
1015.000000 7.06122000e+10
1025.000000 4.03793000e+10
1035.000000 6.39883000e+10
1045.000000 7.70967000e+10
1055.000000 7.32152000e+10
1065.000000 6.36194000e+10
1075.000000 6.71357000e+10
1085.000000 6.08828000e+10
1095.000000 6.58650000e+10
1105.000000 6.24414000e+10
1115.000000 6.13324000e+10
1125.000000 5.27488000e+10
1135.000000 5.91227000e+10
1145.000000 5.47354000e+10
1155.000000 5.47264000e+10
1165.000000 5.34412000e+10
1175.000000 3.82999000e+10
1185.000000 4.92675000e+10
1195.000000 4.73515000e+10
1205.000000 4.24358000e+10
1215.000000 2.64742000e+10
1225.000000 4.26958000e+10
1235.000000 4.59493000e+10
1245.000000 4.44242000e+10
1255.000000 4.40539000e+10
1265.000000 4.41677000e+10
1275.000000 4.42609000e+10
1285.000000 4.36294000e+10
1295.000000 3.89483000e+10
1305.000000 3.95704000e+10
1315.000000 4.14109000e+10
1325.000000 3.94728000e+10
1335.000000 3.81945000e+10
1345.000000 3.78848000e+10
1355.000000 3.75370000e+10
1365.000000 3.57739000e+10
1375.000000 3.50422000e+10
1385.000000 3.41884000e+10
1395.000000 2.83899000e+10
1405.000000 2.91189000e+10
1415.000000 3.14671000e+10
1425.000000 2.94445000e+10
1435.000000 3.02448000e+10
1442.000000 3.04483000e+10
1447.000000 2.99468000e+10
1455.000000 2.89973000e+10
1465.000000 2.79797000e+10
1475.000000 2.77366000e+10
1485.000000 2.74139000e+10
1495.000000 2.66421000e+10
1505.000000 2.53262000e+10
1512.000000 2.41102000e+10
1517.000000 2.43182000e+10
1525.000000 2.40248000e+10
1535.000000 2.13033000e+10
1545.000000 2.03530000e+10
1555.000000 1.96963000e+10
1565.000000 2.07744000e+10
1575.000000 2.14302000e+10
1585.000000 2.13211000e+10
1595.000000 2.10872000e+10
1605.000000 2.01525000e+10
1615.000000 1.94328000e+10
1625.000000 1.95625000e+10
1635.000000 1.97720000e+10
1645.000000 1.92693000e+10
1655.000000 1.94731000e+10
1665.000000 1.92032000e+10
1672.000000 1.83878000e+10
1677.000000 1.98001000e+10
1685.000000 1.90765000e+10
1695.000000 1.84180000e+10
1705.000000 1.79188000e+10
1715.000000 1.72711000e+10
1725.000000 1.67904000e+10
1735.000000 1.70967000e+10
1745.000000 1.67900000e+10
1755.000000 1.66065000e+10
1765.000000 1.62363000e+10
1775.000000 1.57179000e+10
1785.000000 1.57456000e+10
1795.000000 1.56116000e+10
1805.000000 1.55593000e+10
1815.000000 1.48040000e+10
1825.000000 1.47881000e+10
1835.000000 1.45457000e+10
1845.000000 1.34920000e+10
1855.000000 1.35330000e+10
1865.000000 1.36179000e+10
1875.000000 1.35813000e+10
1885.000000 1.25883000e+10
1895.000000 1.19680000e+10
1905.000000 1.24707000e+10
1915.000000 1.19946000e+10
1925.000000 1.14281000e+10
1935.000000 1.18989000e+10
1945.000000 1.20537000e+10
1955.000000 1.10662000e+10
1967.000000 1.15022000e+10
1976.000000 1.18492000e+10
1984.000000 1.11700000e+10
1995.000000 1.08910000e+10
2005.000000 1.10066000e+10
2015.000000 1.09951000e+10
2025.000000 1.10429000e+10
2035.000000 1.04380000e+10
2045.000000 1.03559000e+10
2055.000000 9.44717000e+09
2065.000000 9.30377000e+09
2074.000000 9.57002000e+09
2078.000000 9.18598000e+09
2085.000000 9.35665000e+09
2095.000000 9.28728000e+09
2105.000000 9.59375000e+09
2115.000000 9.56135000e+09
2125.000000 9.52998000e+09
2135.000000 9.35248000e+09
2145.000000 9.08125000e+09
2155.000000 9.12939000e+09
2165.000000 8.95925000e+09
2175.000000 8.87387000e+09
2185.000000 8.70288000e+09
2195.000000 8.68866000e+09
2205.000000 8.56199000e+09
2215.000000 8.39425000e+09
2225.000000 8.28396000e+09
2235.000000 8.13156000e+09
2245.000000 8.07348000e+09
2255.000000 7.88127000e+09
2265.000000 7.84855000e+09
2275.000000 7.74331000e+09
2285.000000 7.62301000e+09
2295.000000 7.17335000e+09
2305.000000 7.35374000e+09
2315.000000 7.26645000e+09
2325.000000 7.17550000e+09
2335.000000 7.04715000e+09
2345.000000 7.00841000e+09
2355.000000 6.90758000e+09
2365.000000 6.81763000e+09
2375.000000 6.69689000e+09
2385.000000 6.56608000e+09
2395.000000 6.50223000e+09
2405.000000 6.43127000e+09
2415.000000 6.33743000e+09
2425.000000 6.26983000e+09
2435.000000 6.14975000e+09
2445.000000 6.08808000e+09
2455.000000 6.02033000e+09
2465.000000 5.94182000e+09
2475.000000 5.85301000e+09
2485.000000 5.76305000e+09
2495.000000 5.13663000e+09
2505.000000 5.57882000e+09
2513.000000 5.37483000e+09
2518.000000 5.46693000e+09
2525.000000 5.47607000e+09
2535.000000 5.41156000e+09
2545.000000 5.28030000e+09
2555.000000 5.23778000e+09
2565.000000 5.18826000e+09
2575.000000 5.12696000e+09
2585.000000 5.06606000e+09
2595.000000 5.00208000e+09
2605.000000 4.95942000e+09
2615.000000 4.88966000e+09
2625.000000 4.83460000e+09
2635.000000 4.77275000e+09
2645.000000 4.70355000e+09
2655.000000 4.64665000e+09
2665.000000 4.55175000e+09
2675.000000 4.49961000e+09
2685.000000 4.47860000e+09
2695.000000 4.36108000e+09
2705.000000 4.32890000e+09
2715.000000 4.28669000e+09
2725.000000 4.22368000e+09
2735.000000 4.17522000e+09
2745.000000 4.13781000e+09
2755.000000 4.09641000e+09
2765.000000 4.01726000e+09
2775.000000 4.01082000e+09
2785.000000 3.95375000e+09
2795.000000 3.84343000e+09
2805.000000 3.83982000e+09
2815.000000 3.82134000e+09
2825.000000 3.74486000e+09
2835.000000 3.67161000e+09
2845.000000 3.68611000e+09
2855.000000 3.63186000e+09
2865.000000 3.59306000e+09
2875.000000 3.55220000e+09
2885.000000 3.51205000e+09
2895.000000 3.46877000e+09
2910.000000 3.40067000e+09
2930.000000 3.33185000e+09
2950.000000 3.22959000e+09
2970.000000 3.17915000e+09
2990.000000 3.10208000e+09
3010.000000 3.01896000e+09
3030.000000 2.96446000e+09
3050.000000 2.90478000e+09
3070.000000 2.84615000e+09
3090.000000 2.75675000e+09
3110.000000 2.72016000e+09
3130.000000 2.65624000e+09
3150.000000 2.60075000e+09
3170.000000 2.54277000e+09
3190.000000 2.47559000e+09
3210.000000 2.43680000e+09
3230.000000 2.38447000e+09
3250.000000 2.33916000e+09
3270.000000 2.28855000e+09
3290.000000 2.23975000e+09
3310.000000 2.19705000e+09
3330.000000 2.14866000e+09
3350.000000 2.10384000e+09
3370.000000 2.06276000e+09
3390.000000 2.02495000e+09
3410.000000 1.98455000e+09
3430.000000 1.93855000e+09
3450.000000 1.89351000e+09
3470.000000 1.85967000e+09
3490.000000 1.82255000e+09
3510.000000 1.79015000e+09
3530.000000 1.75995000e+09
3550.000000 1.72505000e+09
3570.000000 1.70045000e+09
3590.000000 1.65397000e+09
3610.000000 1.62820000e+09
3630.000000 1.59384000e+09
3640.000000 1.59027000e+09
3650.000000 1.55510000e+09
3670.000000 1.53381000e+09
3690.000000 1.50486000e+09
3710.000000 1.45282000e+09
3730.000000 1.40149000e+09
3750.000000 1.40321000e+09
3770.000000 1.37387000e+09
3790.000000 1.42080000e+09
3810.000000 1.46390000e+09
3830.000000 1.29972000e+09
3850.000000 1.48211000e+09
3870.000000 1.47989000e+09
3890.000000 1.22386000e+09
3910.000000 1.45659000e+09
3930.000000 1.42802000e+09
3950.000000 1.40015000e+09
3970.000000 1.13385000e+09
3990.000000 1.34791000e+09
4010.000000 1.33940000e+09
4030.000000 1.26919000e+09
4050.000000 1.30303000e+09
4070.000000 1.25701000e+09
4090.000000 1.16811000e+09
4110.000000 1.04470000e+09
4130.000000 1.18987000e+09
4150.000000 1.18012000e+09
4170.000000 1.17134000e+09
4190.000000 1.15158000e+09
4210.000000 1.13588000e+09
4230.000000 1.11571000e+09
4250.000000 1.09036000e+09
4270.000000 1.06399000e+09
4290.000000 1.05017000e+09
4310.000000 1.02359000e+09
4330.000000 9.39387000e+08
4350.000000 8.63894000e+08
4370.000000 9.72416000e+08
4390.000000 9.47273000e+08
4410.000000 9.49451000e+08
4430.000000 9.37979000e+08
4450.000000 9.23137000e+08
4470.000000 8.74659000e+08
4490.000000 8.92934000e+08
4510.000000 8.81309000e+08
4530.000000 8.67449000e+08
4550.000000 8.51579000e+08
4570.000000 8.38279000e+08
4590.000000 8.24034000e+08
4610.000000 8.09879000e+08
4630.000000 7.96624000e+08
4650.000000 7.71544000e+08
4670.000000 7.71566000e+08
4690.000000 7.59347000e+08
4710.000000 7.37730000e+08
4730.000000 7.38661000e+08
4750.000000 7.26192000e+08
4770.000000 7.18824000e+08
4790.000000 7.07333000e+08
4810.000000 6.94592000e+08
4830.000000 6.79372000e+08
4850.000000 6.33245000e+08
4870.000000 5.71871000e+08
4890.000000 6.48545000e+08
4910.000000 6.42631000e+08
4930.000000 6.20471000e+08
4950.000000 6.23939000e+08
4970.000000 6.17326000e+08
4990.000000 6.07924000e+08
5010.000000 5.89136000e+08
5030.000000 5.89776000e+08
5050.000000 5.78127000e+08
5070.000000 5.73208000e+08
5090.000000 5.64539000e+08
5110.000000 5.56234000e+08
5130.000000 5.47424000e+08
5150.000000 5.39686000e+08
5170.000000 5.32489000e+08
5190.000000 5.25288000e+08
5210.000000 5.17765000e+08
5230.000000 5.10452000e+08
5250.000000 5.03222000e+08
5270.000000 4.95978000e+08
5290.000000 4.89300000e+08
5310.000000 4.82401000e+08
5330.000000 4.75764000e+08
5350.000000 4.69067000e+08
5370.000000 4.62771000e+08
5390.000000 4.56218000e+08
5410.000000 4.49569000e+08
5430.000000 4.43951000e+08
5450.000000 4.37819000e+08
5470.000000 4.31891000e+08
5490.000000 4.26050000e+08
5510.000000 4.20481000e+08
5530.000000 4.14637000e+08
5550.000000 4.09293000e+08
5570.000000 4.03785000e+08
5590.000000 3.98429000e+08
5610.000000 3.93187000e+08
5630.000000 3.88034000e+08
5650.000000 3.82671000e+08
5670.000000 3.77094000e+08
5690.000000 3.71096000e+08
5710.000000 3.67554000e+08
5730.000000 3.62996000e+08
5750.000000 3.57706000e+08
5770.000000 3.53839000e+08
5790.000000 3.49207000e+08
5810.000000 3.44754000e+08
5830.000000 3.40021000e+08
5850.000000 3.35905000e+08
5870.000000 3.22315000e+08
5890.000000 3.26157000e+08
5910.000000 3.23112000e+08
5930.000000 3.18911000e+08
5950.000000 3.14909000e+08
5970.000000 3.11513000e+08
5990.000000 3.07273000e+08
6010.000000 3.03698000e+08
6030.000000 2.99781000e+08
6050.000000 2.96186000e+08
6070.000000 2.92683000e+08
6090.000000 2.89088000e+08
6110.000000 2.85554000e+08
6130.000000 2.82109000e+08
6150.000000 2.78345000e+08
6170.000000 2.75089000e+08
6190.000000 2.71918000e+08
6210.000000 2.68704000e+08
6230.000000 2.65487000e+08
6250.000000 2.62189000e+08
6270.000000 2.59130000e+08
6290.000000 2.56085000e+08
6310.000000 2.52997000e+08
6330.000000 2.50066000e+08
6350.000000 2.47017000e+08
6370.000000 2.44206000e+08
6390.000000 2.41314000e+08
6410.000000 2.38499000e+08
6430.000000 2.35751000e+08
6450.000000 2.32997000e+08
6470.000000 2.30029000e+08
6490.000000 2.27459000e+08
6510.000000 2.24873000e+08
6530.000000 2.21368000e+08
6550.000000 2.12379000e+08
6570.000000 1.89923000e+08
6590.000000 2.12246000e+08
6610.000000 2.11990000e+08
6630.000000 2.10018000e+08
6650.000000 2.07658000e+08
6670.000000 2.03417000e+08
6690.000000 2.01176000e+08
6710.000000 2.00823000e+08
6730.000000 1.98400000e+08
6750.000000 1.96400000e+08
6770.000000 1.94238000e+08
6790.000000 1.91657000e+08
6810.000000 1.89900000e+08
6830.000000 1.87796000e+08
6850.000000 1.85793000e+08
6870.000000 1.83755000e+08
6890.000000 1.81651000e+08
6910.000000 1.79606000e+08
6930.000000 1.77826000e+08
6950.000000 1.75907000e+08
6970.000000 1.74007000e+08
6990.000000 1.72126000e+08
7010.000000 1.70279000e+08
7030.000000 1.68427000e+08
7050.000000 1.66647000e+08
7070.000000 1.62435000e+08
7090.000000 1.63123000e+08
7110.000000 1.61357000e+08
7130.000000 1.59668000e+08
7150.000000 1.58009000e+08
7170.000000 1.56323000e+08
7190.000000 1.54704000e+08
7210.000000 1.53086000e+08
7230.000000 1.50496000e+08
7250.000000 1.49803000e+08
7270.000000 1.48353000e+08
7290.000000 1.45711000e+08
7310.000000 1.45281000e+08
7330.000000 1.43795000e+08
7350.000000 1.42323000e+08
7370.000000 1.40872000e+08
7390.000000 1.39435000e+08
7410.000000 1.38011000e+08
7430.000000 1.36607000e+08
7450.000000 1.35236000e+08
7470.000000 1.33683000e+08
7490.000000 1.32493000e+08
7510.000000 1.31140000e+08
7530.000000 1.29840000e+08
7550.000000 1.28565000e+08
7570.000000 1.27282000e+08
7590.000000 1.26010000e+08
7610.000000 1.24692000e+08
7630.000000 1.23515000e+08
7650.000000 1.22303000e+08
7670.000000 1.21096000e+08
7690.000000 1.19900000e+08
7710.000000 1.18721000e+08
7730.000000 1.17540000e+08
7750.000000 1.16420000e+08
7770.000000 1.15235000e+08
7790.000000 1.14166000e+08
7810.000000 1.13008000e+08
7830.000000 1.11964000e+08
7850.000000 1.10966000e+08
7870.000000 1.09837000e+08
7890.000000 1.08706000e+08
7910.000000 1.07784000e+08
7930.000000 1.06720000e+08
7950.000000 1.05713000e+08
7970.000000 1.04637000e+08
7990.000000 1.03683000e+08
8010.000000 1.02655000e+08
8030.000000 1.01659000e+08
8050.000000 1.00707000e+08
8070.000000 9.97807000e+07
8090.000000 9.86950000e+07
8110.000000 9.76762000e+07
8130.000000 9.70252000e+07
8150.000000 9.60278000e+07
8170.000000 9.52534000e+07
8190.000000 9.41541000e+07
8210.000000 9.31035000e+07
8230.000000 9.23456000e+07
8250.000000 9.16438000e+07
8270.000000 9.03143000e+07
8290.000000 8.99174000e+07
8310.000000 8.91469000e+07
8330.000000 8.82958000e+07
8350.000000 8.71331000e+07
8370.000000 8.65774000e+07
8390.000000 8.59189000e+07
8410.000000 8.51273000e+07
8430.000000 8.43315000e+07
8450.000000 8.30570000e+07
8470.000000 8.27965000e+07
8490.000000 8.18842000e+07
8510.000000 8.11720000e+07
8530.000000 8.03983000e+07
8550.000000 7.93475000e+07
8570.000000 7.94906000e+07
8590.000000 7.71348000e+07
8610.000000 7.70208000e+07
8630.000000 7.78023000e+07
8650.000000 7.58972000e+07
8670.000000 7.30566000e+07
8690.000000 7.57339000e+07
8710.000000 7.57987000e+07
8730.000000 7.37019000e+07
8750.000000 6.87302000e+07
8770.000000 7.16352000e+07
8790.000000 7.34549000e+07
8810.000000 7.31267000e+07
8830.000000 7.20903000e+07
8850.000000 6.80419000e+07
8870.000000 6.41442000e+07
8890.000000 6.95093000e+07
8910.000000 7.00898000e+07
8930.000000 6.96628000e+07
8950.000000 6.92295000e+07
8970.000000 6.84482000e+07
8990.000000 6.64333000e+07
9010.000000 6.00966000e+07
9030.000000 6.23625000e+07
9050.000000 6.56014000e+07
9070.000000 6.51017000e+07
9090.000000 6.51165000e+07
9110.000000 6.48853000e+07
9130.000000 6.43980000e+07
9150.000000 6.37703000e+07
9170.000000 6.29727000e+07
9190.000000 6.22261000e+07
9210.000000 5.94335000e+07
9230.000000 5.32772000e+07
9250.000000 5.84495000e+07
9270.000000 6.00651000e+07
9290.000000 5.99988000e+07
9310.000000 5.94110000e+07
9330.000000 5.91522000e+07
9350.000000 5.86926000e+07
9370.000000 5.82707000e+07
9390.000000 5.78048000e+07
9410.000000 5.73169000e+07
9430.000000 5.68495000e+07
9450.000000 5.63813000e+07
9470.000000 5.55175000e+07
9490.000000 5.52544000e+07
9510.000000 5.40309000e+07
9530.000000 5.15810000e+07
9550.000000 4.65199000e+07
9570.000000 5.18006000e+07
9590.000000 5.28137000e+07
9610.000000 5.25451000e+07
9630.000000 5.20915000e+07
9650.000000 5.20255000e+07
9670.000000 5.16131000e+07
9690.000000 5.11595000e+07
9710.000000 5.05893000e+07
9730.000000 5.03895000e+07
9750.000000 4.99928000e+07
9770.000000 4.96028000e+07
9790.000000 4.92117000e+07
9810.000000 4.88077000e+07
9830.000000 4.84455000e+07
9850.000000 4.80587000e+07
9870.000000 4.76747000e+07
9890.000000 4.72856000e+07
9910.000000 4.67958000e+07
9930.000000 4.65807000e+07
9950.000000 4.62186000e+07
9970.000000 4.58097000e+07
9990.000000 4.53509000e+07
10025.000000 4.29132000e+07
10075.000000 4.15270000e+07
10125.000000 4.29737000e+07
10175.000000 4.23959000e+07
10225.000000 4.15823000e+07
10275.000000 4.08253000e+07
10325.000000 3.99079000e+07
10375.000000 3.93212000e+07
10425.000000 3.85983000e+07
10475.000000 3.78907000e+07
10525.000000 3.71949000e+07
10575.000000 3.65206000e+07
10625.000000 3.58607000e+07
10675.000000 3.51520000e+07
10725.000000 3.45826000e+07
10775.000000 3.39639000e+07
10825.000000 3.30336000e+07
10875.000000 3.26254000e+07
10925.000000 2.96300000e+07
10975.000000 3.08485000e+07
11025.000000 3.08511000e+07
11075.000000 3.05043000e+07
11125.000000 3.00049000e+07
11175.000000 2.94893000e+07
11225.000000 2.89695000e+07
11275.000000 2.84849000e+07
11325.000000 2.79907000e+07
11375.000000 2.75257000e+07
11425.000000 2.70578000e+07
11475.000000 2.66077000e+07
11525.000000 2.61632000e+07
11575.000000 2.57222000e+07
11625.000000 2.52966000e+07
11675.000000 2.48717000e+07
11725.000000 2.44723000e+07
11775.000000 2.40704000e+07
11825.000000 2.36768000e+07
11875.000000 2.32927000e+07
11925.000000 2.29152000e+07
11975.000000 2.23084000e+07
12025.000000 2.21829000e+07
12075.000000 2.18283000e+07
12125.000000 2.14800000e+07
12175.000000 2.11390000e+07
12225.000000 2.08046000e+07
12275.000000 2.04772000e+07
12325.000000 2.01556000e+07
12375.000000 1.98403000e+07
12425.000000 1.95319000e+07
12475.000000 1.92258000e+07
12525.000000 1.88901000e+07
12575.000000 1.86375000e+07
12625.000000 1.83521000e+07
12675.000000 1.80742000e+07
12725.000000 1.77819000e+07
12775.000000 1.71947000e+07
12825.000000 1.58811000e+07
12875.000000 1.68666000e+07
12925.000000 1.67395000e+07
12975.000000 1.63802000e+07
13025.000000 1.62512000e+07
13075.000000 1.60136000e+07
