# Kurucz ODFNEW /NOVER, alpha: 0.0 (2003)
# teff = 10000 K (value for the effective temperature for the model. Temperatures are given in K)
# logg = 4.5 log(cm/s2) (value for Log(G) for the model.)
# lh = 1.25  (l/Hp where l is the  mixing length of the convective element and Hp is the pressure scale height)
# meta = 0.2  (value for the Metallicity for the model.)
# vtur = 2 km/s (Microturbulence velocity)
# alpha = 0  (Alpha)
#
# column 1: WAVELENGTH (ANGSTROM), Wavelength in Angstrom
# column 2: FLUX (ERG/CM2/S/A), Flux in erg/cm2/s/A
268.500000 2.59449000e-23
273.500000 1.19497000e-22
278.500000 4.69373000e-22
284.000000 1.91994000e-21
290.000000 8.35614000e-21
296.000000 3.42894000e-20
301.000000 1.07246000e-19
308.000000 5.01054000e-19
318.000000 4.05736000e-18
328.000000 2.92506000e-17
338.000000 1.89288000e-16
348.000000 1.10918000e-15
357.000000 5.04783000e-15
366.000000 2.14601000e-14
375.000000 8.52902000e-14
385.000000 3.67643000e-13
395.000000 1.48074000e-12
405.000000 5.58646000e-12
414.000000 1.74840000e-11
422.000000 4.63159000e-11
430.000000 1.18599000e-10
441.000000 4.09678000e-10
451.000000 1.19812000e-09
460.000000 3.02594000e-09
470.000000 8.14104000e-09
480.000000 2.09965000e-08
490.000000 5.20690000e-08
500.000000 1.24453000e-07
506.000000 2.32657000e-07
512.000000 3.96211000e-07
520.000000 7.40571000e-07
530.000000 1.58363000e-06
540.000000 3.27610000e-06
550.000000 6.62919000e-06
560.000000 1.30546000e-05
570.000000 2.51269000e-05
580.000000 4.71360000e-05
590.000000 8.68415000e-05
600.000000 1.56405000e-04
610.000000 2.76528000e-04
620.000000 4.79350000e-04
630.000000 8.15915000e-04
640.000000 1.36574000e-03
650.000000 2.24923000e-03
658.000000 3.31358000e-03
665.000000 4.61267000e-03
675.000000 7.30870000e-03
685.000000 1.14225000e-02
695.000000 1.76094000e-02
705.000000 2.67851000e-02
716.000000 4.19053000e-02
726.000000 6.21593000e-02
735.000000 8.77623000e-02
745.000000 1.27397000e-01
755.000000 1.83003000e-01
765.000000 2.60249000e-01
775.000000 3.66477000e-01
785.000000 5.11156000e-01
795.000000 7.06519000e-01
805.000000 9.68122000e-01
815.000000 1.31561000e+00
825.000000 1.77310000e+00
835.000000 2.37128000e+00
845.000000 3.14748000e+00
855.000000 4.14728000e+00
865.000000 5.42619000e+00
875.000000 7.05262000e+00
885.000000 9.10625000e+00
895.000000 1.16839000e+01
905.000000 1.48990000e+01
915.000000 2.11330000e+02
925.000000 1.47385000e+03
935.000000 2.33792000e+03
945.000000 3.59684000e+03
955.000000 5.07455000e+03
965.000000 6.54283000e+03
975.000000 5.99280000e+03
985.000000 8.79789000e+03
995.000000 9.58010000e+03
1005.000000 1.19607000e+04
1015.000000 1.37714000e+04
1025.000000 1.15128000e+04
1035.000000 1.77507000e+04
1045.000000 2.09463000e+04
1055.000000 2.39436000e+04
1065.000000 2.62499000e+04
1075.000000 3.09038000e+04
1085.000000 3.50096000e+04
1095.000000 3.78952000e+04
1105.000000 6.23766000e+04
1115.000000 2.12133000e+05
1125.000000 3.71156000e+05
1135.000000 6.25677000e+05
1145.000000 6.12870000e+05
1155.000000 7.57709000e+05
1165.000000 8.00494000e+05
1175.000000 6.04131000e+05
1185.000000 4.66410000e+05
1195.000000 1.91469000e+05
1205.000000 1.94744000e+05
1215.000000 4.62521000e+04
1225.000000 2.01100000e+05
1235.000000 4.12736000e+05
1245.000000 8.08594000e+05
1255.000000 6.64564000e+06
1265.000000 1.02472000e+07
1275.000000 2.57653000e+07
1285.000000 4.56805000e+07
1295.000000 4.82193000e+07
1305.000000 2.20039000e+07
1315.000000 5.33583000e+07
1325.000000 6.57658000e+07
1335.000000 6.08356000e+07
1345.000000 8.00825000e+07
1355.000000 7.35761000e+07
1365.000000 6.55810000e+07
1375.000000 7.34718000e+07
1385.000000 6.49674000e+07
1395.000000 6.99012000e+07
1405.000000 7.68869000e+07
1415.000000 7.68069000e+07
1425.000000 8.93835000e+07
1435.000000 7.64061000e+07
1442.000000 9.24683000e+07
1447.000000 1.00465000e+08
1455.000000 1.01269000e+08
1465.000000 9.13412000e+07
1475.000000 8.79683000e+07
1485.000000 9.50816000e+07
1495.000000 1.06496000e+08
1505.000000 1.07810000e+08
1512.000000 9.31432000e+07
1517.000000 1.06488000e+08
1525.000000 9.95724000e+07
1535.000000 1.00847000e+08
1545.000000 1.28339000e+08
1555.000000 9.32341000e+07
1565.000000 7.97566000e+07
1575.000000 1.10629000e+08
1585.000000 1.32278000e+08
1595.000000 1.44521000e+08
1605.000000 1.38103000e+08
1615.000000 1.35084000e+08
1625.000000 1.14755000e+08
1635.000000 1.19543000e+08
1645.000000 1.40862000e+08
1655.000000 1.06872000e+08
1665.000000 1.36397000e+08
1672.000000 8.93154000e+07
1677.000000 1.29461000e+08
1685.000000 1.47827000e+08
1695.000000 1.26369000e+08
1705.000000 1.22796000e+08
1715.000000 1.23718000e+08
1725.000000 1.21489000e+08
1735.000000 1.32571000e+08
1745.000000 1.29188000e+08
1755.000000 1.45541000e+08
1765.000000 1.16827000e+08
1775.000000 1.36923000e+08
1785.000000 1.35724000e+08
1795.000000 1.51965000e+08
1805.000000 1.41035000e+08
1815.000000 1.40618000e+08
1825.000000 1.33233000e+08
1835.000000 1.27623000e+08
1845.000000 1.15575000e+08
1855.000000 1.24481000e+08
1865.000000 1.26225000e+08
1875.000000 1.31655000e+08
1885.000000 1.29541000e+08
1895.000000 1.30244000e+08
1905.000000 1.21582000e+08
1915.000000 1.29459000e+08
1925.000000 1.30608000e+08
1935.000000 1.23094000e+08
1945.000000 1.33034000e+08
1955.000000 1.30770000e+08
1967.000000 1.36911000e+08
1976.000000 1.34875000e+08
1984.000000 1.29799000e+08
1995.000000 1.25058000e+08
2005.000000 1.22399000e+08
2015.000000 1.16112000e+08
2025.000000 1.16180000e+08
2035.000000 1.20399000e+08
2045.000000 1.26125000e+08
2055.000000 1.19325000e+08
2065.000000 1.16953000e+08
2074.000000 1.24208000e+08
2078.000000 1.27691000e+08
2085.000000 1.25041000e+08
2095.000000 1.19859000e+08
2105.000000 1.15229000e+08
2115.000000 1.15354000e+08
2125.000000 1.17725000e+08
2135.000000 9.85581000e+07
2145.000000 1.11266000e+08
2155.000000 1.12442000e+08
2165.000000 1.05892000e+08
2175.000000 1.04013000e+08
2185.000000 1.04878000e+08
2195.000000 1.10962000e+08
2205.000000 1.05890000e+08
2215.000000 9.62897000e+07
2225.000000 9.43379000e+07
2235.000000 1.05789000e+08
2245.000000 9.43314000e+07
2255.000000 9.15407000e+07
2265.000000 9.27242000e+07
2275.000000 9.83527000e+07
2285.000000 1.01772000e+08
2295.000000 9.51654000e+07
2305.000000 9.27390000e+07
2315.000000 8.91347000e+07
2325.000000 8.83208000e+07
2335.000000 8.27154000e+07
2345.000000 7.61813000e+07
2355.000000 8.81431000e+07
2365.000000 7.66697000e+07
2375.000000 8.16958000e+07
2385.000000 7.11572000e+07
2395.000000 7.92074000e+07
2405.000000 7.48245000e+07
2415.000000 7.71775000e+07
2425.000000 8.30254000e+07
2435.000000 7.89329000e+07
2445.000000 8.46787000e+07
2455.000000 8.12900000e+07
2465.000000 8.11773000e+07
2475.000000 7.74169000e+07
2485.000000 8.16268000e+07
2495.000000 7.82928000e+07
2505.000000 8.75270000e+07
2513.000000 7.73483000e+07
2518.000000 7.90141000e+07
2525.000000 7.32704000e+07
2535.000000 7.21952000e+07
2545.000000 7.15300000e+07
2555.000000 7.68345000e+07
2565.000000 7.64313000e+07
2575.000000 8.24011000e+07
2585.000000 8.24357000e+07
2595.000000 8.05540000e+07
2605.000000 7.69222000e+07
2615.000000 7.58778000e+07
2625.000000 8.11836000e+07
2635.000000 8.13444000e+07
2645.000000 9.06872000e+07
2655.000000 8.92999000e+07
2665.000000 8.07858000e+07
2675.000000 8.49002000e+07
2685.000000 8.39815000e+07
2695.000000 8.04185000e+07
2705.000000 8.25589000e+07
2715.000000 7.81188000e+07
2725.000000 7.89366000e+07
2735.000000 8.50486000e+07
2745.000000 7.17758000e+07
2755.000000 7.25959000e+07
2765.000000 7.48558000e+07
2775.000000 8.05548000e+07
2785.000000 7.80540000e+07
2795.000000 5.72808000e+07
2805.000000 6.55588000e+07
2815.000000 8.19568000e+07
2825.000000 8.35065000e+07
2835.000000 7.98530000e+07
2845.000000 7.66675000e+07
2855.000000 7.41486000e+07
2865.000000 7.95296000e+07
2875.000000 7.70083000e+07
2885.000000 7.85303000e+07
2895.000000 7.51659000e+07
2910.000000 8.31615000e+07
2930.000000 7.94235000e+07
2950.000000 7.91251000e+07
2970.000000 8.01387000e+07
2990.000000 8.03090000e+07
3010.000000 8.13286000e+07
3030.000000 8.00902000e+07
3050.000000 7.91365000e+07
3070.000000 7.81807000e+07
3090.000000 7.88882000e+07
3110.000000 7.67785000e+07
3130.000000 7.63311000e+07
3150.000000 7.71455000e+07
3170.000000 7.64038000e+07
3190.000000 7.33645000e+07
3210.000000 7.46103000e+07
3230.000000 7.28514000e+07
3250.000000 7.34734000e+07
3270.000000 7.34864000e+07
3290.000000 7.37651000e+07
3310.000000 7.37635000e+07
3330.000000 7.20749000e+07
3350.000000 7.08476000e+07
3370.000000 7.06395000e+07
3390.000000 6.99592000e+07
3410.000000 7.07382000e+07
3430.000000 7.03416000e+07
3450.000000 6.96613000e+07
3470.000000 6.86979000e+07
3490.000000 6.82499000e+07
3510.000000 6.86486000e+07
3530.000000 6.84655000e+07
3550.000000 6.82612000e+07
3570.000000 6.68807000e+07
3590.000000 6.64065000e+07
3610.000000 6.60052000e+07
3630.000000 6.56687000e+07
3640.000000 6.52487000e+07
3650.000000 6.62659000e+07
3670.000000 6.59540000e+07
3690.000000 6.40928000e+07
3710.000000 6.30259000e+07
3730.000000 6.13716000e+07
3750.000000 7.28544000e+07
3770.000000 7.68758000e+07
3790.000000 9.55665000e+07
3810.000000 1.13428000e+08
3830.000000 8.91686000e+07
3850.000000 1.26305000e+08
3870.000000 1.46497000e+08
3890.000000 7.70084000e+07
3910.000000 1.46162000e+08
3930.000000 1.53756000e+08
3950.000000 1.46022000e+08
3970.000000 7.34891000e+07
3990.000000 1.38589000e+08
4010.000000 1.59947000e+08
4030.000000 1.60087000e+08
4050.000000 1.58099000e+08
4070.000000 1.48484000e+08
4090.000000 1.08381000e+08
4110.000000 8.12466000e+07
4130.000000 1.37829000e+08
4150.000000 1.47653000e+08
4170.000000 1.46981000e+08
4190.000000 1.45526000e+08
4210.000000 1.44038000e+08
4230.000000 1.40862000e+08
4250.000000 1.39072000e+08
4270.000000 1.35169000e+08
4290.000000 1.33893000e+08
4310.000000 1.23402000e+08
4330.000000 8.74244000e+07
4350.000000 7.39184000e+07
4370.000000 1.18746000e+08
4390.000000 1.23365000e+08
4410.000000 1.23748000e+08
4430.000000 1.22362000e+08
4450.000000 1.22836000e+08
4470.000000 1.21031000e+08
4490.000000 1.17866000e+08
4510.000000 1.18358000e+08
4530.000000 1.16232000e+08
4550.000000 1.13578000e+08
4570.000000 1.14089000e+08
4590.000000 1.11634000e+08
4610.000000 1.11985000e+08
4630.000000 1.08867000e+08
4650.000000 1.09005000e+08
4670.000000 1.07404000e+08
4690.000000 1.04609000e+08
4710.000000 1.01075000e+08
4730.000000 1.03133000e+08
4750.000000 1.01809000e+08
4770.000000 1.00331000e+08
4790.000000 9.86136000e+07
4810.000000 9.57370000e+07
4830.000000 8.96410000e+07
4850.000000 6.62986000e+07
4870.000000 5.34702000e+07
4890.000000 8.34341000e+07
4910.000000 8.93908000e+07
4930.000000 8.90855000e+07
4950.000000 8.93450000e+07
4970.000000 8.89247000e+07
4990.000000 8.75068000e+07
5010.000000 8.53116000e+07
5030.000000 8.52182000e+07
5050.000000 8.35489000e+07
5070.000000 8.36561000e+07
5090.000000 8.26684000e+07
5110.000000 8.16460000e+07
5130.000000 8.06800000e+07
5150.000000 7.93458000e+07
5170.000000 7.75393000e+07
5190.000000 7.68687000e+07
5210.000000 7.66391000e+07
5230.000000 7.51203000e+07
5250.000000 7.51805000e+07
5270.000000 7.30659000e+07
5290.000000 7.34784000e+07
5310.000000 7.19813000e+07
5330.000000 7.10284000e+07
5350.000000 7.10709000e+07
5370.000000 7.00552000e+07
5390.000000 6.92963000e+07
5410.000000 6.81516000e+07
5430.000000 6.76684000e+07
5450.000000 6.71625000e+07
5470.000000 6.63575000e+07
5490.000000 6.56824000e+07
5510.000000 6.49422000e+07
5530.000000 6.41271000e+07
5550.000000 6.35826000e+07
5570.000000 6.28415000e+07
5590.000000 6.21780000e+07
5610.000000 6.16038000e+07
5630.000000 6.09636000e+07
5650.000000 6.02000000e+07
5670.000000 5.95276000e+07
5690.000000 5.89691000e+07
5710.000000 5.83568000e+07
5730.000000 5.77918000e+07
5750.000000 5.70897000e+07
5770.000000 5.65090000e+07
5790.000000 5.58620000e+07
5810.000000 5.53062000e+07
5830.000000 5.47345000e+07
5850.000000 5.41649000e+07
5870.000000 5.35188000e+07
5890.000000 5.26032000e+07
5910.000000 5.24538000e+07
5930.000000 5.19313000e+07
5950.000000 5.12624000e+07
5970.000000 5.08096000e+07
5990.000000 5.01780000e+07
6010.000000 4.96912000e+07
6030.000000 4.92720000e+07
6050.000000 4.87275000e+07
6070.000000 4.82781000e+07
6090.000000 4.77787000e+07
6110.000000 4.72757000e+07
6130.000000 4.67542000e+07
6150.000000 4.57334000e+07
6170.000000 4.57670000e+07
6190.000000 4.54176000e+07
6210.000000 4.49565000e+07
6230.000000 4.44655000e+07
6250.000000 4.37503000e+07
6270.000000 4.36345000e+07
6290.000000 4.32013000e+07
6310.000000 4.26885000e+07
6330.000000 4.23186000e+07
6350.000000 4.14788000e+07
6370.000000 4.12317000e+07
6390.000000 4.10617000e+07
6410.000000 4.05684000e+07
6430.000000 4.01797000e+07
6450.000000 3.94618000e+07
6470.000000 3.92948000e+07
6490.000000 3.86397000e+07
6510.000000 3.79306000e+07
6530.000000 3.62983000e+07
6550.000000 3.06283000e+07
6570.000000 2.47840000e+07
6590.000000 3.38100000e+07
6610.000000 3.58354000e+07
6630.000000 3.61064000e+07
6650.000000 3.59841000e+07
6670.000000 3.57237000e+07
6690.000000 3.54582000e+07
6710.000000 3.51861000e+07
6730.000000 3.48284000e+07
6750.000000 3.45330000e+07
6770.000000 3.42602000e+07
6790.000000 3.39296000e+07
6810.000000 3.36242000e+07
6830.000000 3.32790000e+07
6850.000000 3.29894000e+07
6870.000000 3.26970000e+07
6890.000000 3.24051000e+07
6910.000000 3.20994000e+07
6930.000000 3.17920000e+07
6950.000000 3.15142000e+07
6970.000000 3.12242000e+07
6990.000000 3.09548000e+07
7010.000000 3.05737000e+07
7030.000000 3.03756000e+07
7050.000000 3.00914000e+07
7070.000000 2.98467000e+07
7090.000000 2.95909000e+07
7110.000000 2.90655000e+07
7130.000000 2.90071000e+07
7150.000000 2.87500000e+07
7170.000000 2.85283000e+07
7190.000000 2.82707000e+07
7210.000000 2.80300000e+07
7230.000000 2.77706000e+07
7250.000000 2.74857000e+07
7270.000000 2.73012000e+07
7290.000000 2.70375000e+07
7310.000000 2.68059000e+07
7330.000000 2.65848000e+07
7350.000000 2.63691000e+07
7370.000000 2.61444000e+07
7390.000000 2.59017000e+07
7410.000000 2.56557000e+07
7430.000000 2.53485000e+07
7450.000000 2.51814000e+07
7470.000000 2.48820000e+07
7490.000000 2.47412000e+07
7510.000000 2.45642000e+07
7530.000000 2.43820000e+07
7550.000000 2.41922000e+07
7570.000000 2.39817000e+07
7590.000000 2.37836000e+07
7610.000000 2.35885000e+07
7630.000000 2.33815000e+07
7650.000000 2.31719000e+07
7670.000000 2.29634000e+07
7690.000000 2.27824000e+07
7710.000000 2.25870000e+07
7730.000000 2.24205000e+07
7750.000000 2.22290000e+07
7770.000000 2.15962000e+07
7790.000000 2.18697000e+07
7810.000000 2.16911000e+07
7830.000000 2.14895000e+07
7850.000000 2.12768000e+07
7870.000000 2.10368000e+07
7890.000000 2.08165000e+07
7910.000000 2.07554000e+07
7930.000000 2.06191000e+07
7950.000000 2.03432000e+07
7970.000000 2.03124000e+07
7990.000000 1.99069000e+07
8010.000000 1.99761000e+07
8030.000000 1.98055000e+07
8050.000000 1.96572000e+07
8070.000000 1.94910000e+07
8090.000000 1.93384000e+07
8110.000000 1.91858000e+07
8130.000000 1.90443000e+07
8150.000000 1.88936000e+07
8170.000000 1.87453000e+07
8190.000000 1.84731000e+07
8210.000000 1.83820000e+07
8230.000000 1.82127000e+07
8250.000000 1.81439000e+07
8270.000000 1.81345000e+07
8290.000000 1.79775000e+07
8310.000000 1.78637000e+07
8330.000000 1.76451000e+07
8350.000000 1.76028000e+07
8370.000000 1.74811000e+07
8390.000000 1.73358000e+07
8410.000000 1.71959000e+07
8430.000000 1.70344000e+07
8450.000000 1.66705000e+07
8470.000000 1.66459000e+07
8490.000000 1.66136000e+07
8510.000000 1.60929000e+07
8530.000000 1.64276000e+07
8550.000000 1.53104000e+07
8570.000000 1.63869000e+07
8590.000000 1.54336000e+07
8610.000000 1.51465000e+07
8630.000000 1.63147000e+07
8650.000000 1.55727000e+07
8670.000000 1.34170000e+07
8690.000000 1.57404000e+07
8710.000000 1.63788000e+07
8730.000000 1.55590000e+07
8750.000000 1.25371000e+07
8770.000000 1.47243000e+07
8790.000000 1.62610000e+07
8810.000000 1.64445000e+07
8830.000000 1.58164000e+07
8850.000000 1.37729000e+07
8870.000000 1.18482000e+07
8890.000000 1.48557000e+07
8910.000000 1.58568000e+07
8930.000000 1.60769000e+07
8950.000000 1.60968000e+07
8970.000000 1.56501000e+07
8990.000000 1.45019000e+07
9010.000000 1.14648000e+07
9030.000000 1.24258000e+07
9050.000000 1.45701000e+07
9070.000000 1.50060000e+07
9090.000000 1.50490000e+07
9110.000000 1.52703000e+07
9130.000000 1.52365000e+07
9150.000000 1.51182000e+07
9170.000000 1.48113000e+07
9190.000000 1.41867000e+07
9210.000000 1.27683000e+07
9230.000000 1.00173000e+07
9250.000000 1.22130000e+07
9270.000000 1.34019000e+07
9290.000000 1.41461000e+07
9310.000000 1.42553000e+07
9330.000000 1.42129000e+07
9350.000000 1.41638000e+07
9370.000000 1.40841000e+07
9390.000000 1.38951000e+07
9410.000000 1.36068000e+07
9430.000000 1.37089000e+07
9450.000000 1.35973000e+07
9470.000000 1.34169000e+07
9490.000000 1.31307000e+07
9510.000000 1.25494000e+07
9530.000000 1.11226000e+07
9550.000000 9.02474000e+06
9570.000000 1.12449000e+07
9590.000000 1.23028000e+07
9610.000000 1.25691000e+07
9630.000000 1.24917000e+07
9650.000000 1.26512000e+07
9670.000000 1.25094000e+07
9690.000000 1.24984000e+07
9710.000000 1.24721000e+07
9730.000000 1.23807000e+07
9750.000000 1.22896000e+07
9770.000000 1.22338000e+07
9790.000000 1.21418000e+07
9810.000000 1.20469000e+07
9830.000000 1.19285000e+07
9850.000000 1.18312000e+07
9870.000000 1.17408000e+07
9890.000000 1.15920000e+07
9910.000000 1.15664000e+07
9930.000000 1.14610000e+07
9950.000000 1.13613000e+07
9970.000000 1.12320000e+07
9990.000000 1.10131000e+07
10025.000000 9.69744000e+06
10075.000000 9.18204000e+06
10125.000000 1.04924000e+07
10175.000000 1.05366000e+07
10225.000000 1.04104000e+07
10275.000000 1.02515000e+07
10325.000000 1.00701000e+07
10375.000000 9.90326000e+06
10425.000000 9.73952000e+06
10475.000000 9.52899000e+06
10525.000000 9.38154000e+06
10575.000000 9.24116000e+06
10625.000000 9.09899000e+06
10675.000000 8.83080000e+06
10725.000000 8.75193000e+06
10775.000000 8.61443000e+06
10825.000000 8.43731000e+06
10875.000000 8.11749000e+06
10925.000000 6.68833000e+06
10975.000000 7.31624000e+06
11025.000000 7.85502000e+06
11075.000000 7.82941000e+06
11125.000000 7.72449000e+06
11175.000000 7.62083000e+06
11225.000000 7.50495000e+06
11275.000000 7.29273000e+06
11325.000000 7.19206000e+06
11375.000000 7.14440000e+06
11425.000000 7.02515000e+06
11475.000000 6.94089000e+06
11525.000000 6.83740000e+06
11575.000000 6.73065000e+06
11625.000000 6.59009000e+06
11675.000000 6.46494000e+06
11725.000000 6.43020000e+06
11775.000000 6.25751000e+06
11825.000000 6.20659000e+06
11875.000000 6.09887000e+06
11925.000000 6.05657000e+06
11975.000000 5.93964000e+06
12025.000000 5.86872000e+06
12075.000000 5.77423000e+06
12125.000000 5.69211000e+06
12175.000000 5.61800000e+06
12225.000000 5.53332000e+06
12275.000000 5.44558000e+06
12325.000000 5.37024000e+06
12375.000000 5.29692000e+06
12425.000000 5.22851000e+06
12475.000000 5.13536000e+06
12525.000000 5.07547000e+06
12575.000000 4.97896000e+06
12625.000000 4.91053000e+06
12675.000000 4.84138000e+06
12725.000000 4.73292000e+06
12775.000000 4.45795000e+06
12825.000000 3.79843000e+06
12875.000000 4.39101000e+06
12925.000000 4.48452000e+06
12975.000000 4.45472000e+06
13025.000000 4.40637000e+06
13075.000000 4.35445000e+06
13125.000000 4.29422000e+06
13175.000000 4.22305000e+06
13225.000000 4.17955000e+06
13275.000000 4.12333000e+06
13325.000000 4.06804000e+06
13375.000000 4.01346000e+06
13425.000000 3.95854000e+06
13475.000000 3.90494000e+06
13525.000000 3.84709000e+06
13575.000000 3.79856000e+06
13625.000000 3.75084000e+06
13675.000000 3.69869000e+06
13725.000000 3.64119000e+06
13775.000000 3.60508000e+06
13825.000000 3.55894000e+06
13875.000000 3.51573000e+06
13925.000000 3.46488000e+06
13975.000000 3.42373000e+06
14025.000000 3.38059000e+06
14075.000000 3.33798000e+06
14125.000000 3.29419000e+06
14175.000000 3.25280000e+06
14225.000000 3.21136000e+06
14275.000000 3.17078000e+06
14325.000000 3.13070000e+06
14375.000000 3.09237000e+06
14425.000000 3.02588000e+06
14475.000000 3.01455000e+06
