# Kurucz ODFNEW /NOVER, alpha: 0.0 (2003)
# teff = 20000 K (value for the effective temperature for the model. Temperatures are given in K)
# logg = 4 log(cm/s2) (value for Log(G) for the model.)
# lh = 1.25  (l/Hp where l is the  mixing length of the convective element and Hp is the pressure scale height)
# meta = 0  (value for the Metallicity for the model.)
# vtur = 2 km/s (Microturbulence velocity)
# alpha = 0  (Alpha)
#
# column 1: WAVELENGTH (ANGSTROM), Wavelength in Angstrom
# column 2: FLUX (ERG/CM2/S/A), Flux in erg/cm2/s/A
147.200000 8.73606000e-20
151.000000 5.16097000e-19
155.200000 3.33030000e-18
158.800000 1.52470000e-17
162.000000 5.58419000e-17
166.000000 2.64432000e-16
170.300000 1.30053000e-15
173.400000 3.91770000e-15
176.800000 1.25608000e-14
180.200000 3.86126000e-14
181.700000 6.25477000e-14
186.100000 2.47087000e-13
191.000000 1.06283000e-12
193.900000 2.43550000e-12
198.400000 8.42791000e-12
201.800000 2.08064000e-11
205.000000 4.74621000e-11
210.500000 1.84963000e-10
216.200000 7.06206000e-10
219.800000 1.59037000e-09
223.000000 3.20238000e-09
226.800000 7.17517000e-09
230.000000 5.75000000e-08
234.000000 1.47359000e-07
240.000000 4.50094000e-07
246.500000 1.40822000e-06
252.400000 3.79149000e-06
256.800000 7.53330000e-06
260.000000 1.26622000e-05
264.000000 2.31796000e-05
268.500000 4.47029000e-05
273.500000 9.02562000e-05
278.500000 1.78475000e-04
284.000000 3.68616000e-04
290.000000 7.82083000e-04
296.000000 1.60627000e-03
301.000000 2.86498000e-03
308.000000 6.17411000e-03
318.000000 1.79588000e-02
328.000000 4.75954000e-02
338.000000 1.21147000e-01
348.000000 2.88996000e-01
357.000000 6.22813000e-01
366.000000 1.26715000e+00
375.000000 2.44204000e+00
385.000000 4.92156000e+00
395.000000 9.53480000e+00
405.000000 1.78501000e+01
414.000000 3.06358000e+01
422.000000 4.81436000e+01
430.000000 7.45431000e+01
441.000000 1.32998000e+02
451.000000 2.18943000e+02
460.000000 3.34801000e+02
470.000000 5.28461000e+02
480.000000 8.14334000e+02
490.000000 1.23527000e+03
500.000000 1.83769000e+03
506.000000 1.41285000e+04
512.000000 8.99113000e+04
520.000000 1.14667000e+05
530.000000 1.62574000e+05
540.000000 1.88507000e+05
550.000000 2.84994000e+05
560.000000 3.50997000e+05
570.000000 4.59102000e+05
580.000000 4.69747000e+05
590.000000 6.54206000e+05
600.000000 8.28857000e+05
610.000000 1.04383000e+06
620.000000 1.22280000e+06
630.000000 1.45395000e+06
640.000000 1.59503000e+06
650.000000 1.57085000e+06
658.000000 2.19539000e+06
665.000000 2.45934000e+06
675.000000 2.76727000e+06
685.000000 3.12166000e+06
695.000000 3.82084000e+06
705.000000 4.25812000e+06
716.000000 4.93406000e+06
726.000000 5.48666000e+06
735.000000 6.02920000e+06
745.000000 6.98377000e+06
755.000000 7.84951000e+06
765.000000 8.79405000e+06
775.000000 9.84436000e+06
785.000000 1.09438000e+07
795.000000 1.18796000e+07
805.000000 1.29810000e+07
815.000000 1.40630000e+07
825.000000 1.56631000e+07
835.000000 1.61839000e+07
845.000000 1.79531000e+07
855.000000 1.94218000e+07
865.000000 2.12416000e+07
875.000000 2.32894000e+07
885.000000 2.56199000e+07
895.000000 2.75789000e+07
905.000000 2.83242000e+07
915.000000 4.77107000e+07
925.000000 2.54140000e+08
935.000000 8.17129000e+08
945.000000 2.66260000e+09
955.000000 4.83704000e+09
965.000000 6.28108000e+09
975.000000 9.28127000e+08
985.000000 6.69840000e+09
995.000000 6.79618000e+09
1005.000000 8.43070000e+09
1015.000000 7.76222000e+09
1025.000000 1.97450000e+09
1035.000000 4.92846000e+09
1045.000000 1.03395000e+10
1055.000000 9.85229000e+09
1065.000000 7.71079000e+09
1075.000000 9.46237000e+09
1085.000000 8.17734000e+09
1095.000000 9.57765000e+09
1105.000000 8.30361000e+09
1115.000000 7.75019000e+09
1125.000000 6.97662000e+09
1135.000000 9.11889000e+09
1145.000000 7.92812000e+09
1155.000000 8.44491000e+09
1165.000000 8.69332000e+09
1175.000000 5.94854000e+09
1185.000000 8.71490000e+09
1195.000000 6.42750000e+09
1205.000000 3.46601000e+09
1215.000000 1.70819000e+09
1225.000000 5.49871000e+09
1235.000000 8.18555000e+09
1245.000000 8.44517000e+09
1255.000000 8.22046000e+09
1265.000000 7.69738000e+09
1275.000000 8.19796000e+09
1285.000000 8.32456000e+09
1295.000000 5.28918000e+09
1305.000000 5.15424000e+09
1315.000000 7.85059000e+09
1325.000000 7.31539000e+09
1335.000000 6.47863000e+09
1345.000000 7.42099000e+09
1355.000000 7.18464000e+09
1365.000000 6.37876000e+09
1375.000000 6.40926000e+09
1385.000000 6.45314000e+09
1395.000000 5.38991000e+09
1405.000000 5.71862000e+09
1415.000000 5.72181000e+09
1425.000000 5.84901000e+09
1435.000000 5.90444000e+09
1442.000000 6.11974000e+09
1447.000000 6.00375000e+09
1455.000000 5.85143000e+09
1465.000000 5.40864000e+09
1475.000000 5.43651000e+09
1485.000000 5.33005000e+09
1495.000000 5.28528000e+09
1505.000000 4.85102000e+09
1512.000000 4.31827000e+09
1517.000000 4.52673000e+09
1525.000000 4.66808000e+09
1535.000000 4.10302000e+09
1545.000000 4.17460000e+09
1555.000000 3.98179000e+09
1565.000000 4.13057000e+09
1575.000000 4.36668000e+09
1585.000000 4.39093000e+09
1595.000000 4.40535000e+09
1605.000000 4.38543000e+09
1615.000000 4.36740000e+09
1625.000000 4.18955000e+09
1635.000000 4.41693000e+09
1645.000000 4.38275000e+09
1655.000000 4.15279000e+09
1665.000000 4.43572000e+09
1672.000000 4.24652000e+09
1677.000000 4.37970000e+09
1685.000000 4.40801000e+09
1695.000000 4.15172000e+09
1705.000000 3.96061000e+09
1715.000000 3.72884000e+09
1725.000000 3.68611000e+09
1735.000000 3.87790000e+09
1745.000000 3.72656000e+09
1755.000000 3.83735000e+09
1765.000000 3.60509000e+09
1775.000000 3.55060000e+09
1785.000000 3.59653000e+09
1795.000000 3.74669000e+09
1805.000000 3.75744000e+09
1815.000000 3.34939000e+09
1825.000000 3.50666000e+09
1835.000000 3.34055000e+09
1845.000000 3.06826000e+09
1855.000000 2.96980000e+09
1865.000000 3.03574000e+09
1875.000000 3.30220000e+09
1885.000000 2.94314000e+09
1895.000000 2.74346000e+09
1905.000000 2.99336000e+09
1915.000000 2.78683000e+09
1925.000000 2.69380000e+09
1935.000000 2.83023000e+09
1945.000000 2.87051000e+09
1955.000000 2.62644000e+09
1967.000000 2.86479000e+09
1976.000000 2.97074000e+09
1984.000000 2.74901000e+09
1995.000000 2.68158000e+09
2005.000000 2.78028000e+09
2015.000000 2.69050000e+09
2025.000000 2.83662000e+09
2035.000000 2.58766000e+09
2045.000000 2.64051000e+09
2055.000000 2.54824000e+09
2065.000000 2.57177000e+09
2074.000000 2.70250000e+09
2078.000000 2.45393000e+09
2085.000000 2.58038000e+09
2095.000000 2.42654000e+09
2105.000000 2.48839000e+09
2115.000000 2.48909000e+09
2125.000000 2.52370000e+09
2135.000000 2.44672000e+09
2145.000000 2.34912000e+09
2155.000000 2.44483000e+09
2165.000000 2.41105000e+09
2175.000000 2.38128000e+09
2185.000000 2.30225000e+09
2195.000000 2.34778000e+09
2205.000000 2.30283000e+09
2215.000000 2.24845000e+09
2225.000000 2.17387000e+09
2235.000000 2.20959000e+09
2245.000000 2.19638000e+09
2255.000000 2.10871000e+09
2265.000000 2.15431000e+09
2275.000000 2.14007000e+09
2285.000000 2.14758000e+09
2295.000000 2.04128000e+09
2305.000000 2.05296000e+09
2315.000000 1.98458000e+09
2325.000000 1.95765000e+09
2335.000000 1.87728000e+09
2345.000000 1.86172000e+09
2355.000000 1.88167000e+09
2365.000000 1.83144000e+09
2375.000000 1.82740000e+09
2385.000000 1.78105000e+09
2395.000000 1.81763000e+09
2405.000000 1.74966000e+09
2415.000000 1.75684000e+09
2425.000000 1.76743000e+09
2435.000000 1.69817000e+09
2445.000000 1.72471000e+09
2455.000000 1.71787000e+09
2465.000000 1.68053000e+09
2475.000000 1.65024000e+09
2485.000000 1.66786000e+09
2495.000000 1.59714000e+09
2505.000000 1.64007000e+09
2513.000000 1.55514000e+09
2518.000000 1.61094000e+09
2525.000000 1.55806000e+09
2535.000000 1.53969000e+09
2545.000000 1.49912000e+09
2555.000000 1.53663000e+09
2565.000000 1.51334000e+09
2575.000000 1.53297000e+09
2585.000000 1.52451000e+09
2595.000000 1.51189000e+09
2605.000000 1.49170000e+09
2615.000000 1.47778000e+09
2625.000000 1.46430000e+09
2635.000000 1.45554000e+09
2645.000000 1.46830000e+09
2655.000000 1.45839000e+09
2665.000000 1.41086000e+09
2675.000000 1.42150000e+09
2685.000000 1.41014000e+09
2695.000000 1.37283000e+09
2705.000000 1.36780000e+09
2715.000000 1.34869000e+09
2725.000000 1.32877000e+09
2735.000000 1.33987000e+09
2745.000000 1.28093000e+09
2755.000000 1.27874000e+09
2765.000000 1.27572000e+09
2775.000000 1.28953000e+09
2785.000000 1.27232000e+09
2795.000000 1.22263000e+09
2805.000000 1.24323000e+09
2815.000000 1.24435000e+09
2825.000000 1.22281000e+09
2835.000000 1.17623000e+09
2845.000000 1.18166000e+09
2855.000000 1.17862000e+09
2865.000000 1.18555000e+09
2875.000000 1.16688000e+09
2885.000000 1.15863000e+09
2895.000000 1.14722000e+09
2910.000000 1.13387000e+09
2930.000000 1.10782000e+09
2950.000000 1.07926000e+09
2970.000000 1.06887000e+09
2990.000000 1.04463000e+09
3010.000000 1.02660000e+09
3030.000000 1.01650000e+09
3050.000000 9.96040000e+08
3070.000000 9.77668000e+08
3090.000000 9.55663000e+08
3110.000000 9.40178000e+08
3130.000000 9.24856000e+08
3150.000000 9.08061000e+08
3170.000000 8.88504000e+08
3190.000000 8.65107000e+08
3210.000000 8.57980000e+08
3230.000000 8.43307000e+08
3250.000000 8.29144000e+08
3270.000000 8.14980000e+08
3290.000000 7.99986000e+08
3310.000000 7.87906000e+08
3330.000000 7.73510000e+08
3350.000000 7.58528000e+08
3370.000000 7.46499000e+08
3390.000000 7.34341000e+08
3410.000000 7.22123000e+08
3430.000000 7.06682000e+08
3450.000000 6.92530000e+08
3470.000000 6.82411000e+08
3490.000000 6.70901000e+08
3510.000000 6.61626000e+08
3530.000000 6.52517000e+08
3550.000000 6.41987000e+08
3570.000000 6.34193000e+08
3590.000000 6.18728000e+08
3610.000000 6.09203000e+08
3630.000000 6.00107000e+08
3640.000000 5.99174000e+08
3650.000000 5.89759000e+08
3670.000000 5.83041000e+08
3690.000000 5.69489000e+08
3710.000000 5.51624000e+08
3730.000000 5.33675000e+08
3750.000000 5.79674000e+08
3770.000000 5.87058000e+08
3790.000000 6.28035000e+08
3810.000000 6.60647000e+08
3830.000000 5.68860000e+08
3850.000000 6.82243000e+08
3870.000000 6.89799000e+08
3890.000000 5.37331000e+08
3910.000000 6.86354000e+08
3930.000000 6.67263000e+08
3950.000000 6.63372000e+08
3970.000000 5.00500000e+08
3990.000000 6.35183000e+08
4010.000000 6.36289000e+08
4030.000000 5.96123000e+08
4050.000000 6.21716000e+08
4070.000000 6.01292000e+08
4090.000000 5.51601000e+08
4110.000000 4.76462000e+08
4130.000000 5.65020000e+08
4150.000000 5.63131000e+08
4170.000000 5.60169000e+08
4190.000000 5.55349000e+08
4210.000000 5.48533000e+08
4230.000000 5.38010000e+08
4250.000000 5.27682000e+08
4270.000000 5.11965000e+08
4290.000000 5.09741000e+08
4310.000000 4.97294000e+08
4330.000000 4.44486000e+08
4350.000000 4.02542000e+08
4370.000000 4.71501000e+08
4390.000000 4.58164000e+08
4410.000000 4.63626000e+08
4430.000000 4.55322000e+08
4450.000000 4.51923000e+08
4470.000000 4.24565000e+08
4490.000000 4.34620000e+08
4510.000000 4.32700000e+08
4530.000000 4.24389000e+08
4550.000000 4.18647000e+08
4570.000000 4.12628000e+08
4590.000000 4.06554000e+08
4610.000000 3.99170000e+08
4630.000000 3.92390000e+08
4650.000000 3.85711000e+08
4670.000000 3.82293000e+08
4690.000000 3.78046000e+08
4710.000000 3.64229000e+08
4730.000000 3.63294000e+08
4750.000000 3.58004000e+08
4770.000000 3.57028000e+08
4790.000000 3.50949000e+08
4810.000000 3.43364000e+08
4830.000000 3.37070000e+08
4850.000000 3.08030000e+08
4870.000000 2.72323000e+08
4890.000000 3.22516000e+08
4910.000000 3.20441000e+08
4930.000000 3.08251000e+08
4950.000000 3.12761000e+08
4970.000000 3.09212000e+08
4990.000000 3.04317000e+08
5010.000000 2.92542000e+08
5030.000000 2.94985000e+08
5050.000000 2.86981000e+08
5070.000000 2.87799000e+08
5090.000000 2.83666000e+08
5110.000000 2.79112000e+08
5130.000000 2.73948000e+08
5150.000000 2.70362000e+08
5170.000000 2.68612000e+08
5190.000000 2.65022000e+08
5210.000000 2.59174000e+08
5230.000000 2.57912000e+08
5250.000000 2.54625000e+08
5270.000000 2.50919000e+08
5290.000000 2.48204000e+08
5310.000000 2.44694000e+08
5330.000000 2.41217000e+08
5350.000000 2.37429000e+08
5370.000000 2.35481000e+08
5390.000000 2.32349000e+08
5410.000000 2.29245000e+08
5430.000000 2.25553000e+08
5450.000000 2.22975000e+08
5470.000000 2.20012000e+08
5490.000000 2.17700000e+08
5510.000000 2.14857000e+08
5530.000000 2.12073000e+08
5550.000000 2.09655000e+08
5570.000000 2.06853000e+08
5590.000000 2.04411000e+08
5610.000000 2.01543000e+08
5630.000000 1.99532000e+08
5650.000000 1.95336000e+08
5670.000000 1.93000000e+08
5690.000000 1.91087000e+08
5710.000000 1.89496000e+08
5730.000000 1.87247000e+08
5750.000000 1.84852000e+08
5770.000000 1.82860000e+08
5790.000000 1.80588000e+08
5810.000000 1.78353000e+08
5830.000000 1.76090000e+08
5850.000000 1.74073000e+08
5870.000000 1.66635000e+08
5890.000000 1.68590000e+08
5910.000000 1.67698000e+08
5930.000000 1.65723000e+08
5950.000000 1.63280000e+08
5970.000000 1.61998000e+08
5990.000000 1.59763000e+08
6010.000000 1.58263000e+08
6030.000000 1.56293000e+08
6050.000000 1.54531000e+08
6070.000000 1.52758000e+08
6090.000000 1.50882000e+08
6110.000000 1.49240000e+08
6130.000000 1.47556000e+08
6150.000000 1.45184000e+08
6170.000000 1.44046000e+08
6190.000000 1.42507000e+08
6210.000000 1.40878000e+08
6230.000000 1.39237000e+08
6250.000000 1.37344000e+08
6270.000000 1.36038000e+08
6290.000000 1.34508000e+08
6310.000000 1.32852000e+08
6330.000000 1.31563000e+08
6350.000000 1.29390000e+08
6370.000000 1.28207000e+08
6390.000000 1.27092000e+08
6410.000000 1.25668000e+08
6430.000000 1.24459000e+08
6450.000000 1.22982000e+08
6470.000000 1.21458000e+08
6490.000000 1.20201000e+08
6510.000000 1.18725000e+08
6530.000000 1.16921000e+08
6550.000000 1.10914000e+08
6570.000000 9.73747000e+07
6590.000000 1.11679000e+08
6610.000000 1.12298000e+08
6630.000000 1.11450000e+08
6650.000000 1.10355000e+08
6670.000000 1.08068000e+08
6690.000000 1.06977000e+08
6710.000000 1.06867000e+08
6730.000000 1.05692000e+08
6750.000000 1.04653000e+08
6770.000000 1.03559000e+08
6790.000000 1.01953000e+08
6810.000000 1.01290000e+08
6830.000000 1.00237000e+08
6850.000000 9.92595000e+07
6870.000000 9.82355000e+07
6890.000000 9.72057000e+07
6910.000000 9.61941000e+07
6930.000000 9.51062000e+07
6950.000000 9.42321000e+07
6970.000000 9.32811000e+07
6990.000000 9.22931000e+07
7010.000000 9.13456000e+07
7030.000000 9.04226000e+07
7050.000000 8.94176000e+07
7070.000000 8.71563000e+07
7090.000000 8.77220000e+07
7110.000000 8.66181000e+07
7130.000000 8.57994000e+07
7150.000000 8.50547000e+07
7170.000000 8.42145000e+07
7190.000000 8.34114000e+07
7210.000000 8.25797000e+07
7230.000000 8.07902000e+07
7250.000000 8.08898000e+07
7270.000000 8.01459000e+07
7290.000000 7.87498000e+07
7310.000000 7.85662000e+07
7330.000000 7.78085000e+07
7350.000000 7.70579000e+07
7370.000000 7.63004000e+07
7390.000000 7.55568000e+07
7410.000000 7.48270000e+07
7430.000000 7.40358000e+07
7450.000000 7.33673000e+07
7470.000000 7.25834000e+07
7490.000000 7.19411000e+07
7510.000000 7.12378000e+07
7530.000000 7.05742000e+07
7550.000000 6.99298000e+07
7570.000000 6.92715000e+07
7590.000000 6.85930000e+07
7610.000000 6.79598000e+07
7630.000000 6.73192000e+07
7650.000000 6.66844000e+07
7670.000000 6.60554000e+07
7690.000000 6.54383000e+07
7710.000000 6.48267000e+07
7730.000000 6.42080000e+07
7750.000000 6.36136000e+07
7770.000000 6.25939000e+07
7790.000000 6.24467000e+07
7810.000000 6.18370000e+07
7830.000000 6.13027000e+07
7850.000000 6.06594000e+07
7870.000000 6.01155000e+07
7890.000000 5.94450000e+07
7910.000000 5.91002000e+07
7930.000000 5.85826000e+07
7950.000000 5.79026000e+07
7970.000000 5.74077000e+07
7990.000000 5.67182000e+07
8010.000000 5.63625000e+07
8030.000000 5.58578000e+07
8050.000000 5.53533000e+07
8070.000000 5.49057000e+07
8090.000000 5.43099000e+07
8110.000000 5.38848000e+07
8130.000000 5.34622000e+07
8150.000000 5.29222000e+07
8170.000000 5.25477000e+07
8190.000000 5.19903000e+07
8210.000000 5.13657000e+07
8230.000000 5.09723000e+07
8250.000000 5.06762000e+07
8270.000000 4.99857000e+07
8290.000000 4.97421000e+07
8310.000000 4.93256000e+07
8330.000000 4.89018000e+07
8350.000000 4.82550000e+07
8370.000000 4.79477000e+07
8390.000000 4.76338000e+07
8410.000000 4.71976000e+07
8430.000000 4.67168000e+07
8450.000000 4.58802000e+07
8470.000000 4.57767000e+07
8490.000000 4.54385000e+07
8510.000000 4.47658000e+07
8530.000000 4.48047000e+07
8550.000000 4.33296000e+07
8570.000000 4.46659000e+07
8590.000000 4.25354000e+07
8610.000000 4.23035000e+07
8630.000000 4.40571000e+07
8650.000000 4.25858000e+07
8670.000000 3.93194000e+07
8690.000000 4.29619000e+07
8710.000000 4.33950000e+07
8730.000000 4.18840000e+07
8750.000000 3.72190000e+07
8770.000000 4.04772000e+07
8790.000000 4.22084000e+07
8810.000000 4.20898000e+07
8830.000000 4.14254000e+07
8850.000000 3.84582000e+07
8870.000000 3.53056000e+07
8890.000000 3.98704000e+07
8910.000000 4.03697000e+07
8930.000000 4.01050000e+07
8950.000000 3.99542000e+07
8970.000000 3.95051000e+07
8990.000000 3.82164000e+07
9010.000000 3.35724000e+07
9030.000000 3.53671000e+07
9050.000000 3.78461000e+07
9070.000000 3.75718000e+07
9090.000000 3.75489000e+07
9110.000000 3.74818000e+07
9130.000000 3.72436000e+07
9150.000000 3.68943000e+07
9170.000000 3.64159000e+07
9190.000000 3.59796000e+07
9210.000000 3.41887000e+07
9230.000000 2.98565000e+07
9250.000000 3.35458000e+07
9270.000000 3.45112000e+07
9290.000000 3.47644000e+07
9310.000000 3.44300000e+07
9330.000000 3.43233000e+07
9350.000000 3.40753000e+07
9370.000000 3.38348000e+07
9390.000000 3.35592000e+07
9410.000000 3.31469000e+07
9430.000000 3.30395000e+07
9450.000000 3.27754000e+07
9470.000000 3.22464000e+07
9490.000000 3.21211000e+07
9510.000000 3.13905000e+07
9530.000000 2.97896000e+07
9550.000000 2.64286000e+07
9570.000000 3.00014000e+07
9590.000000 3.07247000e+07
9610.000000 3.05746000e+07
9630.000000 3.02267000e+07
9650.000000 3.03196000e+07
9670.000000 3.00690000e+07
9690.000000 2.98222000e+07
9710.000000 2.95361000e+07
9730.000000 2.93997000e+07
9750.000000 2.91654000e+07
9770.000000 2.89538000e+07
9790.000000 2.87311000e+07
9810.000000 2.85099000e+07
9830.000000 2.82856000e+07
9850.000000 2.80808000e+07
9870.000000 2.78619000e+07
9890.000000 2.76330000e+07
9910.000000 2.73313000e+07
9930.000000 2.72420000e+07
9950.000000 2.70352000e+07
9970.000000 2.67870000e+07
9990.000000 2.65292000e+07
10025.000000 2.50016000e+07
10075.000000 2.41101000e+07
10125.000000 2.51587000e+07
10175.000000 2.48550000e+07
10225.000000 2.44017000e+07
10275.000000 2.39703000e+07
10325.000000 2.34468000e+07
10375.000000 2.31153000e+07
10425.000000 2.27031000e+07
10475.000000 2.22977000e+07
10525.000000 2.18966000e+07
10575.000000 2.15142000e+07
10625.000000 2.11396000e+07
10675.000000 2.06988000e+07
10725.000000 2.04047000e+07
10775.000000 2.00522000e+07
10825.000000 1.94835000e+07
10875.000000 1.92777000e+07
10925.000000 1.73922000e+07
10975.000000 1.82011000e+07
11025.000000 1.82428000e+07
11075.000000 1.80702000e+07
11125.000000 1.77830000e+07
11175.000000 1.74843000e+07
11225.000000 1.71848000e+07
11275.000000 1.68712000e+07
11325.000000 1.66056000e+07
11375.000000 1.63549000e+07
11425.000000 1.60816000e+07
11475.000000 1.58256000e+07
11525.000000 1.55674000e+07
11575.000000 1.53115000e+07
11625.000000 1.50596000e+07
11675.000000 1.48204000e+07
11725.000000 1.45874000e+07
11775.000000 1.43368000e+07
11825.000000 1.41283000e+07
11875.000000 1.39030000e+07
11925.000000 1.36878000e+07
11975.000000 1.33481000e+07
12025.000000 1.32629000e+07
12075.000000 1.30563000e+07
12125.000000 1.28536000e+07
12175.000000 1.26554000e+07
12225.000000 1.24606000e+07
12275.000000 1.22696000e+07
12325.000000 1.20824000e+07
12375.000000 1.18989000e+07
12425.000000 1.17196000e+07
12475.000000 1.15348000e+07
12525.000000 1.13466000e+07
12575.000000 1.11942000e+07
12625.000000 1.10300000e+07
12675.000000 1.08679000e+07
12725.000000 1.06945000e+07
12775.000000 1.03471000e+07
12825.000000 9.52241000e+06
12875.000000 1.01538000e+07
12925.000000 1.00867000e+07
12975.000000 9.88153000e+06
13025.000000 9.80315000e+06
13075.000000 9.66198000e+06
