# Kurucz ODFNEW /NOVER, alpha: 0.0 (2003)
# teff = 10250 K (value for the effective temperature for the model. Temperatures are given in K)
# logg = 2 log(cm/s2) (value for Log(G) for the model.)
# lh = 1.25  (l/Hp where l is the  mixing length of the convective element and Hp is the pressure scale height)
# meta = 0  (value for the Metallicity for the model.)
# vtur = 2 km/s (Microturbulence velocity)
# alpha = 0  (Alpha)
#
# column 1: WAVELENGTH (ANGSTROM), Wavelength in Angstrom
# column 2: FLUX (ERG/CM2/S/A), Flux in erg/cm2/s/A
273.500000 1.76403000e-23
278.500000 9.57145000e-23
284.000000 4.24559000e-22
290.000000 1.95433000e-21
296.000000 8.37984000e-21
301.000000 2.71812000e-20
308.000000 1.32557000e-19
318.000000 1.13607000e-18
328.000000 8.58973000e-18
338.000000 5.77737000e-17
348.000000 3.50742000e-16
357.000000 1.66016000e-15
366.000000 7.19986000e-15
375.000000 2.90346000e-14
385.000000 1.27477000e-13
395.000000 5.18186000e-13
405.000000 1.97711000e-12
414.000000 6.24585000e-12
422.000000 1.66656000e-11
430.000000 4.26403000e-11
441.000000 1.48992000e-10
451.000000 4.38275000e-10
460.000000 1.11237000e-09
470.000000 3.00156000e-09
480.000000 7.77642000e-09
490.000000 1.93966000e-08
500.000000 4.65427000e-08
506.000000 3.86858000e-07
512.000000 8.53959000e-07
520.000000 1.52977000e-06
530.000000 3.10959000e-06
540.000000 6.04279000e-06
550.000000 1.18834000e-05
560.000000 2.24007000e-05
570.000000 4.13695000e-05
580.000000 7.24364000e-05
590.000000 1.31103000e-04
600.000000 2.27063000e-04
610.000000 3.89041000e-04
620.000000 6.49750000e-04
630.000000 1.07030000e-03
640.000000 1.72076000e-03
650.000000 2.76702000e-03
658.000000 3.98470000e-03
665.000000 5.42308000e-03
675.000000 8.34696000e-03
685.000000 1.27192000e-02
695.000000 1.92083000e-02
705.000000 2.84670000e-02
716.000000 4.35293000e-02
726.000000 6.32886000e-02
735.000000 8.76507000e-02
745.000000 1.24872000e-01
755.000000 1.76150000e-01
765.000000 2.45926000e-01
775.000000 3.41507000e-01
785.000000 4.69603000e-01
795.000000 6.35944000e-01
805.000000 8.62084000e-01
815.000000 1.15782000e+00
825.000000 1.53996000e+00
835.000000 2.02061000e+00
845.000000 2.67416000e+00
855.000000 3.48326000e+00
865.000000 4.51919000e+00
875.000000 5.79690000e+00
885.000000 7.44536000e+00
895.000000 9.46968000e+00
905.000000 1.18737000e+01
915.000000 1.15085000e+03
925.000000 8.21419000e+03
935.000000 1.13821000e+04
945.000000 1.88735000e+04
955.000000 3.95869000e+04
965.000000 5.24421000e+04
975.000000 3.72693000e+04
985.000000 7.54527000e+04
995.000000 7.37876000e+04
1005.000000 9.29603000e+04
1015.000000 9.99907000e+04
1025.000000 6.52573000e+04
1035.000000 1.01372000e+05
1045.000000 1.77293000e+05
1055.000000 2.23772000e+05
1065.000000 2.20941000e+05
1075.000000 2.88458000e+05
1085.000000 3.11397000e+05
1095.000000 3.57210000e+05
1105.000000 2.37369000e+06
1115.000000 1.33271000e+07
1125.000000 1.49061000e+07
1135.000000 2.20831000e+07
1145.000000 2.04643000e+07
1155.000000 2.50057000e+07
1165.000000 2.82570000e+07
1175.000000 2.44201000e+07
1185.000000 1.68098000e+07
1195.000000 3.01668000e+05
1205.000000 4.34840000e+05
1215.000000 7.41248000e+04
1225.000000 4.24950000e+05
1235.000000 4.86070000e+06
1245.000000 3.52492000e+07
1255.000000 5.63865000e+07
1265.000000 2.89429000e+07
1275.000000 7.88000000e+07
1285.000000 1.04658000e+08
1295.000000 7.20852000e+07
1305.000000 2.90606000e+07
1315.000000 8.59459000e+07
1325.000000 1.08489000e+08
1335.000000 7.07938000e+07
1345.000000 1.27691000e+08
1355.000000 1.26147000e+08
1365.000000 1.00289000e+08
1375.000000 1.19519000e+08
1385.000000 1.23143000e+08
1395.000000 1.26263000e+08
1405.000000 1.27852000e+08
1415.000000 1.15676000e+08
1425.000000 1.32299000e+08
1435.000000 1.20129000e+08
1442.000000 1.35865000e+08
1447.000000 1.51148000e+08
1455.000000 1.45784000e+08
1465.000000 1.32445000e+08
1475.000000 1.25210000e+08
1485.000000 1.41885000e+08
1495.000000 1.51776000e+08
1505.000000 1.50713000e+08
1512.000000 1.30069000e+08
1517.000000 1.47089000e+08
1525.000000 1.29403000e+08
1535.000000 1.13524000e+08
1545.000000 1.46943000e+08
1555.000000 1.25566000e+08
1565.000000 1.17907000e+08
1575.000000 1.21620000e+08
1585.000000 1.39907000e+08
1595.000000 1.49565000e+08
1605.000000 1.36883000e+08
1615.000000 1.38111000e+08
1625.000000 1.23875000e+08
1635.000000 1.31599000e+08
1645.000000 1.36615000e+08
1655.000000 1.20078000e+08
1665.000000 1.32720000e+08
1672.000000 7.26107000e+07
1677.000000 1.28739000e+08
1685.000000 1.48583000e+08
1695.000000 1.40594000e+08
1705.000000 1.27071000e+08
1715.000000 1.19818000e+08
1725.000000 1.19642000e+08
1735.000000 1.31245000e+08
1745.000000 1.29671000e+08
1755.000000 1.49553000e+08
1765.000000 1.23036000e+08
1775.000000 1.37210000e+08
1785.000000 1.35121000e+08
1795.000000 1.57355000e+08
1805.000000 1.50228000e+08
1815.000000 1.46404000e+08
1825.000000 1.41671000e+08
1835.000000 1.34526000e+08
1845.000000 1.23255000e+08
1855.000000 1.20912000e+08
1865.000000 1.24503000e+08
1875.000000 1.42714000e+08
1885.000000 1.34810000e+08
1895.000000 1.30517000e+08
1905.000000 1.29524000e+08
1915.000000 1.30959000e+08
1925.000000 1.34146000e+08
1935.000000 1.36526000e+08
1945.000000 1.40055000e+08
1955.000000 1.35432000e+08
1967.000000 1.48390000e+08
1976.000000 1.51306000e+08
1984.000000 1.42279000e+08
1995.000000 1.35224000e+08
2005.000000 1.39314000e+08
2015.000000 1.28025000e+08
2025.000000 1.37081000e+08
2035.000000 1.31807000e+08
2045.000000 1.40223000e+08
2055.000000 1.28933000e+08
2065.000000 1.28376000e+08
2074.000000 1.41076000e+08
2078.000000 1.39269000e+08
2085.000000 1.39929000e+08
2095.000000 1.32769000e+08
2105.000000 1.29300000e+08
2115.000000 1.28796000e+08
2125.000000 1.32292000e+08
2135.000000 1.10575000e+08
2145.000000 1.22696000e+08
2155.000000 1.30013000e+08
2165.000000 1.21999000e+08
2175.000000 1.18801000e+08
2185.000000 1.16265000e+08
2195.000000 1.26561000e+08
2205.000000 1.19806000e+08
2215.000000 1.07324000e+08
2225.000000 1.01384000e+08
2235.000000 1.16098000e+08
2245.000000 1.03466000e+08
2255.000000 9.82900000e+07
2265.000000 1.03820000e+08
2275.000000 1.09759000e+08
2285.000000 1.14060000e+08
2295.000000 1.07976000e+08
2305.000000 1.01482000e+08
2315.000000 9.47091000e+07
2325.000000 9.39728000e+07
2335.000000 8.40213000e+07
2345.000000 7.75721000e+07
2355.000000 9.36317000e+07
2365.000000 7.70537000e+07
2375.000000 8.45143000e+07
2385.000000 7.07002000e+07
2395.000000 8.23337000e+07
2405.000000 7.62444000e+07
2415.000000 8.11759000e+07
2425.000000 9.07130000e+07
2435.000000 8.60809000e+07
2445.000000 9.45601000e+07
2455.000000 9.03472000e+07
2465.000000 8.99442000e+07
2475.000000 8.60393000e+07
2485.000000 9.31510000e+07
2495.000000 8.91317000e+07
2505.000000 1.00759000e+08
2513.000000 8.62368000e+07
2518.000000 9.14265000e+07
2525.000000 8.24351000e+07
2535.000000 8.35623000e+07
2545.000000 8.18076000e+07
2555.000000 8.87977000e+07
2565.000000 8.55815000e+07
2575.000000 9.50939000e+07
2585.000000 9.17267000e+07
2595.000000 8.84869000e+07
2605.000000 8.32010000e+07
2615.000000 8.23731000e+07
2625.000000 8.98492000e+07
2635.000000 9.09645000e+07
2645.000000 1.04823000e+08
2655.000000 1.02474000e+08
2665.000000 9.08217000e+07
2675.000000 9.72409000e+07
2685.000000 9.36699000e+07
2695.000000 9.11347000e+07
2705.000000 9.52761000e+07
2715.000000 8.93114000e+07
2725.000000 9.10619000e+07
2735.000000 9.92662000e+07
2745.000000 7.86204000e+07
2755.000000 7.97929000e+07
2765.000000 8.33314000e+07
2775.000000 9.23695000e+07
2785.000000 9.15908000e+07
2795.000000 6.77648000e+07
2805.000000 7.80509000e+07
2815.000000 9.44364000e+07
2825.000000 9.73944000e+07
2835.000000 9.06010000e+07
2845.000000 8.73680000e+07
2855.000000 8.52734000e+07
2865.000000 9.20777000e+07
2875.000000 8.81293000e+07
2885.000000 8.99998000e+07
2895.000000 8.49291000e+07
2910.000000 9.66236000e+07
2930.000000 9.21626000e+07
2950.000000 9.17830000e+07
2970.000000 9.33784000e+07
2990.000000 9.39116000e+07
3010.000000 9.65598000e+07
3030.000000 9.45958000e+07
3050.000000 9.28166000e+07
3070.000000 9.14993000e+07
3090.000000 9.31476000e+07
3110.000000 8.97021000e+07
3130.000000 8.86248000e+07
3150.000000 9.01721000e+07
3170.000000 8.87754000e+07
3190.000000 8.52705000e+07
3210.000000 8.71946000e+07
3230.000000 8.54176000e+07
3250.000000 8.55501000e+07
3270.000000 8.52678000e+07
3290.000000 8.54420000e+07
3310.000000 8.55061000e+07
3330.000000 8.34119000e+07
3350.000000 8.20698000e+07
3370.000000 8.16890000e+07
3390.000000 8.05936000e+07
3410.000000 8.19253000e+07
3430.000000 8.12225000e+07
3450.000000 8.05842000e+07
3470.000000 7.90541000e+07
3490.000000 7.83517000e+07
3510.000000 7.89902000e+07
3530.000000 7.91528000e+07
3550.000000 7.87776000e+07
3570.000000 7.74038000e+07
3590.000000 7.67893000e+07
3610.000000 7.61576000e+07
3630.000000 7.54094000e+07
3640.000000 7.51577000e+07
3650.000000 7.61659000e+07
3670.000000 7.43367000e+07
3690.000000 7.59596000e+07
3710.000000 9.44061000e+07
3730.000000 1.17839000e+08
3750.000000 1.49596000e+08
3770.000000 1.48265000e+08
3790.000000 1.59338000e+08
3810.000000 1.70913000e+08
3830.000000 1.46666000e+08
3850.000000 1.70989000e+08
3870.000000 1.72617000e+08
3890.000000 1.41297000e+08
3910.000000 1.67903000e+08
3930.000000 1.64867000e+08
3950.000000 1.66123000e+08
3970.000000 1.32034000e+08
3990.000000 1.61948000e+08
4010.000000 1.59441000e+08
4030.000000 1.56392000e+08
4050.000000 1.56197000e+08
4070.000000 1.52992000e+08
4090.000000 1.48274000e+08
4110.000000 1.25750000e+08
4130.000000 1.45951000e+08
4150.000000 1.46621000e+08
4170.000000 1.43571000e+08
4190.000000 1.42524000e+08
4210.000000 1.41302000e+08
4230.000000 1.38978000e+08
4250.000000 1.36601000e+08
4270.000000 1.34746000e+08
4290.000000 1.33881000e+08
4310.000000 1.30839000e+08
4330.000000 1.23667000e+08
4350.000000 1.09466000e+08
4370.000000 1.27448000e+08
4390.000000 1.24237000e+08
4410.000000 1.23990000e+08
4430.000000 1.22612000e+08
4450.000000 1.21370000e+08
4470.000000 1.19356000e+08
4490.000000 1.16797000e+08
4510.000000 1.16373000e+08
4530.000000 1.14677000e+08
4550.000000 1.11859000e+08
4570.000000 1.12711000e+08
4590.000000 1.09912000e+08
4610.000000 1.10838000e+08
4630.000000 1.07359000e+08
4650.000000 1.08119000e+08
4670.000000 1.06314000e+08
4690.000000 1.05440000e+08
4710.000000 1.02979000e+08
4730.000000 1.02818000e+08
4750.000000 1.01616000e+08
4770.000000 1.00898000e+08
4790.000000 9.96496000e+07
4810.000000 9.81388000e+07
4830.000000 9.65526000e+07
4850.000000 9.14016000e+07
4870.000000 7.86835000e+07
4890.000000 9.34919000e+07
4910.000000 9.25552000e+07
4930.000000 9.06479000e+07
4950.000000 9.04227000e+07
4970.000000 8.96217000e+07
4990.000000 8.82375000e+07
5010.000000 8.58024000e+07
5030.000000 8.55949000e+07
5050.000000 8.40497000e+07
5070.000000 8.39756000e+07
5090.000000 8.30378000e+07
5110.000000 8.18062000e+07
5130.000000 8.12283000e+07
5150.000000 7.97477000e+07
5170.000000 7.85907000e+07
5190.000000 7.80002000e+07
5210.000000 7.70791000e+07
5230.000000 7.57841000e+07
5250.000000 7.56794000e+07
5270.000000 7.40304000e+07
5290.000000 7.43184000e+07
5310.000000 7.26039000e+07
5330.000000 7.25322000e+07
5350.000000 7.20501000e+07
5370.000000 7.11617000e+07
5390.000000 7.04089000e+07
5410.000000 6.94311000e+07
5430.000000 6.86829000e+07
5450.000000 6.82318000e+07
5470.000000 6.73824000e+07
5490.000000 6.67599000e+07
5510.000000 6.58902000e+07
5530.000000 6.53393000e+07
5550.000000 6.47628000e+07
5570.000000 6.40424000e+07
5590.000000 6.34162000e+07
5610.000000 6.28918000e+07
5630.000000 6.22199000e+07
5650.000000 6.12338000e+07
5670.000000 6.07416000e+07
5690.000000 6.02642000e+07
5710.000000 5.96671000e+07
5730.000000 5.90356000e+07
5750.000000 5.84080000e+07
5770.000000 5.78182000e+07
5790.000000 5.70891000e+07
5810.000000 5.65606000e+07
5830.000000 5.59703000e+07
5850.000000 5.54573000e+07
5870.000000 5.45771000e+07
5890.000000 5.41159000e+07
5910.000000 5.37362000e+07
5930.000000 5.32586000e+07
5950.000000 5.24011000e+07
5970.000000 5.20664000e+07
5990.000000 5.13896000e+07
6010.000000 5.11128000e+07
6030.000000 5.06065000e+07
6050.000000 5.00460000e+07
6070.000000 4.95521000e+07
6090.000000 4.90464000e+07
6110.000000 4.85926000e+07
6130.000000 4.80906000e+07
6150.000000 4.71648000e+07
6170.000000 4.71376000e+07
6190.000000 4.67037000e+07
6210.000000 4.62617000e+07
6230.000000 4.57293000e+07
6250.000000 4.48632000e+07
6270.000000 4.49196000e+07
6290.000000 4.44554000e+07
6310.000000 4.38816000e+07
6330.000000 4.35785000e+07
6350.000000 4.26691000e+07
6370.000000 4.23858000e+07
6390.000000 4.22795000e+07
6410.000000 4.18208000e+07
6430.000000 4.15018000e+07
6450.000000 4.08491000e+07
6470.000000 4.07644000e+07
6490.000000 4.02103000e+07
6510.000000 3.98205000e+07
6530.000000 3.93693000e+07
6550.000000 3.76066000e+07
6570.000000 3.17234000e+07
6590.000000 3.81265000e+07
6610.000000 3.80583000e+07
6630.000000 3.77236000e+07
6650.000000 3.74238000e+07
6670.000000 3.70007000e+07
6690.000000 3.66737000e+07
6710.000000 3.63902000e+07
6730.000000 3.60236000e+07
6750.000000 3.57113000e+07
6770.000000 3.53929000e+07
6790.000000 3.50482000e+07
6810.000000 3.47306000e+07
6830.000000 3.43740000e+07
6850.000000 3.40773000e+07
6870.000000 3.37730000e+07
6890.000000 3.34804000e+07
6910.000000 3.31590000e+07
6930.000000 3.28251000e+07
6950.000000 3.25741000e+07
6970.000000 3.22804000e+07
6990.000000 3.20119000e+07
7010.000000 3.16785000e+07
7030.000000 3.14383000e+07
7050.000000 3.10744000e+07
7070.000000 3.08152000e+07
7090.000000 3.06086000e+07
7110.000000 3.02772000e+07
7130.000000 3.00298000e+07
7150.000000 2.97861000e+07
7170.000000 2.95256000e+07
7190.000000 2.92654000e+07
7210.000000 2.90207000e+07
7230.000000 2.86989000e+07
7250.000000 2.84877000e+07
7270.000000 2.82549000e+07
7290.000000 2.79931000e+07
7310.000000 2.77252000e+07
7330.000000 2.75159000e+07
7350.000000 2.73078000e+07
7370.000000 2.70752000e+07
7390.000000 2.68377000e+07
7410.000000 2.65922000e+07
7430.000000 2.63155000e+07
7450.000000 2.61085000e+07
7470.000000 2.58326000e+07
7490.000000 2.56639000e+07
7510.000000 2.54105000e+07
7530.000000 2.52644000e+07
7550.000000 2.50560000e+07
7570.000000 2.48430000e+07
7590.000000 2.46272000e+07
7610.000000 2.44407000e+07
7630.000000 2.42260000e+07
7650.000000 2.39881000e+07
7670.000000 2.38100000e+07
7690.000000 2.36099000e+07
7710.000000 2.33824000e+07
7730.000000 2.32256000e+07
7750.000000 2.30312000e+07
7770.000000 2.24579000e+07
7790.000000 2.26513000e+07
7810.000000 2.24798000e+07
7830.000000 2.22840000e+07
7850.000000 2.20367000e+07
7870.000000 2.18215000e+07
7890.000000 2.16002000e+07
7910.000000 2.15574000e+07
7930.000000 2.13979000e+07
7950.000000 2.11443000e+07
7970.000000 2.10484000e+07
7990.000000 2.06959000e+07
8010.000000 2.07095000e+07
8030.000000 2.05405000e+07
8050.000000 2.03752000e+07
8070.000000 2.02083000e+07
8090.000000 2.00452000e+07
8110.000000 1.98772000e+07
8130.000000 1.97322000e+07
8150.000000 1.95759000e+07
8170.000000 1.94254000e+07
8190.000000 1.92273000e+07
8210.000000 1.90427000e+07
8230.000000 1.88674000e+07
8250.000000 1.88352000e+07
8270.000000 1.87365000e+07
8290.000000 1.85207000e+07
8310.000000 1.83924000e+07
8330.000000 1.81597000e+07
8350.000000 1.80442000e+07
8370.000000 1.77107000e+07
8390.000000 1.76553000e+07
8410.000000 1.74659000e+07
8430.000000 1.77193000e+07
8450.000000 1.74081000e+07
8470.000000 1.68817000e+07
8490.000000 1.81293000e+07
8510.000000 1.65762000e+07
8530.000000 1.82838000e+07
8550.000000 1.61808000e+07
8570.000000 1.83936000e+07
8590.000000 1.73870000e+07
8610.000000 1.68860000e+07
8630.000000 1.85039000e+07
8650.000000 1.82261000e+07
8670.000000 1.55270000e+07
8690.000000 1.81181000e+07
8710.000000 1.81914000e+07
8730.000000 1.79114000e+07
8750.000000 1.51528000e+07
8770.000000 1.74785000e+07
8790.000000 1.76789000e+07
8810.000000 1.75570000e+07
8830.000000 1.73070000e+07
8850.000000 1.67709000e+07
8870.000000 1.46106000e+07
8890.000000 1.69264000e+07
8910.000000 1.68600000e+07
8930.000000 1.66976000e+07
8950.000000 1.66607000e+07
8970.000000 1.65312000e+07
8990.000000 1.63067000e+07
9010.000000 1.41851000e+07
9030.000000 1.53629000e+07
9050.000000 1.59841000e+07
9070.000000 1.57451000e+07
9090.000000 1.56135000e+07
9110.000000 1.56108000e+07
9130.000000 1.55045000e+07
9150.000000 1.54463000e+07
9170.000000 1.52844000e+07
9190.000000 1.50882000e+07
9210.000000 1.48375000e+07
9230.000000 1.25339000e+07
9250.000000 1.44915000e+07
9270.000000 1.44312000e+07
9290.000000 1.46158000e+07
9310.000000 1.45496000e+07
9330.000000 1.44224000e+07
9350.000000 1.43465000e+07
9370.000000 1.42420000e+07
9390.000000 1.40985000e+07
9410.000000 1.38650000e+07
9430.000000 1.39181000e+07
9450.000000 1.38365000e+07
9470.000000 1.37244000e+07
9490.000000 1.36306000e+07
9510.000000 1.34967000e+07
9530.000000 1.32061000e+07
9550.000000 1.12751000e+07
9570.000000 1.30997000e+07
9590.000000 1.31401000e+07
9610.000000 1.30402000e+07
9630.000000 1.28183000e+07
9650.000000 1.28761000e+07
9670.000000 1.27403000e+07
9690.000000 1.26882000e+07
9710.000000 1.26100000e+07
9730.000000 1.25180000e+07
9750.000000 1.24243000e+07
9770.000000 1.23455000e+07
9790.000000 1.22538000e+07
9810.000000 1.21604000e+07
9830.000000 1.20666000e+07
9850.000000 1.19811000e+07
9870.000000 1.19055000e+07
9890.000000 1.17985000e+07
9910.000000 1.17444000e+07
9930.000000 1.16612000e+07
9950.000000 1.15782000e+07
9970.000000 1.15042000e+07
9990.000000 1.14230000e+07
10025.000000 1.10001000e+07
10075.000000 1.04788000e+07
10125.000000 1.08360000e+07
10175.000000 1.07043000e+07
10225.000000 1.05404000e+07
10275.000000 1.03625000e+07
10325.000000 1.01832000e+07
10375.000000 1.00153000e+07
10425.000000 9.85321000e+06
10475.000000 9.67800000e+06
10525.000000 9.50873000e+06
10575.000000 9.36849000e+06
10625.000000 9.22013000e+06
10675.000000 9.01263000e+06
10725.000000 8.90423000e+06
10775.000000 8.77246000e+06
10825.000000 8.61734000e+06
10875.000000 8.48923000e+06
10925.000000 7.75928000e+06
10975.000000 8.13944000e+06
11025.000000 8.09894000e+06
11075.000000 7.97346000e+06
11125.000000 7.84685000e+06
11175.000000 7.72400000e+06
11225.000000 7.60481000e+06
11275.000000 7.43231000e+06
11325.000000 7.33246000e+06
11375.000000 7.25533000e+06
11425.000000 7.14319000e+06
11475.000000 7.03702000e+06
11525.000000 6.93043000e+06
11575.000000 6.82457000e+06
11625.000000 6.70661000e+06
11675.000000 6.60258000e+06
11725.000000 6.51871000e+06
11775.000000 6.39228000e+06
11825.000000 6.32002000e+06
11875.000000 6.22283000e+06
11925.000000 6.14214000e+06
11975.000000 6.04498000e+06
12025.000000 5.96121000e+06
12075.000000 5.87344000e+06
12125.000000 5.78718000e+06
12175.000000 5.70442000e+06
12225.000000 5.62130000e+06
12275.000000 5.53834000e+06
12325.000000 5.45977000e+06
12375.000000 5.38228000e+06
12425.000000 5.30709000e+06
12475.000000 5.22130000e+06
12525.000000 5.15664000e+06
12575.000000 5.07736000e+06
12625.000000 5.00980000e+06
12675.000000 4.94269000e+06
12725.000000 4.87391000e+06
12775.000000 4.78989000e+06
12825.000000 4.40447000e+06
12875.000000 4.66623000e+06
12925.000000 4.60945000e+06
12975.000000 4.54602000e+06
13025.000000 4.48432000e+06
13075.000000 4.42298000e+06
13125.000000 4.36289000e+06
13175.000000 4.29576000e+06
13225.000000 4.24589000e+06
13275.000000 4.18874000e+06
13325.000000 4.13254000e+06
13375.000000 4.07727000e+06
13425.000000 4.02167000e+06
13475.000000 3.96802000e+06
13525.000000 3.91422000e+06
13575.000000 3.86377000e+06
13625.000000 3.81294000e+06
13675.000000 3.76053000e+06
13725.000000 3.71158000e+06
13775.000000 3.66682000e+06
13825.000000 3.61906000e+06
13875.000000 3.57267000e+06
13925.000000 3.52588000e+06
13975.000000 3.48083000e+06
14025.000000 3.43671000e+06
14075.000000 3.39294000e+06
14125.000000 3.34895000e+06
14175.000000 3.30736000e+06
14225.000000 3.26535000e+06
14275.000000 3.22440000e+06
14325.000000 3.18357000e+06
14375.000000 3.14360000e+06
14425.000000 3.09704000e+06
14475.000000 3.06525000e+06
14525.000000 3.02400000e+06
