# Kurucz ODFNEW /NOVER, alpha: 0.0 (2003)
# teff = 20000 K (value for the effective temperature for the model. Temperatures are given in K)
# logg = 3 log(cm/s2) (value for Log(G) for the model.)
# lh = 1.25  (l/Hp where l is the  mixing length of the convective element and Hp is the pressure scale height)
# meta = -2.5  (value for the Metallicity for the model.)
# vtur = 2 km/s (Microturbulence velocity)
# alpha = 0  (Alpha)
#
# column 1: WAVELENGTH (ANGSTROM), Wavelength in Angstrom
# column 2: FLUX (ERG/CM2/S/A), Flux in erg/cm2/s/A
147.200000 5.43243000e-20
151.000000 3.83570000e-19
155.200000 2.96791000e-18
158.800000 1.56937000e-17
162.000000 6.47003000e-17
166.000000 3.51164000e-16
170.300000 1.97483000e-15
173.400000 6.49250000e-15
176.800000 2.27894000e-14
180.200000 7.61660000e-14
181.700000 1.27791000e-13
186.100000 5.54599000e-13
191.000000 2.61824000e-12
193.900000 6.31309000e-12
198.400000 2.34598000e-11
201.800000 6.07391000e-11
205.000000 1.44300000e-10
210.500000 5.98768000e-10
216.200000 2.41573000e-09
219.800000 5.60657000e-09
223.000000 1.15703000e-08
226.800000 2.65983000e-08
230.000000 6.39543000e-08
234.000000 1.49402000e-07
240.000000 4.75954000e-07
246.500000 1.56365000e-06
252.400000 4.36665000e-06
256.800000 9.03117000e-06
260.000000 1.52124000e-05
264.000000 2.84736000e-05
268.500000 5.62803000e-05
273.500000 1.16727000e-04
278.500000 2.35663000e-04
284.000000 4.95200000e-04
290.000000 1.07608000e-03
296.000000 2.26125000e-03
301.000000 4.10123000e-03
308.000000 9.08862000e-03
318.000000 2.67604000e-02
328.000000 7.32456000e-02
338.000000 1.88114000e-01
348.000000 4.55980000e-01
357.000000 9.66469000e-01
366.000000 1.96920000e+00
375.000000 3.86628000e+00
385.000000 7.86144000e+00
395.000000 1.53724000e+01
405.000000 2.89969000e+01
414.000000 4.98903000e+01
422.000000 7.91097000e+01
430.000000 1.23100000e+02
441.000000 2.19706000e+02
451.000000 3.62077000e+02
460.000000 5.56068000e+02
470.000000 8.76778000e+02
480.000000 1.35353000e+03
490.000000 2.04871000e+03
500.000000 3.04397000e+03
506.000000 1.86793000e+04
512.000000 5.44909000e+04
520.000000 7.11244000e+04
530.000000 1.09227000e+05
540.000000 1.20378000e+05
550.000000 1.84579000e+05
560.000000 2.32092000e+05
570.000000 2.92641000e+05
580.000000 2.93925000e+05
590.000000 4.04511000e+05
600.000000 5.43118000e+05
610.000000 6.63098000e+05
620.000000 7.95660000e+05
630.000000 9.52312000e+05
640.000000 1.11713000e+06
650.000000 1.32653000e+06
658.000000 1.51548000e+06
665.000000 1.68718000e+06
675.000000 1.93944000e+06
685.000000 2.23850000e+06
695.000000 2.61833000e+06
705.000000 2.99117000e+06
716.000000 3.45420000e+06
726.000000 3.91070000e+06
735.000000 4.39293000e+06
745.000000 4.96609000e+06
755.000000 5.58103000e+06
765.000000 6.24081000e+06
775.000000 6.97165000e+06
785.000000 7.75315000e+06
795.000000 8.58277000e+06
805.000000 9.48124000e+06
815.000000 1.04235000e+07
825.000000 1.14703000e+07
835.000000 1.24248000e+07
845.000000 1.36942000e+07
855.000000 1.48682000e+07
865.000000 1.62307000e+07
875.000000 1.76333000e+07
885.000000 1.91028000e+07
895.000000 2.06221000e+07
905.000000 2.19922000e+07
915.000000 4.92586000e+07
925.000000 8.55366000e+08
935.000000 2.70947000e+09
945.000000 6.22746000e+09
955.000000 7.45590000e+09
965.000000 9.03083000e+09
975.000000 4.29387000e+09
985.000000 9.34305000e+09
995.000000 9.03481000e+09
1005.000000 9.34564000e+09
1015.000000 8.83768000e+09
1025.000000 4.16020000e+09
1035.000000 8.13790000e+09
1045.000000 9.43699000e+09
1055.000000 9.22239000e+09
1065.000000 8.61921000e+09
1075.000000 8.95740000e+09
1085.000000 8.47399000e+09
1095.000000 8.87825000e+09
1105.000000 8.54921000e+09
1115.000000 8.53230000e+09
1125.000000 8.14286000e+09
1135.000000 8.35591000e+09
1145.000000 8.07841000e+09
1155.000000 8.22266000e+09
1165.000000 8.14345000e+09
1175.000000 7.33171000e+09
1185.000000 7.90334000e+09
1195.000000 7.42682000e+09
1205.000000 6.61600000e+09
1215.000000 2.72679000e+09
1225.000000 6.73136000e+09
1235.000000 7.28697000e+09
1245.000000 7.23965000e+09
1255.000000 7.13622000e+09
1265.000000 7.01065000e+09
1275.000000 7.04132000e+09
1285.000000 6.93626000e+09
1295.000000 6.49820000e+09
1305.000000 6.53482000e+09
1315.000000 6.65454000e+09
1325.000000 6.47358000e+09
1335.000000 6.23597000e+09
1345.000000 6.35454000e+09
1355.000000 6.31157000e+09
1365.000000 6.19416000e+09
1375.000000 6.09980000e+09
1385.000000 6.03227000e+09
1395.000000 5.82142000e+09
1405.000000 5.79400000e+09
1415.000000 5.77487000e+09
1425.000000 5.70968000e+09
1435.000000 5.64685000e+09
1442.000000 5.60339000e+09
1447.000000 5.56041000e+09
1455.000000 5.49570000e+09
1465.000000 5.41128000e+09
1475.000000 5.34023000e+09
1485.000000 5.26325000e+09
1495.000000 5.19021000e+09
1505.000000 5.09186000e+09
1512.000000 5.03263000e+09
1517.000000 5.01473000e+09
1525.000000 4.95464000e+09
1535.000000 4.81227000e+09
1545.000000 4.79106000e+09
1555.000000 4.69131000e+09
1565.000000 4.69215000e+09
1575.000000 4.64597000e+09
1585.000000 4.58393000e+09
1595.000000 4.52945000e+09
1605.000000 4.41644000e+09
1615.000000 4.35628000e+09
1625.000000 4.33693000e+09
1635.000000 4.29334000e+09
1645.000000 4.20315000e+09
1655.000000 4.17631000e+09
1665.000000 4.13363000e+09
1672.000000 4.04761000e+09
1677.000000 4.07643000e+09
1685.000000 4.03011000e+09
1695.000000 3.96212000e+09
1705.000000 3.90048000e+09
1715.000000 3.83143000e+09
1725.000000 3.79258000e+09
1735.000000 3.75162000e+09
1745.000000 3.69674000e+09
1755.000000 3.66782000e+09
1765.000000 3.56168000e+09
1775.000000 3.54904000e+09
1785.000000 3.51991000e+09
1795.000000 3.48232000e+09
1805.000000 3.44546000e+09
1815.000000 3.38622000e+09
1825.000000 3.34943000e+09
1835.000000 3.30699000e+09
1845.000000 3.22221000e+09
1855.000000 3.14081000e+09
1865.000000 3.12780000e+09
1875.000000 3.13246000e+09
1885.000000 3.03443000e+09
1895.000000 2.96010000e+09
1905.000000 2.99295000e+09
1915.000000 2.91020000e+09
1925.000000 2.87120000e+09
1935.000000 2.86947000e+09
1945.000000 2.85817000e+09
1955.000000 2.76572000e+09
1967.000000 2.78096000e+09
1976.000000 2.77199000e+09
1984.000000 2.71293000e+09
1995.000000 2.64514000e+09
2005.000000 2.66014000e+09
2015.000000 2.64503000e+09
2025.000000 2.62246000e+09
2035.000000 2.57383000e+09
2045.000000 2.54286000e+09
2055.000000 2.48642000e+09
2065.000000 2.46434000e+09
2074.000000 2.47864000e+09
2078.000000 2.42680000e+09
2085.000000 2.42673000e+09
2095.000000 2.37856000e+09
2105.000000 2.37361000e+09
2115.000000 2.35299000e+09
2125.000000 2.33448000e+09
2135.000000 2.30490000e+09
2145.000000 2.27109000e+09
2155.000000 2.25201000e+09
2165.000000 2.22691000e+09
2175.000000 2.19947000e+09
2185.000000 2.17607000e+09
2195.000000 2.15309000e+09
2205.000000 2.12787000e+09
2215.000000 2.10394000e+09
2225.000000 2.07822000e+09
2235.000000 2.05484000e+09
2245.000000 2.03388000e+09
2255.000000 2.00929000e+09
2265.000000 1.98865000e+09
2275.000000 1.96633000e+09
2285.000000 1.94540000e+09
2295.000000 1.91153000e+09
2305.000000 1.90200000e+09
2315.000000 1.87928000e+09
2325.000000 1.85932000e+09
2335.000000 1.83624000e+09
2345.000000 1.81527000e+09
2355.000000 1.79920000e+09
2365.000000 1.77796000e+09
2375.000000 1.75935000e+09
2385.000000 1.73780000e+09
2395.000000 1.71990000e+09
2405.000000 1.70211000e+09
2415.000000 1.68262000e+09
2425.000000 1.66762000e+09
2435.000000 1.64880000e+09
2445.000000 1.63150000e+09
2455.000000 1.61517000e+09
2465.000000 1.59726000e+09
2475.000000 1.58063000e+09
2485.000000 1.56366000e+09
2495.000000 1.53451000e+09
2505.000000 1.53093000e+09
2513.000000 1.51362000e+09
2518.000000 1.50975000e+09
2525.000000 1.49856000e+09
2535.000000 1.48236000e+09
2545.000000 1.46527000e+09
2555.000000 1.45313000e+09
2565.000000 1.43724000e+09
2575.000000 1.42382000e+09
2585.000000 1.40900000e+09
2595.000000 1.39441000e+09
2605.000000 1.39127000e+09
2615.000000 1.37740000e+09
2625.000000 1.36179000e+09
2635.000000 1.34377000e+09
2645.000000 1.33330000e+09
2655.000000 1.31868000e+09
2665.000000 1.30403000e+09
2675.000000 1.29056000e+09
2685.000000 1.28468000e+09
2695.000000 1.26339000e+09
2705.000000 1.25900000e+09
2715.000000 1.24632000e+09
2725.000000 1.22502000e+09
2735.000000 1.22177000e+09
2745.000000 1.20733000e+09
2755.000000 1.19595000e+09
2765.000000 1.17643000e+09
2775.000000 1.17442000e+09
2785.000000 1.16275000e+09
2795.000000 1.14282000e+09
2805.000000 1.13708000e+09
2815.000000 1.12930000e+09
2825.000000 1.10886000e+09
2835.000000 1.10269000e+09
2845.000000 1.09677000e+09
2855.000000 1.08628000e+09
2865.000000 1.07595000e+09
2875.000000 1.06561000e+09
2885.000000 1.05552000e+09
2895.000000 1.04545000e+09
2910.000000 1.03057000e+09
2930.000000 1.01110000e+09
2950.000000 9.86488000e+08
2970.000000 9.73844000e+08
2990.000000 9.55719000e+08
3010.000000 9.38154000e+08
3030.000000 9.21091000e+08
3050.000000 9.04313000e+08
3070.000000 8.87932000e+08
3090.000000 8.71740000e+08
3110.000000 8.56201000e+08
3130.000000 8.41949000e+08
3150.000000 8.26660000e+08
3170.000000 8.11763000e+08
3190.000000 7.91805000e+08
3210.000000 7.83505000e+08
3230.000000 7.69715000e+08
3250.000000 7.56205000e+08
3270.000000 7.43918000e+08
3290.000000 7.30133000e+08
3310.000000 7.18620000e+08
3330.000000 7.06344000e+08
3350.000000 6.93169000e+08
3370.000000 6.82644000e+08
3390.000000 6.71170000e+08
3410.000000 6.59951000e+08
3430.000000 6.46097000e+08
3450.000000 6.33279000e+08
3470.000000 6.24717000e+08
3490.000000 6.15103000e+08
3510.000000 6.08205000e+08
3530.000000 5.98582000e+08
3550.000000 5.89016000e+08
3570.000000 5.81578000e+08
3590.000000 5.69767000e+08
3610.000000 5.61101000e+08
3630.000000 5.51590000e+08
3640.000000 5.49985000e+08
3650.000000 5.44883000e+08
3670.000000 5.37590000e+08
3690.000000 5.18276000e+08
3710.000000 5.22584000e+08
3730.000000 5.29234000e+08
3750.000000 5.93578000e+08
3770.000000 5.96442000e+08
3790.000000 6.12745000e+08
3810.000000 6.36408000e+08
3830.000000 5.65702000e+08
3850.000000 6.44043000e+08
3870.000000 6.35265000e+08
3890.000000 5.43033000e+08
3910.000000 6.23812000e+08
3930.000000 6.11113000e+08
3950.000000 6.04143000e+08
3970.000000 5.04803000e+08
3990.000000 5.83335000e+08
4010.000000 5.73759000e+08
4030.000000 5.50333000e+08
4050.000000 5.59565000e+08
4070.000000 5.50053000e+08
4090.000000 5.25792000e+08
4110.000000 4.66560000e+08
4130.000000 5.19455000e+08
4150.000000 5.12536000e+08
4170.000000 5.07111000e+08
4190.000000 5.00629000e+08
4210.000000 4.92866000e+08
4230.000000 4.85226000e+08
4250.000000 4.77729000e+08
4270.000000 4.69979000e+08
4290.000000 4.63172000e+08
4310.000000 4.55557000e+08
4330.000000 4.29376000e+08
4350.000000 3.93602000e+08
4370.000000 4.34887000e+08
4390.000000 4.21942000e+08
4410.000000 4.22695000e+08
4430.000000 4.14721000e+08
4450.000000 4.10260000e+08
4470.000000 3.92927000e+08
4490.000000 3.98143000e+08
4510.000000 3.92378000e+08
4530.000000 3.86608000e+08
4550.000000 3.80942000e+08
4570.000000 3.75396000e+08
4590.000000 3.69968000e+08
4610.000000 3.64638000e+08
4630.000000 3.59368000e+08
4650.000000 3.54123000e+08
4670.000000 3.49144000e+08
4690.000000 3.44169000e+08
4710.000000 3.35665000e+08
4730.000000 3.34416000e+08
4750.000000 3.29618000e+08
4770.000000 3.25155000e+08
4790.000000 3.20606000e+08
4810.000000 3.16105000e+08
4830.000000 3.11297000e+08
4850.000000 2.96691000e+08
4870.000000 2.67256000e+08
4890.000000 2.98127000e+08
4910.000000 2.94860000e+08
4930.000000 2.86179000e+08
4950.000000 2.86885000e+08
4970.000000 2.82994000e+08
4990.000000 2.79157000e+08
5010.000000 2.72655000e+08
5030.000000 2.71682000e+08
5050.000000 2.66565000e+08
5070.000000 2.64466000e+08
5090.000000 2.60938000e+08
5110.000000 2.57486000e+08
5130.000000 2.54065000e+08
5150.000000 2.50717000e+08
5170.000000 2.47428000e+08
5190.000000 2.44182000e+08
5210.000000 2.40979000e+08
5230.000000 2.37858000e+08
5250.000000 2.34778000e+08
5270.000000 2.31738000e+08
5290.000000 2.28751000e+08
5310.000000 2.25815000e+08
5330.000000 2.22917000e+08
5350.000000 2.20069000e+08
5370.000000 2.17270000e+08
5390.000000 2.14519000e+08
5410.000000 2.11803000e+08
5430.000000 2.09134000e+08
5450.000000 2.06499000e+08
5470.000000 2.03921000e+08
5490.000000 2.01376000e+08
5510.000000 1.98862000e+08
5530.000000 1.96404000e+08
5550.000000 1.93975000e+08
5570.000000 1.91577000e+08
5590.000000 1.89220000e+08
5610.000000 1.86904000e+08
5630.000000 1.84615000e+08
5650.000000 1.82355000e+08
5670.000000 1.80145000e+08
5690.000000 1.77962000e+08
5710.000000 1.75816000e+08
5730.000000 1.73707000e+08
5750.000000 1.71612000e+08
5770.000000 1.69564000e+08
5790.000000 1.67541000e+08
5810.000000 1.65552000e+08
5830.000000 1.63587000e+08
5850.000000 1.61645000e+08
5870.000000 1.55964000e+08
5890.000000 1.57828000e+08
5910.000000 1.56017000e+08
5930.000000 1.54185000e+08
5950.000000 1.52394000e+08
5970.000000 1.50625000e+08
5990.000000 1.48875000e+08
6010.000000 1.47156000e+08
6030.000000 1.45466000e+08
6050.000000 1.43796000e+08
6070.000000 1.42144000e+08
6090.000000 1.40521000e+08
6110.000000 1.38927000e+08
6130.000000 1.37350000e+08
6150.000000 1.35791000e+08
6170.000000 1.34259000e+08
6190.000000 1.32744000e+08
6210.000000 1.31255000e+08
6230.000000 1.29793000e+08
6250.000000 1.28336000e+08
6270.000000 1.26915000e+08
6290.000000 1.25500000e+08
6310.000000 1.24119000e+08
6330.000000 1.22744000e+08
6350.000000 1.21383000e+08
6370.000000 1.20056000e+08
6390.000000 1.18752000e+08
6410.000000 1.17453000e+08
6430.000000 1.16176000e+08
6450.000000 1.14914000e+08
6470.000000 1.13664000e+08
6490.000000 1.12437000e+08
6510.000000 1.11232000e+08
6530.000000 1.09907000e+08
6550.000000 1.06743000e+08
6570.000000 9.59434000e+07
6590.000000 1.06093000e+08
6610.000000 1.05417000e+08
6630.000000 1.04302000e+08
6650.000000 1.03275000e+08
6670.000000 1.01446000e+08
6690.000000 1.00394000e+08
6710.000000 1.00056000e+08
6730.000000 9.90047000e+07
6750.000000 9.79724000e+07
6770.000000 9.69587000e+07
6790.000000 9.59471000e+07
6810.000000 9.49539000e+07
6830.000000 9.39786000e+07
6850.000000 9.30051000e+07
6870.000000 9.20573000e+07
6890.000000 9.11110000e+07
6910.000000 9.01820000e+07
6930.000000 8.92543000e+07
6950.000000 8.83513000e+07
6970.000000 8.74573000e+07
6990.000000 8.65643000e+07
7010.000000 8.57031000e+07
7030.000000 8.48350000e+07
7050.000000 8.39905000e+07
7070.000000 8.19182000e+07
7090.000000 8.23185000e+07
7110.000000 8.14984000e+07
7130.000000 8.06861000e+07
7150.000000 7.98890000e+07
7170.000000 7.90848000e+07
7190.000000 7.83175000e+07
7210.000000 7.75503000e+07
7230.000000 7.67471000e+07
7250.000000 7.60375000e+07
7270.000000 7.52919000e+07
7290.000000 7.40003000e+07
7310.000000 7.38215000e+07
7330.000000 7.31177000e+07
7350.000000 7.24135000e+07
7370.000000 7.17158000e+07
7390.000000 7.10247000e+07
7410.000000 7.03399000e+07
7430.000000 6.96683000e+07
7450.000000 6.90164000e+07
7470.000000 6.83571000e+07
7490.000000 6.77104000e+07
7510.000000 6.70363000e+07
7530.000000 6.64309000e+07
7550.000000 6.58038000e+07
7570.000000 6.51844000e+07
7590.000000 6.45719000e+07
7610.000000 6.39669000e+07
7630.000000 6.33686000e+07
7650.000000 6.27770000e+07
7670.000000 6.21945000e+07
7690.000000 6.16121000e+07
7710.000000 6.10400000e+07
7730.000000 6.04825000e+07
7750.000000 5.99173000e+07
7770.000000 5.93690000e+07
7790.000000 5.88293000e+07
7810.000000 5.82436000e+07
7830.000000 5.77590000e+07
7850.000000 5.72982000e+07
7870.000000 5.67744000e+07
7890.000000 5.62267000e+07
7910.000000 5.57320000e+07
7930.000000 5.51253000e+07
7950.000000 5.46105000e+07
7970.000000 5.40853000e+07
7990.000000 5.36325000e+07
8010.000000 5.31413000e+07
8030.000000 5.26999000e+07
8050.000000 5.22547000e+07
8070.000000 5.18259000e+07
8090.000000 5.12626000e+07
8110.000000 5.08508000e+07
8130.000000 5.04864000e+07
8150.000000 4.99315000e+07
8170.000000 4.96061000e+07
8190.000000 4.91271000e+07
8210.000000 4.85918000e+07
8230.000000 4.83236000e+07
8250.000000 4.79053000e+07
8270.000000 4.72470000e+07
8290.000000 4.70078000e+07
8310.000000 4.66176000e+07
8330.000000 4.62051000e+07
8350.000000 4.55944000e+07
8370.000000 4.52337000e+07
8390.000000 4.48926000e+07
8410.000000 4.44556000e+07
8430.000000 4.40546000e+07
8450.000000 4.35202000e+07
8470.000000 4.28859000e+07
8490.000000 4.32872000e+07
8510.000000 4.19276000e+07
8530.000000 4.28656000e+07
8550.000000 4.05323000e+07
8570.000000 4.29065000e+07
8590.000000 4.05662000e+07
8610.000000 4.02077000e+07
8630.000000 4.23676000e+07
8650.000000 4.12113000e+07
8670.000000 3.75743000e+07
8690.000000 4.15546000e+07
8710.000000 4.15765000e+07
8730.000000 4.03917000e+07
8750.000000 3.61414000e+07
8770.000000 3.94339000e+07
8790.000000 4.02712000e+07
8810.000000 3.99119000e+07
8830.000000 3.95743000e+07
8850.000000 3.75674000e+07
8870.000000 3.45826000e+07
8890.000000 3.84127000e+07
8910.000000 3.83396000e+07
8930.000000 3.80231000e+07
8950.000000 3.78176000e+07
8970.000000 3.74918000e+07
8990.000000 3.66833000e+07
9010.000000 3.29937000e+07
9030.000000 3.47923000e+07
9050.000000 3.61576000e+07
9070.000000 3.57185000e+07
9090.000000 3.56066000e+07
9110.000000 3.54314000e+07
9130.000000 3.51692000e+07
9150.000000 3.48869000e+07
9170.000000 3.45136000e+07
9190.000000 3.42525000e+07
9210.000000 3.31303000e+07
9230.000000 2.96208000e+07
9250.000000 3.28022000e+07
9270.000000 3.31500000e+07
9290.000000 3.29860000e+07
9310.000000 3.25885000e+07
9330.000000 3.24675000e+07
9350.000000 3.21861000e+07
9370.000000 3.19588000e+07
9390.000000 3.17083000e+07
9410.000000 3.14592000e+07
9430.000000 3.12140000e+07
9450.000000 3.09707000e+07
9470.000000 3.05594000e+07
9490.000000 3.04901000e+07
9510.000000 2.99338000e+07
9530.000000 2.90293000e+07
9550.000000 2.61882000e+07
9570.000000 2.91224000e+07
9590.000000 2.92624000e+07
9610.000000 2.90146000e+07
9630.000000 2.87533000e+07
9650.000000 2.86617000e+07
9670.000000 2.84430000e+07
9690.000000 2.81981000e+07
9710.000000 2.79274000e+07
9730.000000 2.77988000e+07
9750.000000 2.75882000e+07
9770.000000 2.73798000e+07
9790.000000 2.71730000e+07
9810.000000 2.69683000e+07
9830.000000 2.67655000e+07
9850.000000 2.65645000e+07
9870.000000 2.63653000e+07
9890.000000 2.61683000e+07
9910.000000 2.59703000e+07
9930.000000 2.57795000e+07
9950.000000 2.55877000e+07
9970.000000 2.53975000e+07
9990.000000 2.52091000e+07
10025.000000 2.41776000e+07
10075.000000 2.34324000e+07
10125.000000 2.39376000e+07
10175.000000 2.35494000e+07
10225.000000 2.31131000e+07
10275.000000 2.27089000e+07
10325.000000 2.22312000e+07
10375.000000 2.19054000e+07
10425.000000 2.15173000e+07
10475.000000 2.11372000e+07
10525.000000 2.07658000e+07
10575.000000 2.04025000e+07
10625.000000 2.00471000e+07
10675.000000 1.96653000e+07
10725.000000 1.93593000e+07
10775.000000 1.90265000e+07
10825.000000 1.85007000e+07
10875.000000 1.83692000e+07
10925.000000 1.69844000e+07
10975.000000 1.75625000e+07
11025.000000 1.73775000e+07
11075.000000 1.71690000e+07
11125.000000 1.68863000e+07
11175.000000 1.66058000e+07
11225.000000 1.63213000e+07
11275.000000 1.60616000e+07
11325.000000 1.57981000e+07
11375.000000 1.55399000e+07
11425.000000 1.52867000e+07
11475.000000 1.50388000e+07
11525.000000 1.47960000e+07
11575.000000 1.45579000e+07
11625.000000 1.43248000e+07
11675.000000 1.40962000e+07
11725.000000 1.38721000e+07
11775.000000 1.36527000e+07
11825.000000 1.34375000e+07
11875.000000 1.32265000e+07
11925.000000 1.30197000e+07
11975.000000 1.27365000e+07
12025.000000 1.26178000e+07
12075.000000 1.24228000e+07
12125.000000 1.22316000e+07
12175.000000 1.20440000e+07
12225.000000 1.18599000e+07
12275.000000 1.16795000e+07
12325.000000 1.15023000e+07
12375.000000 1.13287000e+07
12425.000000 1.11581000e+07
12475.000000 1.09909000e+07
12525.000000 1.08070000e+07
12575.000000 1.06655000e+07
12625.000000 1.05074000e+07
12675.000000 1.03523000e+07
12725.000000 1.01999000e+07
12775.000000 9.93643000e+06
12825.000000 9.33552000e+06
12875.000000 9.73563000e+06
12925.000000 9.61783000e+06
12975.000000 9.43152000e+06
13025.000000 9.34259000e+06
13075.000000 9.20869000e+06
