# Kurucz ODFNEW /NOVER, alpha: 0.0 (2003)
# teff = 19000 K (value for the effective temperature for the model. Temperatures are given in K)
# logg = 4.5 log(cm/s2) (value for Log(G) for the model.)
# lh = 1.25  (l/Hp where l is the  mixing length of the convective element and Hp is the pressure scale height)
# meta = -2  (value for the Metallicity for the model.)
# vtur = 2 km/s (Microturbulence velocity)
# alpha = 0  (Alpha)
#
# column 1: WAVELENGTH (ANGSTROM), Wavelength in Angstrom
# column 2: FLUX (ERG/CM2/S/A), Flux in erg/cm2/s/A
147.200000 3.39177000e-22
151.000000 2.59007000e-21
155.200000 2.09690000e-20
158.800000 1.15174000e-19
162.000000 4.93004000e-19
166.000000 2.81699000e-18
170.300000 1.68061000e-17
173.400000 5.77243000e-17
176.800000 2.12986000e-16
180.200000 7.49130000e-16
181.700000 1.28567000e-15
186.100000 5.96990000e-15
191.000000 3.04112000e-14
193.900000 7.66170000e-14
198.400000 3.04896000e-13
201.800000 8.32162000e-13
205.000000 2.07831000e-12
210.500000 9.37355000e-12
216.200000 4.11834000e-11
219.800000 1.00779000e-10
223.000000 2.17679000e-10
226.800000 5.28325000e-10
230.000000 1.21814000e-09
234.000000 3.00353000e-09
240.000000 1.05177000e-08
246.500000 3.79884000e-08
252.400000 1.14990000e-07
256.800000 2.53060000e-07
260.000000 4.43721000e-07
264.000000 8.74581000e-07
268.500000 1.82882000e-06
273.500000 4.02927000e-06
278.500000 8.62528000e-06
284.000000 1.92872000e-05
290.000000 4.47506000e-05
296.000000 1.00138000e-04
301.000000 1.91061000e-04
308.000000 4.54153000e-04
318.000000 1.46409000e-03
328.000000 4.37225000e-03
338.000000 1.21915000e-02
348.000000 3.19354000e-02
357.000000 7.23255000e-02
366.000000 1.56968000e-01
375.000000 3.27289000e-01
385.000000 7.09159000e-01
395.000000 1.47319000e+00
405.000000 2.94332000e+00
414.000000 5.32049000e+00
422.000000 8.79989000e+00
430.000000 1.42621000e+01
441.000000 2.68540000e+01
451.000000 4.63538000e+01
460.000000 7.40978000e+01
470.000000 1.21935000e+02
480.000000 1.96115000e+02
490.000000 3.08727000e+02
500.000000 4.76307000e+02
506.000000 3.67524000e+03
512.000000 9.58336000e+03
520.000000 1.25035000e+04
530.000000 1.86232000e+04
540.000000 2.25508000e+04
550.000000 3.31871000e+04
560.000000 4.31941000e+04
570.000000 5.60572000e+04
580.000000 6.25702000e+04
590.000000 8.68372000e+04
600.000000 1.13542000e+05
610.000000 1.41661000e+05
620.000000 1.74477000e+05
630.000000 2.13945000e+05
640.000000 2.58376000e+05
650.000000 3.13822000e+05
658.000000 3.63587000e+05
665.000000 4.11278000e+05
675.000000 4.86902000e+05
685.000000 5.73374000e+05
695.000000 6.79529000e+05
705.000000 7.93972000e+05
716.000000 9.36062000e+05
726.000000 1.08264000e+06
735.000000 1.23035000e+06
745.000000 1.41284000e+06
755.000000 1.61471000e+06
765.000000 1.83542000e+06
775.000000 2.08202000e+06
785.000000 2.35083000e+06
795.000000 2.64326000e+06
805.000000 2.96343000e+06
815.000000 3.30871000e+06
825.000000 3.68734000e+06
835.000000 4.05526000e+06
845.000000 4.52793000e+06
855.000000 4.98668000e+06
865.000000 5.50423000e+06
875.000000 6.04194000e+06
885.000000 6.62430000e+06
895.000000 7.23665000e+06
905.000000 7.81172000e+06
915.000000 1.34263000e+07
925.000000 4.61256000e+07
935.000000 1.25629000e+08
945.000000 8.42492000e+08
955.000000 2.86075000e+09
965.000000 4.23243000e+09
975.000000 1.08344000e+09
985.000000 8.07451000e+09
995.000000 9.36891000e+09
1005.000000 9.51013000e+09
1015.000000 6.20334000e+09
1025.000000 4.81138000e+08
1035.000000 4.84300000e+09
1045.000000 9.35040000e+09
1055.000000 9.75921000e+09
1065.000000 9.14201000e+09
1075.000000 9.59863000e+09
1085.000000 8.99306000e+09
1095.000000 9.36714000e+09
1105.000000 8.85065000e+09
1115.000000 8.81533000e+09
1125.000000 8.36105000e+09
1135.000000 8.48137000e+09
1145.000000 8.07094000e+09
1155.000000 8.18820000e+09
1165.000000 8.08682000e+09
1175.000000 7.24658000e+09
1185.000000 7.55377000e+09
1195.000000 6.36261000e+09
1205.000000 3.85674000e+09
1215.000000 3.96960000e+08
1225.000000 3.24957000e+09
1235.000000 6.06482000e+09
1245.000000 6.61502000e+09
1255.000000 6.57915000e+09
1265.000000 6.48001000e+09
1275.000000 6.54840000e+09
1285.000000 6.46239000e+09
1295.000000 6.00512000e+09
1305.000000 5.85194000e+09
1315.000000 6.11054000e+09
1325.000000 5.90922000e+09
1335.000000 5.65382000e+09
1345.000000 5.77144000e+09
1355.000000 5.69416000e+09
1365.000000 5.55887000e+09
1375.000000 5.46695000e+09
1385.000000 5.39320000e+09
1395.000000 5.22013000e+09
1405.000000 5.18101000e+09
1415.000000 5.10710000e+09
1425.000000 5.04124000e+09
1435.000000 4.96116000e+09
1442.000000 4.91692000e+09
1447.000000 4.87130000e+09
1455.000000 4.79635000e+09
1465.000000 4.70546000e+09
1475.000000 4.63339000e+09
1485.000000 4.54472000e+09
1495.000000 4.47368000e+09
1505.000000 4.37933000e+09
1512.000000 4.31679000e+09
1517.000000 4.30262000e+09
1525.000000 4.22536000e+09
1535.000000 4.10286000e+09
1545.000000 4.09963000e+09
1555.000000 3.99332000e+09
1565.000000 3.94445000e+09
1575.000000 3.91351000e+09
1585.000000 3.85648000e+09
1595.000000 3.81435000e+09
1605.000000 3.71095000e+09
1615.000000 3.65243000e+09
1625.000000 3.61247000e+09
1635.000000 3.56644000e+09
1645.000000 3.50831000e+09
1655.000000 3.43578000e+09
1665.000000 3.43133000e+09
1672.000000 3.32288000e+09
1677.000000 3.36244000e+09
1685.000000 3.32846000e+09
1695.000000 3.26728000e+09
1705.000000 3.20107000e+09
1715.000000 3.14451000e+09
1725.000000 3.09119000e+09
1735.000000 3.07731000e+09
1745.000000 3.01975000e+09
1755.000000 2.99730000e+09
1765.000000 2.88023000e+09
1775.000000 2.90048000e+09
1785.000000 2.85755000e+09
1795.000000 2.83375000e+09
1805.000000 2.79342000e+09
1815.000000 2.74648000e+09
1825.000000 2.71715000e+09
1835.000000 2.67609000e+09
1845.000000 2.61473000e+09
1855.000000 2.54359000e+09
1865.000000 2.51996000e+09
1875.000000 2.52498000e+09
1885.000000 2.45871000e+09
1895.000000 2.40367000e+09
1905.000000 2.41722000e+09
1915.000000 2.35341000e+09
1925.000000 2.32293000e+09
1935.000000 2.30753000e+09
1945.000000 2.29781000e+09
1955.000000 2.23582000e+09
1967.000000 2.23384000e+09
1976.000000 2.21846000e+09
1984.000000 2.17811000e+09
1995.000000 2.12652000e+09
2005.000000 2.12776000e+09
2015.000000 2.10716000e+09
2025.000000 2.08759000e+09
2035.000000 2.05411000e+09
2045.000000 2.02849000e+09
2055.000000 1.97383000e+09
2065.000000 1.96350000e+09
2074.000000 1.96349000e+09
2078.000000 1.93116000e+09
2085.000000 1.93104000e+09
2095.000000 1.89643000e+09
2105.000000 1.88551000e+09
2115.000000 1.86620000e+09
2125.000000 1.84885000e+09
2135.000000 1.82430000e+09
2145.000000 1.80028000e+09
2155.000000 1.78142000e+09
2165.000000 1.75576000e+09
2175.000000 1.73543000e+09
2185.000000 1.71690000e+09
2195.000000 1.70012000e+09
2205.000000 1.67691000e+09
2215.000000 1.65458000e+09
2225.000000 1.63297000e+09
2235.000000 1.62058000e+09
2245.000000 1.60124000e+09
2255.000000 1.58033000e+09
2265.000000 1.56486000e+09
2275.000000 1.54561000e+09
2285.000000 1.53088000e+09
2295.000000 1.50684000e+09
2305.000000 1.49393000e+09
2315.000000 1.47578000e+09
2325.000000 1.46151000e+09
2335.000000 1.43693000e+09
2345.000000 1.40942000e+09
2355.000000 1.40930000e+09
2365.000000 1.38400000e+09
2375.000000 1.37591000e+09
2385.000000 1.34976000e+09
2395.000000 1.34081000e+09
2405.000000 1.32662000e+09
2415.000000 1.31191000e+09
2425.000000 1.30663000e+09
2435.000000 1.28905000e+09
2445.000000 1.27557000e+09
2455.000000 1.26589000e+09
2465.000000 1.24838000e+09
2475.000000 1.23721000e+09
2485.000000 1.22446000e+09
2495.000000 1.20383000e+09
2505.000000 1.19977000e+09
2513.000000 1.18480000e+09
2518.000000 1.18367000e+09
2525.000000 1.17091000e+09
2535.000000 1.15383000e+09
2545.000000 1.14630000e+09
2555.000000 1.13953000e+09
2565.000000 1.12419000e+09
2575.000000 1.11639000e+09
2585.000000 1.10399000e+09
2595.000000 1.09175000e+09
2605.000000 1.08261000e+09
2615.000000 1.07313000e+09
2625.000000 1.06399000e+09
2635.000000 1.05191000e+09
2645.000000 1.04769000e+09
2655.000000 1.03607000e+09
2665.000000 1.02242000e+09
2675.000000 1.01305000e+09
2685.000000 1.00761000e+09
2695.000000 9.91589000e+08
2705.000000 9.87463000e+08
2715.000000 9.76676000e+08
2725.000000 9.60744000e+08
2735.000000 9.58264000e+08
2745.000000 9.39696000e+08
2755.000000 9.32291000e+08
2765.000000 9.23440000e+08
2775.000000 9.22325000e+08
2785.000000 9.12702000e+08
2795.000000 8.89738000e+08
2805.000000 8.89104000e+08
2815.000000 8.87695000e+08
2825.000000 8.72122000e+08
2835.000000 8.65371000e+08
2845.000000 8.61765000e+08
2855.000000 8.54121000e+08
2865.000000 8.46608000e+08
2875.000000 8.38405000e+08
2885.000000 8.30747000e+08
2895.000000 8.23174000e+08
2910.000000 8.11818000e+08
2930.000000 7.96122000e+08
2950.000000 7.77744000e+08
2970.000000 7.68031000e+08
2990.000000 7.53956000e+08
3010.000000 7.40727000e+08
3030.000000 7.27616000e+08
3050.000000 7.14662000e+08
3070.000000 7.02023000e+08
3090.000000 6.89730000e+08
3110.000000 6.77654000e+08
3130.000000 6.66291000e+08
3150.000000 6.54782000e+08
3170.000000 6.43547000e+08
3190.000000 6.28802000e+08
3210.000000 6.21612000e+08
3230.000000 6.11049000e+08
3250.000000 6.00734000e+08
3270.000000 5.91083000e+08
3290.000000 5.80821000e+08
3310.000000 5.71622000e+08
3330.000000 5.62228000e+08
3350.000000 5.52514000e+08
3370.000000 5.43985000e+08
3390.000000 5.35160000e+08
3410.000000 5.26535000e+08
3430.000000 5.17275000e+08
3450.000000 5.08225000e+08
3470.000000 5.00819000e+08
3490.000000 4.92899000e+08
3510.000000 4.85708000e+08
3530.000000 4.78194000e+08
3550.000000 4.70669000e+08
3570.000000 4.64523000e+08
3590.000000 4.55883000e+08
3610.000000 4.49574000e+08
3630.000000 4.41946000e+08
3640.000000 4.40062000e+08
3650.000000 4.35703000e+08
3670.000000 4.30659000e+08
3690.000000 4.22296000e+08
3710.000000 4.08777000e+08
3730.000000 3.90650000e+08
3750.000000 4.18401000e+08
3770.000000 4.24655000e+08
3790.000000 4.67106000e+08
3810.000000 5.02311000e+08
3830.000000 4.23730000e+08
3850.000000 5.31145000e+08
3870.000000 5.55451000e+08
3890.000000 3.91988000e+08
3910.000000 5.48630000e+08
3930.000000 5.54085000e+08
3950.000000 5.33856000e+08
3970.000000 3.68055000e+08
3990.000000 5.09055000e+08
4010.000000 5.20999000e+08
4030.000000 4.87912000e+08
4050.000000 5.11952000e+08
4070.000000 4.98928000e+08
4090.000000 4.30597000e+08
4110.000000 3.60068000e+08
4130.000000 4.66050000e+08
4150.000000 4.67540000e+08
4170.000000 4.65103000e+08
4190.000000 4.59858000e+08
4210.000000 4.52608000e+08
4230.000000 4.45370000e+08
4250.000000 4.38268000e+08
4270.000000 4.30060000e+08
4290.000000 4.22416000e+08
4310.000000 4.10393000e+08
4330.000000 3.46290000e+08
4350.000000 3.09586000e+08
4370.000000 3.89160000e+08
4390.000000 3.78096000e+08
4410.000000 3.85561000e+08
4430.000000 3.78977000e+08
4450.000000 3.74684000e+08
4470.000000 3.49901000e+08
4490.000000 3.62731000e+08
4510.000000 3.58354000e+08
4530.000000 3.52957000e+08
4550.000000 3.47714000e+08
4570.000000 3.42549000e+08
4590.000000 3.37496000e+08
4610.000000 3.32535000e+08
4630.000000 3.27630000e+08
4650.000000 3.22831000e+08
4670.000000 3.18155000e+08
4690.000000 3.13546000e+08
4710.000000 3.05166000e+08
4730.000000 3.04460000e+08
4750.000000 2.99998000e+08
4770.000000 2.95898000e+08
4790.000000 2.90920000e+08
4810.000000 2.85835000e+08
4830.000000 2.78031000e+08
4850.000000 2.41501000e+08
4870.000000 2.10056000e+08
4890.000000 2.63861000e+08
4910.000000 2.65466000e+08
4930.000000 2.56558000e+08
4950.000000 2.60347000e+08
4970.000000 2.56975000e+08
4990.000000 2.53437000e+08
5010.000000 2.46884000e+08
5030.000000 2.46533000e+08
5050.000000 2.41733000e+08
5070.000000 2.39932000e+08
5090.000000 2.36684000e+08
5110.000000 2.33507000e+08
5130.000000 2.30373000e+08
5150.000000 2.27309000e+08
5170.000000 2.24285000e+08
5190.000000 2.21315000e+08
5210.000000 2.18342000e+08
5230.000000 2.15505000e+08
5250.000000 2.12677000e+08
5270.000000 2.09899000e+08
5290.000000 2.07171000e+08
5310.000000 2.04477000e+08
5330.000000 2.01819000e+08
5350.000000 1.99207000e+08
5370.000000 1.96668000e+08
5390.000000 1.94148000e+08
5410.000000 1.91659000e+08
5430.000000 1.89202000e+08
5450.000000 1.86814000e+08
5470.000000 1.84456000e+08
5490.000000 1.82139000e+08
5510.000000 1.79852000e+08
5530.000000 1.77592000e+08
5550.000000 1.75385000e+08
5570.000000 1.73205000e+08
5590.000000 1.71052000e+08
5610.000000 1.68936000e+08
5630.000000 1.66859000e+08
5650.000000 1.64794000e+08
5670.000000 1.62778000e+08
5690.000000 1.60810000e+08
5710.000000 1.58854000e+08
5730.000000 1.56932000e+08
5750.000000 1.55033000e+08
5770.000000 1.53168000e+08
5790.000000 1.51325000e+08
5810.000000 1.49515000e+08
5830.000000 1.47726000e+08
5850.000000 1.45969000e+08
5870.000000 1.40089000e+08
5890.000000 1.42288000e+08
5910.000000 1.40852000e+08
5930.000000 1.39197000e+08
5950.000000 1.37560000e+08
5970.000000 1.35953000e+08
5990.000000 1.34364000e+08
6010.000000 1.32814000e+08
6030.000000 1.31272000e+08
6050.000000 1.29757000e+08
6070.000000 1.28269000e+08
6090.000000 1.26798000e+08
6110.000000 1.25344000e+08
6130.000000 1.23916000e+08
6150.000000 1.22504000e+08
6170.000000 1.21117000e+08
6190.000000 1.19756000e+08
6210.000000 1.18399000e+08
6230.000000 1.17068000e+08
6250.000000 1.15760000e+08
6270.000000 1.14467000e+08
6290.000000 1.13198000e+08
6310.000000 1.11932000e+08
6330.000000 1.10700000e+08
6350.000000 1.09433000e+08
6370.000000 1.08246000e+08
6390.000000 1.07080000e+08
6410.000000 1.05909000e+08
6430.000000 1.04750000e+08
6450.000000 1.03612000e+08
6470.000000 1.02487000e+08
6490.000000 1.01221000e+08
6510.000000 9.98357000e+07
6530.000000 9.78999000e+07
6550.000000 9.04537000e+07
6570.000000 7.85666000e+07
6590.000000 9.34968000e+07
6610.000000 9.43891000e+07
6630.000000 9.37605000e+07
6650.000000 9.30270000e+07
6670.000000 9.12336000e+07
6690.000000 9.03186000e+07
6710.000000 9.01491000e+07
6730.000000 8.92065000e+07
6750.000000 8.82735000e+07
6770.000000 8.73582000e+07
6790.000000 8.64521000e+07
6810.000000 8.55552000e+07
6830.000000 8.46672000e+07
6850.000000 8.37962000e+07
6870.000000 8.29338000e+07
6890.000000 8.20880000e+07
6910.000000 8.12506000e+07
6930.000000 8.04136000e+07
6950.000000 7.96004000e+07
6970.000000 7.87953000e+07
6990.000000 7.79981000e+07
7010.000000 7.72087000e+07
7030.000000 7.64346000e+07
7050.000000 7.56642000e+07
7070.000000 7.39811000e+07
7090.000000 7.41616000e+07
7110.000000 7.34230000e+07
7130.000000 7.26938000e+07
7150.000000 7.19730000e+07
7170.000000 7.12606000e+07
7190.000000 7.05601000e+07
7210.000000 6.98663000e+07
7230.000000 6.91617000e+07
7250.000000 6.85040000e+07
7270.000000 6.78361000e+07
7290.000000 6.68165000e+07
7310.000000 6.65204000e+07
7330.000000 6.58796000e+07
7350.000000 6.52433000e+07
7370.000000 6.46150000e+07
7390.000000 6.39939000e+07
7410.000000 6.33807000e+07
7430.000000 6.27738000e+07
7450.000000 6.21793000e+07
7470.000000 6.15875000e+07
7490.000000 6.10032000e+07
7510.000000 6.04175000e+07
7530.000000 5.98545000e+07
7550.000000 5.92906000e+07
7570.000000 5.87339000e+07
7590.000000 5.81828000e+07
7610.000000 5.76386000e+07
7630.000000 5.71006000e+07
7650.000000 5.65688000e+07
7670.000000 5.60436000e+07
7690.000000 5.55244000e+07
7710.000000 5.50111000e+07
7730.000000 5.45036000e+07
7750.000000 5.40019000e+07
7770.000000 5.34896000e+07
7790.000000 5.30167000e+07
7810.000000 5.25213000e+07
7830.000000 5.20536000e+07
7850.000000 5.15986000e+07
7870.000000 5.11299000e+07
7890.000000 5.06628000e+07
7910.000000 5.02130000e+07
7930.000000 4.97606000e+07
7950.000000 4.93126000e+07
7970.000000 4.88674000e+07
7990.000000 4.84301000e+07
8010.000000 4.80012000e+07
8030.000000 4.75737000e+07
8050.000000 4.71510000e+07
8070.000000 4.67325000e+07
8090.000000 4.63094000e+07
8110.000000 4.59066000e+07
8130.000000 4.55060000e+07
8150.000000 4.50867000e+07
8170.000000 4.47105000e+07
8190.000000 4.43003000e+07
8210.000000 4.38511000e+07
8230.000000 4.35292000e+07
8250.000000 4.31717000e+07
8270.000000 4.27214000e+07
8290.000000 4.24404000e+07
8310.000000 4.20940000e+07
8330.000000 4.17308000e+07
8350.000000 4.12896000e+07
8370.000000 4.10017000e+07
8390.000000 4.06833000e+07
8410.000000 4.03148000e+07
8430.000000 3.99393000e+07
8450.000000 3.94898000e+07
8470.000000 3.91549000e+07
8490.000000 3.88510000e+07
8510.000000 3.83257000e+07
8530.000000 3.82332000e+07
8550.000000 3.71774000e+07
8570.000000 3.79397000e+07
8590.000000 3.64328000e+07
8610.000000 3.60980000e+07
8630.000000 3.74342000e+07
8650.000000 3.61979000e+07
8670.000000 3.35112000e+07
8690.000000 3.64202000e+07
8710.000000 3.69414000e+07
8730.000000 3.56275000e+07
8750.000000 3.13788000e+07
8770.000000 3.41831000e+07
8790.000000 3.60795000e+07
8810.000000 3.61546000e+07
8830.000000 3.54281000e+07
8850.000000 3.24115000e+07
8870.000000 2.95535000e+07
8890.000000 3.37384000e+07
8910.000000 3.47303000e+07
8930.000000 3.47157000e+07
8950.000000 3.45005000e+07
8970.000000 3.39778000e+07
8990.000000 3.25361000e+07
9010.000000 2.81219000e+07
9030.000000 2.94958000e+07
9050.000000 3.22984000e+07
9070.000000 3.25472000e+07
9090.000000 3.26225000e+07
9110.000000 3.24894000e+07
9130.000000 3.22469000e+07
9150.000000 3.19508000e+07
9170.000000 3.15267000e+07
9190.000000 3.09271000e+07
9210.000000 2.90110000e+07
9230.000000 2.49569000e+07
9250.000000 2.82112000e+07
9270.000000 2.98484000e+07
9290.000000 3.00749000e+07
9310.000000 2.98976000e+07
9330.000000 2.97968000e+07
9350.000000 2.95962000e+07
9370.000000 2.94117000e+07
9390.000000 2.91801000e+07
9410.000000 2.89409000e+07
9430.000000 2.86806000e+07
9450.000000 2.84142000e+07
9470.000000 2.80234000e+07
9490.000000 2.77824000e+07
9510.000000 2.70271000e+07
9530.000000 2.51816000e+07
9550.000000 2.20740000e+07
9570.000000 2.53059000e+07
9590.000000 2.64191000e+07
9610.000000 2.65104000e+07
9630.000000 2.63772000e+07
9650.000000 2.63044000e+07
9670.000000 2.61643000e+07
9690.000000 2.59481000e+07
9710.000000 2.57234000e+07
9730.000000 2.55724000e+07
9750.000000 2.53780000e+07
9770.000000 2.51854000e+07
9790.000000 2.49950000e+07
9810.000000 2.48063000e+07
9830.000000 2.46193000e+07
9850.000000 2.44340000e+07
9870.000000 2.42504000e+07
9890.000000 2.40680000e+07
9910.000000 2.38858000e+07
9930.000000 2.37007000e+07
9950.000000 2.34716000e+07
9970.000000 2.32535000e+07
9990.000000 2.29816000e+07
10025.000000 2.13085000e+07
10075.000000 2.05167000e+07
10125.000000 2.18789000e+07
10175.000000 2.16353000e+07
10225.000000 2.12574000e+07
10275.000000 2.08794000e+07
10325.000000 2.04512000e+07
10375.000000 2.01394000e+07
10425.000000 1.97813000e+07
10475.000000 1.94315000e+07
10525.000000 1.90892000e+07
10575.000000 1.87548000e+07
10625.000000 1.84272000e+07
10675.000000 1.80874000e+07
10725.000000 1.77937000e+07
10775.000000 1.74872000e+07
10825.000000 1.69987000e+07
10875.000000 1.67169000e+07
10925.000000 1.48191000e+07
10975.000000 1.55780000e+07
11025.000000 1.59149000e+07
11075.000000 1.57565000e+07
11125.000000 1.55172000e+07
11175.000000 1.52592000e+07
11225.000000 1.50027000e+07
11275.000000 1.47579000e+07
11325.000000 1.45160000e+07
11375.000000 1.42786000e+07
11425.000000 1.40460000e+07
11475.000000 1.38183000e+07
11525.000000 1.35948000e+07
11575.000000 1.33761000e+07
11625.000000 1.31615000e+07
11675.000000 1.29514000e+07
11725.000000 1.27456000e+07
11775.000000 1.25436000e+07
11825.000000 1.23458000e+07
11875.000000 1.21521000e+07
11925.000000 1.19616000e+07
11975.000000 1.17046000e+07
12025.000000 1.15923000e+07
12075.000000 1.14131000e+07
12125.000000 1.12374000e+07
12175.000000 1.10650000e+07
12225.000000 1.08957000e+07
12275.000000 1.07299000e+07
12325.000000 1.05671000e+07
12375.000000 1.04074000e+07
12425.000000 1.02508000e+07
12475.000000 1.00972000e+07
12525.000000 9.93601000e+06
12575.000000 9.79831000e+06
12625.000000 9.65302000e+06
12675.000000 9.50479000e+06
12725.000000 9.33020000e+06
12775.000000 8.98492000e+06
12825.000000 8.13511000e+06
12875.000000 8.81157000e+06
12925.000000 8.80441000e+06
12975.000000 8.67090000e+06
13025.000000 8.58291000e+06
13075.000000 8.45988000e+06
