# Kurucz ODFNEW /NOVER, alpha: 0.0 (2003)
# teff = 19000 K (value for the effective temperature for the model. Temperatures are given in K)
# logg = 4 log(cm/s2) (value for Log(G) for the model.)
# lh = 1.25  (l/Hp where l is the  mixing length of the convective element and Hp is the pressure scale height)
# meta = -0.5  (value for the Metallicity for the model.)
# vtur = 2 km/s (Microturbulence velocity)
# alpha = 0  (Alpha)
#
# column 1: WAVELENGTH (ANGSTROM), Wavelength in Angstrom
# column 2: FLUX (ERG/CM2/S/A), Flux in erg/cm2/s/A
147.200000 3.41542000e-21
151.000000 2.26044000e-20
155.200000 1.63645000e-19
158.800000 8.21031000e-19
162.000000 3.24966000e-18
166.000000 1.68774000e-17
170.300000 9.11892000e-17
173.400000 2.92713000e-16
176.800000 1.00474000e-15
180.200000 3.29754000e-15
181.700000 5.49435000e-15
186.100000 2.34904000e-14
191.000000 1.09742000e-13
193.900000 2.63359000e-13
198.400000 9.76026000e-13
201.800000 2.53236000e-12
205.000000 6.04569000e-12
210.500000 2.53558000e-11
216.200000 1.03946000e-10
219.800000 2.44228000e-10
223.000000 5.09788000e-10
226.800000 1.19021000e-09
230.000000 5.10856000e-09
234.000000 1.32498000e-08
240.000000 4.36391000e-08
246.500000 1.47351000e-07
252.400000 4.22472000e-07
256.800000 8.83808000e-07
260.000000 1.52364000e-06
264.000000 2.90428000e-06
268.500000 5.85274000e-06
273.500000 1.23985000e-05
278.500000 2.56136000e-05
284.000000 5.51997000e-05
290.000000 1.23125000e-04
296.000000 2.65236000e-04
301.000000 4.91614000e-04
308.000000 1.11493000e-03
318.000000 3.44862000e-03
328.000000 9.80763000e-03
338.000000 2.62702000e-02
348.000000 6.61977000e-02
357.000000 1.45514000e-01
366.000000 3.07304000e-01
375.000000 6.21868000e-01
385.000000 1.30910000e+00
395.000000 2.64441000e+00
405.000000 5.15306000e+00
414.000000 9.12524000e+00
422.000000 1.48086000e+01
430.000000 2.35329000e+01
441.000000 4.34686000e+01
451.000000 7.37008000e+01
460.000000 1.15907000e+02
470.000000 1.87683000e+02
480.000000 2.97083000e+02
490.000000 4.61129000e+02
500.000000 7.01636000e+02
506.000000 6.14807000e+03
512.000000 2.13756000e+04
520.000000 2.79802000e+04
530.000000 4.10017000e+04
540.000000 4.86144000e+04
550.000000 7.36136000e+04
560.000000 9.37078000e+04
570.000000 1.22933000e+05
580.000000 1.31251000e+05
590.000000 1.84090000e+05
600.000000 2.39652000e+05
610.000000 3.03014000e+05
620.000000 3.65518000e+05
630.000000 4.46788000e+05
640.000000 5.19107000e+05
650.000000 6.03311000e+05
658.000000 7.39417000e+05
665.000000 8.22309000e+05
675.000000 9.48387000e+05
685.000000 1.10837000e+06
695.000000 1.33447000e+06
705.000000 1.53443000e+06
716.000000 1.79857000e+06
726.000000 2.04484000e+06
735.000000 2.30469000e+06
745.000000 2.66882000e+06
755.000000 3.04027000e+06
765.000000 3.43670000e+06
775.000000 3.89428000e+06
785.000000 4.38613000e+06
795.000000 4.86081000e+06
805.000000 5.40911000e+06
815.000000 5.95473000e+06
825.000000 6.66476000e+06
835.000000 7.18635000e+06
845.000000 7.96644000e+06
855.000000 8.72735000e+06
865.000000 9.62385000e+06
875.000000 1.05969000e+07
885.000000 1.16642000e+07
895.000000 1.26715000e+07
905.000000 1.33769000e+07
915.000000 2.25351000e+07
925.000000 9.90537000e+07
935.000000 3.38999000e+08
945.000000 1.54413000e+09
955.000000 3.38469000e+09
965.000000 4.67015000e+09
975.000000 8.88140000e+08
985.000000 6.36214000e+09
995.000000 6.29389000e+09
1005.000000 7.16141000e+09
1015.000000 6.00990000e+09
1025.000000 9.82105000e+08
1035.000000 3.96907000e+09
1045.000000 8.11951000e+09
1055.000000 7.87797000e+09
1065.000000 6.66519000e+09
1075.000000 7.74046000e+09
1085.000000 6.91968000e+09
1095.000000 7.71667000e+09
1105.000000 6.92724000e+09
1115.000000 6.74293000e+09
1125.000000 6.25657000e+09
1135.000000 7.30926000e+09
1145.000000 6.56750000e+09
1155.000000 6.85386000e+09
1165.000000 7.09894000e+09
1175.000000 5.62492000e+09
1185.000000 7.01801000e+09
1195.000000 5.29364000e+09
1205.000000 3.21927000e+09
1215.000000 8.22885000e+08
1225.000000 3.81091000e+09
1235.000000 6.14806000e+09
1245.000000 6.54040000e+09
1255.000000 6.37201000e+09
1265.000000 5.91947000e+09
1275.000000 6.30113000e+09
1285.000000 6.33508000e+09
1295.000000 4.79610000e+09
1305.000000 4.57289000e+09
1315.000000 6.02188000e+09
1325.000000 5.72189000e+09
1335.000000 5.18836000e+09
1345.000000 5.69751000e+09
1355.000000 5.56079000e+09
1365.000000 5.15913000e+09
1375.000000 5.15012000e+09
1385.000000 5.20191000e+09
1395.000000 4.72048000e+09
1405.000000 4.89876000e+09
1415.000000 4.80869000e+09
1425.000000 4.82529000e+09
1435.000000 4.82377000e+09
1442.000000 4.92543000e+09
1447.000000 4.84629000e+09
1455.000000 4.74261000e+09
1465.000000 4.51747000e+09
1475.000000 4.46768000e+09
1485.000000 4.35834000e+09
1495.000000 4.32787000e+09
1505.000000 4.10506000e+09
1512.000000 3.78864000e+09
1517.000000 3.92070000e+09
1525.000000 3.95273000e+09
1535.000000 3.63503000e+09
1545.000000 3.72969000e+09
1555.000000 3.53122000e+09
1565.000000 3.57129000e+09
1575.000000 3.70089000e+09
1585.000000 3.68148000e+09
1595.000000 3.71261000e+09
1605.000000 3.60507000e+09
1615.000000 3.57400000e+09
1625.000000 3.46124000e+09
1635.000000 3.54488000e+09
1645.000000 3.50497000e+09
1655.000000 3.32726000e+09
1665.000000 3.51137000e+09
1672.000000 3.36547000e+09
1677.000000 3.42928000e+09
1685.000000 3.44085000e+09
1695.000000 3.30084000e+09
1705.000000 3.15973000e+09
1715.000000 3.02705000e+09
1725.000000 2.98700000e+09
1735.000000 3.07593000e+09
1745.000000 2.97620000e+09
1755.000000 3.04549000e+09
1765.000000 2.83839000e+09
1775.000000 2.87358000e+09
1785.000000 2.86831000e+09
1795.000000 2.92682000e+09
1805.000000 2.90535000e+09
1815.000000 2.72007000e+09
1825.000000 2.77755000e+09
1835.000000 2.68481000e+09
1845.000000 2.51048000e+09
1855.000000 2.44177000e+09
1865.000000 2.47187000e+09
1875.000000 2.59485000e+09
1885.000000 2.38460000e+09
1895.000000 2.25921000e+09
1905.000000 2.39884000e+09
1915.000000 2.28222000e+09
1925.000000 2.22329000e+09
1935.000000 2.28258000e+09
1945.000000 2.31603000e+09
1955.000000 2.15785000e+09
1967.000000 2.27882000e+09
1976.000000 2.33993000e+09
1984.000000 2.20214000e+09
1995.000000 2.14100000e+09
2005.000000 2.18136000e+09
2015.000000 2.14343000e+09
2025.000000 2.21005000e+09
2035.000000 2.07977000e+09
2045.000000 2.08470000e+09
2055.000000 2.01290000e+09
2065.000000 2.03966000e+09
2074.000000 2.09390000e+09
2078.000000 1.98586000e+09
2085.000000 2.02602000e+09
2095.000000 1.93600000e+09
2105.000000 1.96628000e+09
2115.000000 1.95261000e+09
2125.000000 1.97883000e+09
2135.000000 1.92554000e+09
2145.000000 1.86931000e+09
2155.000000 1.90708000e+09
2165.000000 1.87005000e+09
2175.000000 1.84708000e+09
2185.000000 1.81333000e+09
2195.000000 1.82843000e+09
2205.000000 1.78763000e+09
2215.000000 1.75279000e+09
2225.000000 1.70390000e+09
2235.000000 1.72835000e+09
2245.000000 1.70723000e+09
2255.000000 1.65827000e+09
2265.000000 1.67252000e+09
2275.000000 1.65908000e+09
2285.000000 1.65888000e+09
2295.000000 1.60404000e+09
2305.000000 1.59611000e+09
2315.000000 1.56098000e+09
2325.000000 1.54730000e+09
2335.000000 1.49725000e+09
2345.000000 1.46409000e+09
2355.000000 1.48232000e+09
2365.000000 1.44078000e+09
2375.000000 1.44270000e+09
2385.000000 1.40281000e+09
2395.000000 1.42422000e+09
2405.000000 1.38642000e+09
2415.000000 1.37948000e+09
2425.000000 1.38670000e+09
2435.000000 1.34211000e+09
2445.000000 1.35044000e+09
2455.000000 1.34558000e+09
2465.000000 1.31528000e+09
2475.000000 1.29877000e+09
2485.000000 1.30707000e+09
2495.000000 1.26804000e+09
2505.000000 1.28586000e+09
2513.000000 1.24010000e+09
2518.000000 1.26346000e+09
2525.000000 1.22858000e+09
2535.000000 1.21081000e+09
2545.000000 1.19318000e+09
2555.000000 1.21386000e+09
2565.000000 1.19382000e+09
2575.000000 1.20252000e+09
2585.000000 1.19662000e+09
2595.000000 1.18484000e+09
2605.000000 1.17032000e+09
2615.000000 1.16001000e+09
2625.000000 1.14791000e+09
2635.000000 1.13824000e+09
2645.000000 1.15210000e+09
2655.000000 1.14018000e+09
2665.000000 1.11387000e+09
2675.000000 1.11545000e+09
2685.000000 1.10716000e+09
2695.000000 1.08480000e+09
2705.000000 1.08143000e+09
2715.000000 1.06428000e+09
2725.000000 1.04714000e+09
2735.000000 1.05259000e+09
2745.000000 1.01359000e+09
2755.000000 1.00878000e+09
2765.000000 1.00706000e+09
2775.000000 1.01464000e+09
2785.000000 1.00168000e+09
2795.000000 9.66656000e+08
2805.000000 9.79503000e+08
2815.000000 9.80163000e+08
2825.000000 9.62567000e+08
2835.000000 9.37555000e+08
2845.000000 9.37818000e+08
2855.000000 9.35281000e+08
2865.000000 9.35235000e+08
2875.000000 9.21949000e+08
2885.000000 9.15885000e+08
2895.000000 9.08445000e+08
2910.000000 8.97858000e+08
2930.000000 8.76383000e+08
2950.000000 8.56792000e+08
2970.000000 8.48153000e+08
2990.000000 8.30186000e+08
3010.000000 8.18442000e+08
3030.000000 8.06483000e+08
3050.000000 7.91365000e+08
3070.000000 7.77170000e+08
3090.000000 7.62999000e+08
3110.000000 7.49556000e+08
3130.000000 7.37585000e+08
3150.000000 7.24566000e+08
3170.000000 7.11440000e+08
3190.000000 6.93144000e+08
3210.000000 6.86947000e+08
3230.000000 6.75650000e+08
3250.000000 6.64399000e+08
3270.000000 6.53901000e+08
3290.000000 6.42390000e+08
3310.000000 6.32691000e+08
3330.000000 6.21988000e+08
3350.000000 6.10622000e+08
3370.000000 6.01439000e+08
3390.000000 5.91642000e+08
3410.000000 5.82163000e+08
3430.000000 5.71103000e+08
3450.000000 5.60513000e+08
3470.000000 5.52537000e+08
3490.000000 5.43686000e+08
3510.000000 5.36468000e+08
3530.000000 5.28471000e+08
3550.000000 5.20232000e+08
3570.000000 5.13739000e+08
3590.000000 5.03237000e+08
3610.000000 4.96087000e+08
3630.000000 4.87977000e+08
3640.000000 4.86493000e+08
3650.000000 4.80692000e+08
3670.000000 4.75076000e+08
3690.000000 4.63549000e+08
3710.000000 4.50846000e+08
3730.000000 4.37819000e+08
3750.000000 4.81705000e+08
3770.000000 4.90629000e+08
3790.000000 5.29211000e+08
3810.000000 5.60393000e+08
3830.000000 4.79769000e+08
3850.000000 5.82638000e+08
3870.000000 5.94516000e+08
3890.000000 4.51515000e+08
3910.000000 5.88624000e+08
3930.000000 5.78306000e+08
3950.000000 5.70823000e+08
3970.000000 4.21717000e+08
3990.000000 5.46633000e+08
4010.000000 5.48714000e+08
4030.000000 5.15840000e+08
4050.000000 5.37424000e+08
4070.000000 5.23854000e+08
4090.000000 4.73747000e+08
4110.000000 4.04627000e+08
4130.000000 4.90213000e+08
4150.000000 4.89305000e+08
4170.000000 4.86248000e+08
4190.000000 4.81059000e+08
4210.000000 4.74097000e+08
4230.000000 4.66130000e+08
4250.000000 4.58374000e+08
4270.000000 4.47127000e+08
4290.000000 4.43111000e+08
4310.000000 4.32924000e+08
4330.000000 3.82458000e+08
4350.000000 3.44984000e+08
4370.000000 4.11392000e+08
4390.000000 3.98289000e+08
4410.000000 4.04021000e+08
4430.000000 3.96350000e+08
4450.000000 3.92795000e+08
4470.000000 3.69321000e+08
4490.000000 3.78260000e+08
4510.000000 3.75690000e+08
4530.000000 3.69388000e+08
4550.000000 3.64000000e+08
4570.000000 3.58855000e+08
4590.000000 3.53696000e+08
4610.000000 3.48276000e+08
4630.000000 3.42761000e+08
4650.000000 3.37536000e+08
4670.000000 3.33356000e+08
4690.000000 3.28892000e+08
4710.000000 3.18870000e+08
4730.000000 3.17762000e+08
4750.000000 3.12938000e+08
4770.000000 3.10584000e+08
4790.000000 3.05878000e+08
4810.000000 3.00067000e+08
4830.000000 2.94034000e+08
4850.000000 2.65877000e+08
4870.000000 2.34057000e+08
4890.000000 2.80750000e+08
4910.000000 2.79624000e+08
4930.000000 2.69764000e+08
4950.000000 2.73278000e+08
4970.000000 2.69771000e+08
4990.000000 2.65888000e+08
5010.000000 2.57721000e+08
5030.000000 2.58281000e+08
5050.000000 2.51911000e+08
5070.000000 2.51730000e+08
5090.000000 2.48287000e+08
5110.000000 2.44717000e+08
5130.000000 2.41267000e+08
5150.000000 2.37948000e+08
5170.000000 2.35307000e+08
5190.000000 2.32210000e+08
5210.000000 2.28044000e+08
5230.000000 2.26096000e+08
5250.000000 2.23188000e+08
5270.000000 2.20181000e+08
5290.000000 2.17537000e+08
5310.000000 2.14632000e+08
5330.000000 2.11764000e+08
5350.000000 2.08723000e+08
5370.000000 2.06544000e+08
5390.000000 2.03886000e+08
5410.000000 2.01210000e+08
5430.000000 1.98261000e+08
5450.000000 1.95972000e+08
5470.000000 1.93484000e+08
5490.000000 1.91251000e+08
5510.000000 1.88774000e+08
5530.000000 1.86450000e+08
5550.000000 1.84191000e+08
5570.000000 1.81863000e+08
5590.000000 1.79648000e+08
5610.000000 1.77292000e+08
5630.000000 1.75333000e+08
5650.000000 1.72465000e+08
5670.000000 1.70524000e+08
5690.000000 1.68664000e+08
5710.000000 1.66861000e+08
5730.000000 1.64860000e+08
5750.000000 1.62850000e+08
5770.000000 1.60942000e+08
5790.000000 1.58989000e+08
5810.000000 1.57082000e+08
5830.000000 1.55197000e+08
5850.000000 1.53367000e+08
5870.000000 1.47250000e+08
5890.000000 1.49238000e+08
5910.000000 1.47971000e+08
5930.000000 1.46257000e+08
5950.000000 1.44328000e+08
5970.000000 1.42855000e+08
5990.000000 1.41084000e+08
6010.000000 1.39594000e+08
6030.000000 1.37955000e+08
6050.000000 1.36385000e+08
6070.000000 1.34803000e+08
6090.000000 1.33238000e+08
6110.000000 1.31752000e+08
6130.000000 1.30252000e+08
6150.000000 1.28580000e+08
6170.000000 1.27292000e+08
6190.000000 1.25881000e+08
6210.000000 1.24466000e+08
6230.000000 1.23037000e+08
6250.000000 1.21556000e+08
6270.000000 1.20313000e+08
6290.000000 1.18958000e+08
6310.000000 1.17581000e+08
6330.000000 1.16350000e+08
6350.000000 1.14619000e+08
6370.000000 1.13520000e+08
6390.000000 1.12524000e+08
6410.000000 1.11264000e+08
6430.000000 1.10126000e+08
6450.000000 1.08901000e+08
6470.000000 1.07680000e+08
6490.000000 1.06516000e+08
6510.000000 1.05160000e+08
6530.000000 1.03528000e+08
6550.000000 9.77771000e+07
6570.000000 8.57303000e+07
6590.000000 9.91094000e+07
6610.000000 9.95280000e+07
6630.000000 9.88085000e+07
6650.000000 9.78402000e+07
6670.000000 9.59418000e+07
6690.000000 9.49650000e+07
6710.000000 9.47846000e+07
6730.000000 9.37896000e+07
6750.000000 9.28212000e+07
6770.000000 9.18626000e+07
6790.000000 9.07911000e+07
6810.000000 8.99418000e+07
6830.000000 8.90039000e+07
6850.000000 8.81076000e+07
6870.000000 8.72042000e+07
6890.000000 8.63098000e+07
6910.000000 8.54243000e+07
6930.000000 8.45162000e+07
6950.000000 8.37029000e+07
6970.000000 8.28588000e+07
6990.000000 8.20075000e+07
7010.000000 8.11799000e+07
7030.000000 8.03604000e+07
7050.000000 7.95185000e+07
7070.000000 7.76448000e+07
7090.000000 7.79868000e+07
7110.000000 7.71909000e+07
7130.000000 7.64324000e+07
7150.000000 7.56738000e+07
7170.000000 7.49225000e+07
7190.000000 7.42002000e+07
7210.000000 7.34702000e+07
7230.000000 7.23220000e+07
7250.000000 7.20239000e+07
7270.000000 7.13359000e+07
7290.000000 7.01808000e+07
7310.000000 6.99475000e+07
7330.000000 6.92760000e+07
7350.000000 6.86101000e+07
7370.000000 6.79483000e+07
7390.000000 6.72948000e+07
7410.000000 6.66493000e+07
7430.000000 6.59894000e+07
7450.000000 6.53803000e+07
7470.000000 6.47390000e+07
7490.000000 6.41339000e+07
7510.000000 6.35162000e+07
7530.000000 6.29354000e+07
7550.000000 6.23447000e+07
7570.000000 6.17619000e+07
7590.000000 6.11766000e+07
7610.000000 6.06102000e+07
7630.000000 6.00437000e+07
7650.000000 5.94823000e+07
7670.000000 5.89318000e+07
7690.000000 5.83848000e+07
7710.000000 5.78453000e+07
7730.000000 5.73080000e+07
7750.000000 5.67812000e+07
7770.000000 5.60150000e+07
7790.000000 5.57470000e+07
7810.000000 5.52166000e+07
7830.000000 5.47352000e+07
7850.000000 5.42182000e+07
7870.000000 5.37259000e+07
7890.000000 5.31809000e+07
7910.000000 5.28063000e+07
7930.000000 5.23396000e+07
7950.000000 5.18114000e+07
7970.000000 5.13720000e+07
7990.000000 5.08549000e+07
8010.000000 5.04679000e+07
8030.000000 5.00042000e+07
8050.000000 4.95578000e+07
8070.000000 4.91308000e+07
8090.000000 4.86395000e+07
8110.000000 4.82264000e+07
8130.000000 4.78361000e+07
8150.000000 4.73668000e+07
8170.000000 4.70070000e+07
8190.000000 4.65609000e+07
8210.000000 4.60359000e+07
8230.000000 4.57051000e+07
8250.000000 4.53786000e+07
8270.000000 4.48388000e+07
8290.000000 4.45739000e+07
8310.000000 4.42085000e+07
8330.000000 4.38270000e+07
8350.000000 4.33034000e+07
8370.000000 4.30134000e+07
8390.000000 4.27010000e+07
8410.000000 4.22994000e+07
8430.000000 4.18790000e+07
8450.000000 4.12668000e+07
8470.000000 4.09839000e+07
8490.000000 4.07858000e+07
8510.000000 4.00689000e+07
8530.000000 4.02447000e+07
8550.000000 3.87240000e+07
8570.000000 4.01136000e+07
8590.000000 3.81794000e+07
8610.000000 3.78477000e+07
8630.000000 3.96417000e+07
8650.000000 3.83222000e+07
8670.000000 3.50904000e+07
8690.000000 3.86761000e+07
8710.000000 3.91229000e+07
8730.000000 3.77990000e+07
8750.000000 3.32476000e+07
8770.000000 3.64196000e+07
8790.000000 3.81103000e+07
8810.000000 3.80262000e+07
8830.000000 3.74227000e+07
8850.000000 3.46357000e+07
8870.000000 3.16024000e+07
8890.000000 3.59321000e+07
8910.000000 3.64918000e+07
8930.000000 3.62992000e+07
8950.000000 3.61169000e+07
8970.000000 3.56976000e+07
8990.000000 3.45228000e+07
9010.000000 3.01560000e+07
9030.000000 3.17504000e+07
9050.000000 3.41774000e+07
9070.000000 3.40470000e+07
9090.000000 3.40245000e+07
9110.000000 3.39071000e+07
9130.000000 3.36823000e+07
9150.000000 3.33759000e+07
9170.000000 3.29684000e+07
9190.000000 3.25423000e+07
9210.000000 3.09106000e+07
9230.000000 2.68261000e+07
9250.000000 3.02467000e+07
9270.000000 3.13101000e+07
9290.000000 3.14744000e+07
9310.000000 3.11994000e+07
9330.000000 3.11151000e+07
9350.000000 3.08653000e+07
9370.000000 3.06445000e+07
9390.000000 3.04000000e+07
9410.000000 3.00765000e+07
9430.000000 2.99283000e+07
9450.000000 2.96946000e+07
9470.000000 2.92424000e+07
9490.000000 2.90913000e+07
9510.000000 2.84421000e+07
9530.000000 2.69225000e+07
9550.000000 2.37709000e+07
9570.000000 2.70739000e+07
9590.000000 2.78110000e+07
9610.000000 2.77223000e+07
9630.000000 2.74676000e+07
9650.000000 2.74800000e+07
9670.000000 2.72621000e+07
9690.000000 2.70402000e+07
9710.000000 2.67939000e+07
9730.000000 2.66532000e+07
9750.000000 2.64480000e+07
9770.000000 2.62511000e+07
9790.000000 2.60523000e+07
9810.000000 2.58554000e+07
9830.000000 2.56571000e+07
9850.000000 2.54676000e+07
9870.000000 2.52748000e+07
9890.000000 2.50787000e+07
9910.000000 2.48594000e+07
9930.000000 2.47120000e+07
9950.000000 2.45279000e+07
9970.000000 2.42996000e+07
9990.000000 2.40589000e+07
10025.000000 2.26302000e+07
10075.000000 2.18242000e+07
10125.000000 2.28579000e+07
10175.000000 2.25680000e+07
10225.000000 2.21568000e+07
10275.000000 2.17658000e+07
10325.000000 2.13074000e+07
10375.000000 2.09947000e+07
10425.000000 2.06222000e+07
10475.000000 2.02576000e+07
10525.000000 1.98993000e+07
10575.000000 1.95519000e+07
10625.000000 1.92118000e+07
10675.000000 1.88349000e+07
10725.000000 1.85496000e+07
10775.000000 1.82312000e+07
10825.000000 1.77346000e+07
10875.000000 1.75190000e+07
10925.000000 1.57837000e+07
10975.000000 1.65113000e+07
11025.000000 1.66157000e+07
11075.000000 1.64436000e+07
11125.000000 1.61804000e+07
11175.000000 1.59108000e+07
11225.000000 1.56420000e+07
11275.000000 1.53732000e+07
11325.000000 1.51279000e+07
11375.000000 1.48895000e+07
11425.000000 1.46460000e+07
11475.000000 1.44096000e+07
11525.000000 1.41768000e+07
11575.000000 1.39483000e+07
11625.000000 1.37218000e+07
11675.000000 1.35037000e+07
11725.000000 1.32906000e+07
11775.000000 1.30715000e+07
11825.000000 1.28747000e+07
11875.000000 1.26717000e+07
11925.000000 1.24748000e+07
11975.000000 1.21914000e+07
12025.000000 1.20899000e+07
12075.000000 1.19030000e+07
12125.000000 1.17197000e+07
12175.000000 1.15400000e+07
12225.000000 1.13636000e+07
12275.000000 1.11907000e+07
12325.000000 1.10210000e+07
12375.000000 1.08546000e+07
12425.000000 1.06915000e+07
12475.000000 1.05285000e+07
12525.000000 1.03584000e+07
12575.000000 1.02181000e+07
12625.000000 1.00674000e+07
12675.000000 9.91937000e+06
12725.000000 9.75805000e+06
12775.000000 9.44659000e+06
12825.000000 8.67084000e+06
12875.000000 9.26110000e+06
12925.000000 9.20763000e+06
12975.000000 9.03923000e+06
13025.000000 8.95265000e+06
13075.000000 8.82437000e+06
