# Kurucz ODFNEW /NOVER, alpha: 0.0 (2003)
# teff = 19000 K (value for the effective temperature for the model. Temperatures are given in K)
# logg = 3.5 log(cm/s2) (value for Log(G) for the model.)
# lh = 1.25  (l/Hp where l is the  mixing length of the convective element and Hp is the pressure scale height)
# meta = -2.5  (value for the Metallicity for the model.)
# vtur = 2 km/s (Microturbulence velocity)
# alpha = 0  (Alpha)
#
# column 1: WAVELENGTH (ANGSTROM), Wavelength in Angstrom
# column 2: FLUX (ERG/CM2/S/A), Flux in erg/cm2/s/A
147.200000 3.13462000e-22
151.000000 2.61237000e-21
155.200000 2.28584000e-20
158.800000 1.33254000e-19
162.000000 5.97536000e-19
166.000000 3.59148000e-18
170.300000 2.24515000e-17
173.400000 7.94729000e-17
176.800000 3.01822000e-16
180.200000 1.08879000e-15
181.700000 1.88793000e-15
186.100000 9.00477000e-15
191.000000 4.70176000e-14
193.900000 1.20081000e-13
198.400000 4.86520000e-13
201.800000 1.34176000e-12
205.000000 3.37698000e-12
210.500000 1.54168000e-11
216.200000 6.83526000e-11
219.800000 1.67989000e-10
223.000000 3.64230000e-10
226.800000 8.86487000e-10
230.000000 1.98997000e-09
234.000000 4.83764000e-09
240.000000 1.68959000e-08
246.500000 6.09385000e-08
252.400000 1.84078000e-07
256.800000 4.04857000e-07
260.000000 7.07371000e-07
264.000000 1.39074000e-06
268.500000 2.90040000e-06
273.500000 6.37097000e-06
278.500000 1.35897000e-05
284.000000 3.02683000e-05
290.000000 6.99032000e-05
296.000000 1.55734000e-04
301.000000 2.95925000e-04
308.000000 6.99934000e-04
318.000000 2.23667000e-03
328.000000 6.62491000e-03
338.000000 1.83237000e-02
348.000000 4.76169000e-02
357.000000 1.07078000e-01
366.000000 2.30721000e-01
375.000000 4.77793000e-01
385.000000 1.02757000e+00
395.000000 2.11915000e+00
405.000000 4.20426000e+00
414.000000 7.55257000e+00
422.000000 1.24247000e+01
430.000000 2.00308000e+01
441.000000 3.74500000e+01
451.000000 6.42474000e+01
460.000000 1.02148000e+02
470.000000 1.67107000e+02
480.000000 2.67242000e+02
490.000000 4.18403000e+02
500.000000 6.42128000e+02
506.000000 4.18611000e+03
512.000000 1.19263000e+04
520.000000 1.57909000e+04
530.000000 2.47134000e+04
540.000000 2.83891000e+04
550.000000 4.38264000e+04
560.000000 5.67425000e+04
570.000000 7.31138000e+04
580.000000 7.66763000e+04
590.000000 1.07594000e+05
600.000000 1.45972000e+05
610.000000 1.81743000e+05
620.000000 2.22941000e+05
630.000000 2.72054000e+05
640.000000 3.27146000e+05
650.000000 3.95481000e+05
658.000000 4.56959000e+05
665.000000 5.15584000e+05
675.000000 6.07207000e+05
685.000000 7.12047000e+05
695.000000 8.42177000e+05
705.000000 9.80129000e+05
716.000000 1.15160000e+06
726.000000 1.32623000e+06
735.000000 1.50469000e+06
745.000000 1.72270000e+06
755.000000 1.96261000e+06
765.000000 2.22487000e+06
775.000000 2.51638000e+06
785.000000 2.83349000e+06
795.000000 3.17769000e+06
805.000000 3.55286000e+06
815.000000 3.95642000e+06
825.000000 4.39876000e+06
835.000000 4.82517000e+06
845.000000 5.37586000e+06
855.000000 5.90584000e+06
865.000000 6.50569000e+06
875.000000 7.12938000e+06
885.000000 7.79793000e+06
895.000000 8.50084000e+06
905.000000 9.15944000e+06
915.000000 1.83328000e+07
925.000000 1.36739000e+08
935.000000 6.54194000e+08
945.000000 2.95330000e+09
955.000000 4.82010000e+09
965.000000 6.40245000e+09
975.000000 2.34207000e+09
985.000000 7.90055000e+09
995.000000 7.90503000e+09
1005.000000 8.11739000e+09
1015.000000 7.06488000e+09
1025.000000 1.65687000e+09
1035.000000 6.19275000e+09
1045.000000 8.08535000e+09
1055.000000 7.99034000e+09
1065.000000 7.49855000e+09
1075.000000 7.76947000e+09
1085.000000 7.34178000e+09
1095.000000 7.65351000e+09
1105.000000 7.33080000e+09
1115.000000 7.31232000e+09
1125.000000 6.98763000e+09
1135.000000 7.11216000e+09
1145.000000 6.86807000e+09
1155.000000 6.96456000e+09
1165.000000 6.87993000e+09
1175.000000 6.26452000e+09
1185.000000 6.62578000e+09
1195.000000 6.05421000e+09
1205.000000 4.88624000e+09
1215.000000 1.01523000e+09
1225.000000 4.63586000e+09
1235.000000 5.89118000e+09
1245.000000 5.98480000e+09
1255.000000 5.88095000e+09
1265.000000 5.79022000e+09
1275.000000 5.82327000e+09
1285.000000 5.73755000e+09
1295.000000 5.39050000e+09
1305.000000 5.35620000e+09
1315.000000 5.47897000e+09
1325.000000 5.32319000e+09
1335.000000 5.11860000e+09
1345.000000 5.21708000e+09
1355.000000 5.16498000e+09
1365.000000 5.06572000e+09
1375.000000 4.98693000e+09
1385.000000 4.92499000e+09
1395.000000 4.78204000e+09
1405.000000 4.74475000e+09
1415.000000 4.70238000e+09
1425.000000 4.64570000e+09
1435.000000 4.58411000e+09
1442.000000 4.54388000e+09
1447.000000 4.50803000e+09
1455.000000 4.45183000e+09
1465.000000 4.38143000e+09
1475.000000 4.31997000e+09
1485.000000 4.25259000e+09
1495.000000 4.19117000e+09
1505.000000 4.11520000e+09
1512.000000 4.06730000e+09
1517.000000 4.04954000e+09
1525.000000 3.99485000e+09
1535.000000 3.89213000e+09
1545.000000 3.87694000e+09
1555.000000 3.79701000e+09
1565.000000 3.77402000e+09
1575.000000 3.73233000e+09
1585.000000 3.68088000e+09
1595.000000 3.63576000e+09
1605.000000 3.55082000e+09
1615.000000 3.49961000e+09
1625.000000 3.47608000e+09
1635.000000 3.43509000e+09
1645.000000 3.37536000e+09
1655.000000 3.33483000e+09
1665.000000 3.30427000e+09
1672.000000 3.22046000e+09
1677.000000 3.25072000e+09
1685.000000 3.21581000e+09
1695.000000 3.16382000e+09
1705.000000 3.11360000e+09
1715.000000 3.06279000e+09
1725.000000 3.02346000e+09
1735.000000 2.99421000e+09
1745.000000 2.94886000e+09
1755.000000 2.92220000e+09
1765.000000 2.83585000e+09
1775.000000 2.83352000e+09
1785.000000 2.80210000e+09
1795.000000 2.77213000e+09
1805.000000 2.73861000e+09
1815.000000 2.69616000e+09
1825.000000 2.66568000e+09
1835.000000 2.63100000e+09
1845.000000 2.57622000e+09
1855.000000 2.50899000e+09
1865.000000 2.48996000e+09
1875.000000 2.49262000e+09
1885.000000 2.43083000e+09
1895.000000 2.37765000e+09
1905.000000 2.39023000e+09
1915.000000 2.33009000e+09
1925.000000 2.30147000e+09
1935.000000 2.29053000e+09
1945.000000 2.27819000e+09
1955.000000 2.21975000e+09
1967.000000 2.21807000e+09
1976.000000 2.20370000e+09
1984.000000 2.16596000e+09
1995.000000 2.11762000e+09
2005.000000 2.12007000e+09
2015.000000 2.10233000e+09
2025.000000 2.08180000e+09
2035.000000 2.04984000e+09
2045.000000 2.02525000e+09
2055.000000 1.97757000e+09
2065.000000 1.96377000e+09
2074.000000 1.96594000e+09
2078.000000 1.93159000e+09
2085.000000 1.93243000e+09
2095.000000 1.89909000e+09
2105.000000 1.88908000e+09
2115.000000 1.87084000e+09
2125.000000 1.85327000e+09
2135.000000 1.83074000e+09
2145.000000 1.80683000e+09
2155.000000 1.78921000e+09
2165.000000 1.76790000e+09
2175.000000 1.74738000e+09
2185.000000 1.72874000e+09
2195.000000 1.71052000e+09
2205.000000 1.69031000e+09
2215.000000 1.67079000e+09
2225.000000 1.65078000e+09
2235.000000 1.63408000e+09
2245.000000 1.61656000e+09
2255.000000 1.59752000e+09
2265.000000 1.58117000e+09
2275.000000 1.56337000e+09
2285.000000 1.54726000e+09
2295.000000 1.52458000e+09
2305.000000 1.51294000e+09
2315.000000 1.49561000e+09
2325.000000 1.48026000e+09
2335.000000 1.46111000e+09
2345.000000 1.44101000e+09
2355.000000 1.43219000e+09
2365.000000 1.41357000e+09
2375.000000 1.40082000e+09
2385.000000 1.38069000e+09
2395.000000 1.36827000e+09
2405.000000 1.35470000e+09
2415.000000 1.34001000e+09
2425.000000 1.32988000e+09
2435.000000 1.31472000e+09
2445.000000 1.30115000e+09
2455.000000 1.28895000e+09
2465.000000 1.27442000e+09
2475.000000 1.26187000e+09
2485.000000 1.24874000e+09
2495.000000 1.22968000e+09
2505.000000 1.22336000e+09
2513.000000 1.21057000e+09
2518.000000 1.20714000e+09
2525.000000 1.19756000e+09
2535.000000 1.18385000e+09
2545.000000 1.17259000e+09
2555.000000 1.16308000e+09
2565.000000 1.14996000e+09
2575.000000 1.13991000e+09
2585.000000 1.12818000e+09
2595.000000 1.11659000e+09
2605.000000 1.11203000e+09
2615.000000 1.10205000e+09
2625.000000 1.09127000e+09
2635.000000 1.07736000e+09
2645.000000 1.06987000e+09
2655.000000 1.05809000e+09
2665.000000 1.04618000e+09
2675.000000 1.03617000e+09
2685.000000 1.03134000e+09
2695.000000 1.01503000e+09
2705.000000 1.01130000e+09
2715.000000 1.00121000e+09
2725.000000 9.84792000e+08
2735.000000 9.82136000e+08
2745.000000 9.68844000e+08
2755.000000 9.60285000e+08
2765.000000 9.46994000e+08
2775.000000 9.45367000e+08
2785.000000 9.36162000e+08
2795.000000 9.18046000e+08
2805.000000 9.14433000e+08
2815.000000 9.10182000e+08
2825.000000 8.94119000e+08
2835.000000 8.89370000e+08
2845.000000 8.84618000e+08
2855.000000 8.76491000e+08
2865.000000 8.68547000e+08
2875.000000 8.60373000e+08
2885.000000 8.52473000e+08
2895.000000 8.44661000e+08
2910.000000 8.33084000e+08
2930.000000 8.17712000e+08
2950.000000 7.98740000e+08
2970.000000 7.88659000e+08
2990.000000 7.74478000e+08
3010.000000 7.60769000e+08
3030.000000 7.47353000e+08
3050.000000 7.34182000e+08
3070.000000 7.21330000e+08
3090.000000 7.08708000e+08
3110.000000 6.96467000e+08
3130.000000 6.85095000e+08
3150.000000 6.73310000e+08
3170.000000 6.61542000e+08
3190.000000 6.46165000e+08
3210.000000 6.39235000e+08
3230.000000 6.28418000e+08
3250.000000 6.17818000e+08
3270.000000 6.08029000e+08
3290.000000 5.97388000e+08
3310.000000 5.88093000e+08
3330.000000 5.78434000e+08
3350.000000 5.68258000e+08
3370.000000 5.59709000e+08
3390.000000 5.50665000e+08
3410.000000 5.41763000e+08
3430.000000 5.31653000e+08
3450.000000 5.21930000e+08
3470.000000 5.14710000e+08
3490.000000 5.06601000e+08
3510.000000 5.00263000e+08
3530.000000 4.92645000e+08
3550.000000 4.85018000e+08
3570.000000 4.78919000e+08
3590.000000 4.69768000e+08
3610.000000 4.63045000e+08
3630.000000 4.55327000e+08
3640.000000 4.53738000e+08
3650.000000 4.50152000e+08
3670.000000 4.44672000e+08
3690.000000 4.30292000e+08
3710.000000 4.26240000e+08
3730.000000 4.24795000e+08
3750.000000 4.83446000e+08
3770.000000 4.92750000e+08
3790.000000 5.22733000e+08
3810.000000 5.50661000e+08
3830.000000 4.75762000e+08
3850.000000 5.68633000e+08
3870.000000 5.71248000e+08
3890.000000 4.51813000e+08
3910.000000 5.62133000e+08
3930.000000 5.53548000e+08
3950.000000 5.44866000e+08
3970.000000 4.20976000e+08
3990.000000 5.24460000e+08
4010.000000 5.19827000e+08
4030.000000 4.93850000e+08
4050.000000 5.08622000e+08
4070.000000 4.98564000e+08
4090.000000 4.62171000e+08
4110.000000 3.97981000e+08
4130.000000 4.69451000e+08
4150.000000 4.65003000e+08
4170.000000 4.60705000e+08
4190.000000 4.54772000e+08
4210.000000 4.47677000e+08
4230.000000 4.40696000e+08
4250.000000 4.33846000e+08
4270.000000 4.26816000e+08
4290.000000 4.20471000e+08
4310.000000 4.12117000e+08
4330.000000 3.74622000e+08
4350.000000 3.38833000e+08
4370.000000 3.92888000e+08
4390.000000 3.80285000e+08
4410.000000 3.83604000e+08
4430.000000 3.76213000e+08
4450.000000 3.72230000e+08
4470.000000 3.53371000e+08
4490.000000 3.61031000e+08
4510.000000 3.55909000e+08
4530.000000 3.50662000e+08
4550.000000 3.45512000e+08
4570.000000 3.40456000e+08
4590.000000 3.35511000e+08
4610.000000 3.30656000e+08
4630.000000 3.25855000e+08
4650.000000 3.21141000e+08
4670.000000 3.16565000e+08
4690.000000 3.12039000e+08
4710.000000 3.04113000e+08
4730.000000 3.03163000e+08
4750.000000 2.98829000e+08
4770.000000 2.94722000e+08
4790.000000 2.90575000e+08
4810.000000 2.86324000e+08
4830.000000 2.81034000e+08
4850.000000 2.59967000e+08
4870.000000 2.29689000e+08
4890.000000 2.68713000e+08
4910.000000 2.66529000e+08
4930.000000 2.58294000e+08
4950.000000 2.59948000e+08
4970.000000 2.56411000e+08
4990.000000 2.52937000e+08
5010.000000 2.46839000e+08
5030.000000 2.46146000e+08
5050.000000 2.41497000e+08
5070.000000 2.39610000e+08
5090.000000 2.36407000e+08
5110.000000 2.33262000e+08
5130.000000 2.30173000e+08
5150.000000 2.27138000e+08
5170.000000 2.24158000e+08
5190.000000 2.21217000e+08
5210.000000 2.18315000e+08
5230.000000 2.15491000e+08
5250.000000 2.12691000e+08
5270.000000 2.09940000e+08
5290.000000 2.07238000e+08
5310.000000 2.04571000e+08
5330.000000 2.01951000e+08
5350.000000 1.99365000e+08
5370.000000 1.96837000e+08
5390.000000 1.94329000e+08
5410.000000 1.91878000e+08
5430.000000 1.89445000e+08
5450.000000 1.87068000e+08
5470.000000 1.84733000e+08
5490.000000 1.82427000e+08
5510.000000 1.80162000e+08
5530.000000 1.77925000e+08
5550.000000 1.75728000e+08
5570.000000 1.73557000e+08
5590.000000 1.71425000e+08
5610.000000 1.69319000e+08
5630.000000 1.67251000e+08
5650.000000 1.65207000e+08
5670.000000 1.63212000e+08
5690.000000 1.61241000e+08
5710.000000 1.59293000e+08
5730.000000 1.57379000e+08
5750.000000 1.55489000e+08
5770.000000 1.53632000e+08
5790.000000 1.51797000e+08
5810.000000 1.49995000e+08
5830.000000 1.48225000e+08
5850.000000 1.46476000e+08
5870.000000 1.41062000e+08
5890.000000 1.42962000e+08
5910.000000 1.41381000e+08
5930.000000 1.39733000e+08
5950.000000 1.38103000e+08
5970.000000 1.36503000e+08
5990.000000 1.34921000e+08
6010.000000 1.33367000e+08
6030.000000 1.31831000e+08
6050.000000 1.30323000e+08
6070.000000 1.28842000e+08
6090.000000 1.27367000e+08
6110.000000 1.25929000e+08
6130.000000 1.24497000e+08
6150.000000 1.23091000e+08
6170.000000 1.21711000e+08
6190.000000 1.20345000e+08
6210.000000 1.18995000e+08
6230.000000 1.17669000e+08
6250.000000 1.16358000e+08
6270.000000 1.15071000e+08
6290.000000 1.13797000e+08
6310.000000 1.12538000e+08
6330.000000 1.11301000e+08
6350.000000 1.10069000e+08
6370.000000 1.08868000e+08
6390.000000 1.07689000e+08
6410.000000 1.06514000e+08
6430.000000 1.05361000e+08
6450.000000 1.04219000e+08
6470.000000 1.03090000e+08
6490.000000 1.01981000e+08
6510.000000 1.00867000e+08
6530.000000 9.93930000e+07
6550.000000 9.50813000e+07
6570.000000 8.38739000e+07
6590.000000 9.57696000e+07
6610.000000 9.54927000e+07
6630.000000 9.46261000e+07
6650.000000 9.36829000e+07
6670.000000 9.19788000e+07
6690.000000 9.10340000e+07
6710.000000 9.07683000e+07
6730.000000 8.98220000e+07
6750.000000 8.88854000e+07
6770.000000 8.79665000e+07
6790.000000 8.70568000e+07
6810.000000 8.61563000e+07
6830.000000 8.52729000e+07
6850.000000 8.43983000e+07
6870.000000 8.35325000e+07
6890.000000 8.26832000e+07
6910.000000 8.18423000e+07
6930.000000 8.10097000e+07
6950.000000 8.01932000e+07
6970.000000 7.93847000e+07
6990.000000 7.85764000e+07
7010.000000 7.77913000e+07
7030.000000 7.70139000e+07
7050.000000 7.62441000e+07
7070.000000 7.44401000e+07
7090.000000 7.47349000e+07
7110.000000 7.39939000e+07
7130.000000 7.32622000e+07
7150.000000 7.25397000e+07
7170.000000 7.18154000e+07
7190.000000 7.11212000e+07
7210.000000 7.04250000e+07
7230.000000 6.97195000e+07
7250.000000 6.90580000e+07
7270.000000 6.83864000e+07
7290.000000 6.72801000e+07
7310.000000 6.70605000e+07
7330.000000 6.64216000e+07
7350.000000 6.57823000e+07
7370.000000 6.51511000e+07
7390.000000 6.45272000e+07
7410.000000 6.39104000e+07
7430.000000 6.33013000e+07
7450.000000 6.27067000e+07
7470.000000 6.21121000e+07
7490.000000 6.15243000e+07
7510.000000 6.09265000e+07
7530.000000 6.03694000e+07
7550.000000 5.98028000e+07
7570.000000 5.92420000e+07
7590.000000 5.86883000e+07
7610.000000 5.81415000e+07
7630.000000 5.76002000e+07
7650.000000 5.70658000e+07
7670.000000 5.65374000e+07
7690.000000 5.60143000e+07
7710.000000 5.54978000e+07
7730.000000 5.49885000e+07
7750.000000 5.44830000e+07
7770.000000 5.39807000e+07
7790.000000 5.34928000e+07
7810.000000 5.29802000e+07
7830.000000 5.25237000e+07
7850.000000 5.20901000e+07
7870.000000 5.16183000e+07
7890.000000 5.11373000e+07
7910.000000 5.06923000e+07
7930.000000 5.02363000e+07
7950.000000 4.97853000e+07
7970.000000 4.93009000e+07
7990.000000 4.88803000e+07
8010.000000 4.84093000e+07
8030.000000 4.79862000e+07
8050.000000 4.75707000e+07
8070.000000 4.71628000e+07
8090.000000 4.66841000e+07
8110.000000 4.62984000e+07
8130.000000 4.59324000e+07
8150.000000 4.54656000e+07
8170.000000 4.51411000e+07
8190.000000 4.47131000e+07
8210.000000 4.42574000e+07
8230.000000 4.39831000e+07
8250.000000 4.36179000e+07
8270.000000 4.30811000e+07
8290.000000 4.28389000e+07
8310.000000 4.24846000e+07
8330.000000 4.21141000e+07
8350.000000 4.15981000e+07
8370.000000 4.13017000e+07
8390.000000 4.09750000e+07
8410.000000 4.05673000e+07
8430.000000 4.01704000e+07
8450.000000 3.97008000e+07
8470.000000 3.91496000e+07
8490.000000 3.93130000e+07
8510.000000 3.82363000e+07
8530.000000 3.89249000e+07
8550.000000 3.68311000e+07
8570.000000 3.89528000e+07
8590.000000 3.67467000e+07
8610.000000 3.63531000e+07
8630.000000 3.85815000e+07
8650.000000 3.73333000e+07
8670.000000 3.36475000e+07
8690.000000 3.77777000e+07
8710.000000 3.80831000e+07
8730.000000 3.68786000e+07
8750.000000 3.21710000e+07
8770.000000 3.56466000e+07
8790.000000 3.70137000e+07
8810.000000 3.67982000e+07
8830.000000 3.63612000e+07
8850.000000 3.39200000e+07
8870.000000 3.07697000e+07
8890.000000 3.50774000e+07
8910.000000 3.53230000e+07
8930.000000 3.50766000e+07
8950.000000 3.48777000e+07
8970.000000 3.45331000e+07
8990.000000 3.36189000e+07
9010.000000 2.94659000e+07
9030.000000 3.11785000e+07
9050.000000 3.32087000e+07
9070.000000 3.29465000e+07
9090.000000 3.28933000e+07
9110.000000 3.27523000e+07
9130.000000 3.25122000e+07
9150.000000 3.22510000e+07
9170.000000 3.18605000e+07
9190.000000 3.15373000e+07
9210.000000 3.02191000e+07
9230.000000 2.62667000e+07
9250.000000 2.97055000e+07
9270.000000 3.05078000e+07
9290.000000 3.04233000e+07
9310.000000 3.01293000e+07
9330.000000 3.00158000e+07
9350.000000 2.97600000e+07
9370.000000 2.95456000e+07
9390.000000 2.93143000e+07
9410.000000 2.90830000e+07
9430.000000 2.88577000e+07
9450.000000 2.86323000e+07
9470.000000 2.82565000e+07
9490.000000 2.81187000e+07
9510.000000 2.75732000e+07
9530.000000 2.63675000e+07
9550.000000 2.32669000e+07
9570.000000 2.65005000e+07
9590.000000 2.69459000e+07
9610.000000 2.67914000e+07
9630.000000 2.65921000e+07
9650.000000 2.64998000e+07
9670.000000 2.62976000e+07
9690.000000 2.60773000e+07
9710.000000 2.58365000e+07
9730.000000 2.57029000e+07
9750.000000 2.55084000e+07
9770.000000 2.53157000e+07
9790.000000 2.51247000e+07
9810.000000 2.49355000e+07
9830.000000 2.47483000e+07
9850.000000 2.45625000e+07
9870.000000 2.43788000e+07
9890.000000 2.41963000e+07
9910.000000 2.40147000e+07
9930.000000 2.38371000e+07
9950.000000 2.36599000e+07
9970.000000 2.34840000e+07
9990.000000 2.32613000e+07
10025.000000 2.20541000e+07
10075.000000 2.13132000e+07
10125.000000 2.21152000e+07
10175.000000 2.17769000e+07
10225.000000 2.13763000e+07
10275.000000 2.10004000e+07
10325.000000 2.05642000e+07
10375.000000 2.02580000e+07
10425.000000 1.98992000e+07
10475.000000 1.95483000e+07
10525.000000 1.92048000e+07
10575.000000 1.88690000e+07
10625.000000 1.85407000e+07
10675.000000 1.81932000e+07
10725.000000 1.79054000e+07
10775.000000 1.75978000e+07
10825.000000 1.71212000e+07
10875.000000 1.69568000e+07
10925.000000 1.54160000e+07
10975.000000 1.60818000e+07
11025.000000 1.60677000e+07
11075.000000 1.58781000e+07
11125.000000 1.56207000e+07
11175.000000 1.53614000e+07
11225.000000 1.51014000e+07
11275.000000 1.48590000e+07
11325.000000 1.46153000e+07
11375.000000 1.43767000e+07
11425.000000 1.41432000e+07
11475.000000 1.39141000e+07
11525.000000 1.36898000e+07
11575.000000 1.34700000e+07
11625.000000 1.32546000e+07
11675.000000 1.30435000e+07
11725.000000 1.28366000e+07
11775.000000 1.26338000e+07
11825.000000 1.24350000e+07
11875.000000 1.22399000e+07
11925.000000 1.20488000e+07
11975.000000 1.17865000e+07
12025.000000 1.16778000e+07
12075.000000 1.14976000e+07
12125.000000 1.13207000e+07
12175.000000 1.11473000e+07
12225.000000 1.09774000e+07
12275.000000 1.08104000e+07
12325.000000 1.06470000e+07
12375.000000 1.04863000e+07
12425.000000 1.03289000e+07
12475.000000 1.01741000e+07
12525.000000 1.00076000e+07
12575.000000 9.87359000e+06
12625.000000 9.72747000e+06
12675.000000 9.58405000e+06
12725.000000 9.43955000e+06
12775.000000 9.16797000e+06
12825.000000 8.47432000e+06
12875.000000 8.98134000e+06
12925.000000 8.90544000e+06
12975.000000 8.73893000e+06
13025.000000 8.65109000e+06
13075.000000 8.52731000e+06
