# Kurucz ODFNEW /NOVER, alpha: 0.0 (2003)
# teff = 28000 K (value for the effective temperature for the model. Temperatures are given in K)
# logg = 4 log(cm/s2) (value for Log(G) for the model.)
# lh = 1.25  (l/Hp where l is the  mixing length of the convective element and Hp is the pressure scale height)
# meta = -2.5  (value for the Metallicity for the model.)
# vtur = 2 km/s (Microturbulence velocity)
# alpha = 0  (Alpha)
#
# column 1: WAVELENGTH (ANGSTROM), Wavelength in Angstrom
# column 2: FLUX (ERG/CM2/S/A), Flux in erg/cm2/s/A
147.200000 2.17697000e-10
151.000000 8.50281000e-10
155.200000 3.53737000e-09
158.800000 1.13184000e-08
162.000000 3.04151000e-08
166.000000 9.88976000e-08
170.300000 3.31108000e-07
173.400000 7.60574000e-07
176.800000 1.82783000e-06
180.200000 4.24922000e-06
181.700000 6.10654000e-06
186.100000 1.70671000e-05
191.000000 5.05411000e-05
193.900000 9.36673000e-05
198.400000 2.35144000e-04
201.800000 4.57636000e-04
205.000000 8.38890000e-04
210.500000 2.27822000e-03
216.200000 6.05540000e-03
219.800000 1.09294000e-02
223.000000 1.81755000e-02
226.800000 3.26207000e-02
230.000000 8.75736000e-01
234.000000 2.14365000e+00
240.000000 4.43036000e+00
246.500000 9.46005000e+00
252.400000 1.82629000e+01
256.800000 2.56870000e+01
260.000000 3.96279000e+01
264.000000 5.81234000e+01
268.500000 8.89564000e+01
273.500000 1.39819000e+02
278.500000 2.16113000e+02
284.000000 3.43067000e+02
290.000000 5.54119000e+02
296.000000 8.73328000e+02
301.000000 1.22997000e+03
308.000000 1.87090000e+03
318.000000 4.03202000e+03
328.000000 7.48283000e+03
338.000000 1.34251000e+04
348.000000 2.31508000e+04
357.000000 3.67185000e+04
366.000000 5.70848000e+04
375.000000 8.57938000e+04
385.000000 1.33028000e+05
395.000000 2.00120000e+05
405.000000 2.94470000e+05
414.000000 4.10324000e+05
422.000000 5.41642000e+05
430.000000 7.06067000e+05
441.000000 1.00479000e+06
451.000000 1.36044000e+06
460.000000 1.75747000e+06
470.000000 2.31597000e+06
480.000000 3.00321000e+06
490.000000 3.84936000e+06
500.000000 4.87834000e+06
506.000000 3.25575000e+07
512.000000 9.91447000e+07
520.000000 1.06691000e+08
530.000000 1.23853000e+08
540.000000 1.23312000e+08
550.000000 1.49085000e+08
560.000000 1.61083000e+08
570.000000 1.77048000e+08
580.000000 1.73246000e+08
590.000000 2.03062000e+08
600.000000 2.20606000e+08
610.000000 2.39827000e+08
620.000000 2.56262000e+08
630.000000 2.76961000e+08
640.000000 2.91735000e+08
650.000000 3.16542000e+08
658.000000 3.33725000e+08
665.000000 3.48553000e+08
675.000000 3.65555000e+08
685.000000 3.82506000e+08
695.000000 4.19700000e+08
705.000000 4.36476000e+08
716.000000 4.68685000e+08
726.000000 4.93180000e+08
735.000000 5.21086000e+08
745.000000 5.49573000e+08
755.000000 5.77065000e+08
765.000000 6.03939000e+08
775.000000 6.35634000e+08
785.000000 6.66983000e+08
795.000000 6.94359000e+08
805.000000 7.25409000e+08
815.000000 7.53544000e+08
825.000000 7.86752000e+08
835.000000 7.95145000e+08
845.000000 8.45607000e+08
855.000000 8.75157000e+08
865.000000 9.08712000e+08
875.000000 9.42925000e+08
885.000000 9.75175000e+08
895.000000 1.00651000e+09
905.000000 1.03172000e+09
915.000000 1.49940000e+09
925.000000 1.09885000e+10
935.000000 2.26458000e+10
945.000000 4.23629000e+10
955.000000 4.81845000e+10
965.000000 5.82637000e+10
975.000000 3.27285000e+10
985.000000 5.74515000e+10
995.000000 5.40574000e+10
1005.000000 5.59709000e+10
1015.000000 5.30268000e+10
1025.000000 3.00261000e+10
1035.000000 5.00512000e+10
1045.000000 5.26616000e+10
1055.000000 5.15326000e+10
1065.000000 4.86861000e+10
1075.000000 4.84919000e+10
1085.000000 4.53205000e+10
1095.000000 4.71106000e+10
1105.000000 4.53732000e+10
1115.000000 4.44357000e+10
1125.000000 4.23187000e+10
1135.000000 4.29332000e+10
1145.000000 4.16061000e+10
1155.000000 4.10639000e+10
1165.000000 4.02842000e+10
1175.000000 3.58222000e+10
1185.000000 3.82571000e+10
1195.000000 3.69705000e+10
1205.000000 3.47457000e+10
1215.000000 1.97694000e+10
1225.000000 3.38564000e+10
1235.000000 3.44539000e+10
1245.000000 3.35138000e+10
1255.000000 3.32210000e+10
1265.000000 3.25354000e+10
1275.000000 3.19089000e+10
1285.000000 3.12476000e+10
1295.000000 2.97875000e+10
1305.000000 2.94699000e+10
1315.000000 2.93436000e+10
1325.000000 2.85676000e+10
1335.000000 2.76424000e+10
1345.000000 2.75348000e+10
1355.000000 2.70335000e+10
1365.000000 2.64366000e+10
1375.000000 2.59140000e+10
1385.000000 2.54076000e+10
1395.000000 2.43245000e+10
1405.000000 2.39508000e+10
1415.000000 2.38694000e+10
1425.000000 2.33686000e+10
1435.000000 2.29837000e+10
1442.000000 2.27031000e+10
1447.000000 2.24673000e+10
1455.000000 2.21070000e+10
1465.000000 2.16728000e+10
1475.000000 2.12536000e+10
1485.000000 2.08589000e+10
1495.000000 2.04443000e+10
1505.000000 2.00022000e+10
1512.000000 1.97499000e+10
1517.000000 1.95675000e+10
1525.000000 1.92510000e+10
1535.000000 1.86876000e+10
1545.000000 1.82002000e+10
1555.000000 1.78469000e+10
1565.000000 1.77550000e+10
1575.000000 1.75074000e+10
1585.000000 1.72137000e+10
1595.000000 1.69038000e+10
1605.000000 1.64467000e+10
1615.000000 1.61439000e+10
1625.000000 1.59059000e+10
1635.000000 1.55724000e+10
1645.000000 1.49034000e+10
1655.000000 1.51419000e+10
1665.000000 1.48859000e+10
1672.000000 1.46766000e+10
1677.000000 1.46334000e+10
1685.000000 1.44085000e+10
1695.000000 1.41420000e+10
1705.000000 1.38742000e+10
1715.000000 1.35720000e+10
1725.000000 1.33568000e+10
1735.000000 1.31933000e+10
1745.000000 1.29559000e+10
1755.000000 1.27414000e+10
1765.000000 1.24814000e+10
1775.000000 1.22993000e+10
1785.000000 1.21181000e+10
1795.000000 1.19191000e+10
1805.000000 1.17366000e+10
1815.000000 1.15230000e+10
1825.000000 1.13348000e+10
1835.000000 1.11545000e+10
1845.000000 1.09048000e+10
1855.000000 1.06247000e+10
1865.000000 1.05005000e+10
1875.000000 1.04227000e+10
1885.000000 1.01689000e+10
1895.000000 9.92257000e+09
1905.000000 9.89674000e+09
1915.000000 9.63308000e+09
1925.000000 9.47399000e+09
1935.000000 9.39020000e+09
1945.000000 9.29917000e+09
1955.000000 9.04174000e+09
1967.000000 8.98054000e+09
1976.000000 8.89110000e+09
1984.000000 8.72862000e+09
1995.000000 8.50930000e+09
2005.000000 8.48376000e+09
2015.000000 8.37573000e+09
2025.000000 8.25968000e+09
2035.000000 8.11266000e+09
2045.000000 7.98892000e+09
2055.000000 7.53954000e+09
2065.000000 7.37517000e+09
2074.000000 7.38355000e+09
2078.000000 7.29277000e+09
2085.000000 7.36253000e+09
2095.000000 7.34485000e+09
2105.000000 7.31332000e+09
2115.000000 7.22311000e+09
2125.000000 7.12291000e+09
2135.000000 7.01519000e+09
2145.000000 6.90784000e+09
2155.000000 6.82133000e+09
2165.000000 6.71200000e+09
2175.000000 6.62908000e+09
2185.000000 6.52041000e+09
2195.000000 6.44464000e+09
2205.000000 6.35315000e+09
2215.000000 6.24731000e+09
2225.000000 6.17423000e+09
2235.000000 6.08653000e+09
2245.000000 6.00350000e+09
2255.000000 5.90377000e+09
2265.000000 5.83773000e+09
2275.000000 5.75719000e+09
2285.000000 5.67783000e+09
2295.000000 5.54327000e+09
2305.000000 5.50903000e+09
2315.000000 5.44706000e+09
2325.000000 5.37326000e+09
2335.000000 5.29977000e+09
2345.000000 5.23000000e+09
2355.000000 5.15987000e+09
2365.000000 5.09080000e+09
2375.000000 5.02257000e+09
2385.000000 4.94352000e+09
2395.000000 4.88978000e+09
2405.000000 4.82569000e+09
2415.000000 4.76184000e+09
2425.000000 4.69997000e+09
2435.000000 4.63806000e+09
2445.000000 4.57796000e+09
2455.000000 4.51886000e+09
2465.000000 4.46051000e+09
2475.000000 4.40283000e+09
2485.000000 4.34629000e+09
2495.000000 4.21760000e+09
2505.000000 4.23544000e+09
2513.000000 4.16443000e+09
2518.000000 4.16473000e+09
2525.000000 4.12914000e+09
2535.000000 4.07734000e+09
2545.000000 4.02274000e+09
2555.000000 3.97457000e+09
2565.000000 3.92589000e+09
2575.000000 3.87716000e+09
2585.000000 3.82918000e+09
2595.000000 3.78188000e+09
2605.000000 3.75562000e+09
2615.000000 3.70932000e+09
2625.000000 3.66324000e+09
2635.000000 3.61362000e+09
2645.000000 3.56895000e+09
2655.000000 3.52149000e+09
2665.000000 3.47432000e+09
2675.000000 3.42960000e+09
2685.000000 3.40530000e+09
2695.000000 3.34392000e+09
2705.000000 3.32398000e+09
2715.000000 3.28441000e+09
2725.000000 3.22392000e+09
2735.000000 3.20074000e+09
2745.000000 3.16892000e+09
2755.000000 3.13181000e+09
2765.000000 3.07229000e+09
2775.000000 3.05899000e+09
2785.000000 3.02322000e+09
2795.000000 2.98407000e+09
2805.000000 2.95259000e+09
2815.000000 2.91943000e+09
2825.000000 2.85976000e+09
2835.000000 2.84102000e+09
2845.000000 2.82002000e+09
2855.000000 2.78768000e+09
2865.000000 2.75600000e+09
2875.000000 2.72478000e+09
2885.000000 2.69402000e+09
2895.000000 2.66357000e+09
2910.000000 2.61870000e+09
2930.000000 2.56052000e+09
2950.000000 2.48834000e+09
2970.000000 2.44892000e+09
2990.000000 2.39537000e+09
3010.000000 2.34322000e+09
3030.000000 2.29290000e+09
3050.000000 2.24369000e+09
3070.000000 2.19581000e+09
3090.000000 2.14857000e+09
3110.000000 2.10385000e+09
3130.000000 2.06148000e+09
3150.000000 2.01841000e+09
3170.000000 1.97589000e+09
3190.000000 1.92028000e+09
3210.000000 1.89346000e+09
3230.000000 1.85597000e+09
3250.000000 1.81793000e+09
3270.000000 1.78304000e+09
3290.000000 1.74493000e+09
3310.000000 1.71232000e+09
3330.000000 1.67826000e+09
3350.000000 1.64227000e+09
3370.000000 1.61272000e+09
3390.000000 1.58115000e+09
3410.000000 1.55038000e+09
3430.000000 1.51404000e+09
3450.000000 1.47986000e+09
3470.000000 1.45559000e+09
3490.000000 1.42763000e+09
3510.000000 1.40453000e+09
3530.000000 1.38013000e+09
3550.000000 1.35440000e+09
3570.000000 1.33566000e+09
3590.000000 1.30317000e+09
3610.000000 1.28186000e+09
3630.000000 1.25539000e+09
3640.000000 1.25195000e+09
3650.000000 1.23687000e+09
3670.000000 1.21900000e+09
3690.000000 1.19227000e+09
3710.000000 1.15227000e+09
3730.000000 1.10816000e+09
3750.000000 1.14925000e+09
3770.000000 1.14268000e+09
3790.000000 1.18492000e+09
3810.000000 1.22550000e+09
3830.000000 1.08453000e+09
3850.000000 1.23941000e+09
3870.000000 1.23728000e+09
3890.000000 1.02828000e+09
3910.000000 1.20938000e+09
3930.000000 1.18849000e+09
3950.000000 1.16828000e+09
3970.000000 9.53004000e+08
3990.000000 1.12249000e+09
4010.000000 1.10818000e+09
4030.000000 1.05420000e+09
4050.000000 1.07995000e+09
4070.000000 1.05744000e+09
4090.000000 9.92625000e+08
4110.000000 8.79261000e+08
4130.000000 9.93545000e+08
4150.000000 9.81082000e+08
4170.000000 9.70546000e+08
4190.000000 9.55916000e+08
4210.000000 9.39416000e+08
4230.000000 9.23922000e+08
4250.000000 9.08259000e+08
4270.000000 8.92581000e+08
4290.000000 8.77993000e+08
4310.000000 8.60352000e+08
4330.000000 7.96603000e+08
4350.000000 7.31479000e+08
4370.000000 8.17202000e+08
4390.000000 7.90166000e+08
4410.000000 7.94657000e+08
4430.000000 7.79244000e+08
4450.000000 7.69401000e+08
4470.000000 7.30705000e+08
4490.000000 7.44635000e+08
4510.000000 7.33044000e+08
4530.000000 7.21391000e+08
4550.000000 7.09531000e+08
4570.000000 6.98680000e+08
4590.000000 6.87705000e+08
4610.000000 6.77000000e+08
4630.000000 6.66454000e+08
4650.000000 6.55559000e+08
4670.000000 6.45914000e+08
4690.000000 6.34234000e+08
4710.000000 6.19468000e+08
4730.000000 6.16682000e+08
4750.000000 6.07259000e+08
4770.000000 5.98137000e+08
4790.000000 5.89097000e+08
4810.000000 5.80170000e+08
4830.000000 5.69206000e+08
4850.000000 5.34780000e+08
4870.000000 4.82394000e+08
4890.000000 5.42972000e+08
4910.000000 5.37636000e+08
4930.000000 5.19735000e+08
4950.000000 5.22586000e+08
4970.000000 5.14987000e+08
4990.000000 5.07493000e+08
5010.000000 4.94819000e+08
5030.000000 4.92902000e+08
5050.000000 4.83363000e+08
5070.000000 4.78839000e+08
5090.000000 4.71986000e+08
5110.000000 4.65269000e+08
5130.000000 4.58656000e+08
5150.000000 4.52175000e+08
5170.000000 4.45808000e+08
5190.000000 4.39539000e+08
5210.000000 4.33395000e+08
5230.000000 4.27346000e+08
5250.000000 4.21418000e+08
5270.000000 4.15580000e+08
5290.000000 4.09845000e+08
5310.000000 4.04212000e+08
5330.000000 3.98678000e+08
5350.000000 3.93228000e+08
5370.000000 3.87874000e+08
5390.000000 3.82615000e+08
5410.000000 3.77307000e+08
5430.000000 3.72361000e+08
5450.000000 3.67363000e+08
5470.000000 3.62453000e+08
5490.000000 3.57617000e+08
5510.000000 3.52866000e+08
5530.000000 3.48200000e+08
5550.000000 3.43603000e+08
5570.000000 3.39088000e+08
5590.000000 3.34640000e+08
5610.000000 3.30272000e+08
5630.000000 3.25968000e+08
5650.000000 3.21729000e+08
5670.000000 3.17565000e+08
5690.000000 3.13440000e+08
5710.000000 3.09445000e+08
5730.000000 3.05476000e+08
5750.000000 3.01566000e+08
5770.000000 2.97736000e+08
5790.000000 2.93964000e+08
5810.000000 2.90247000e+08
5830.000000 2.86585000e+08
5850.000000 2.82978000e+08
5870.000000 2.72011000e+08
5890.000000 2.75705000e+08
5910.000000 2.72505000e+08
5930.000000 2.69127000e+08
5950.000000 2.65788000e+08
5970.000000 2.62510000e+08
5990.000000 2.59279000e+08
6010.000000 2.56106000e+08
6030.000000 2.52970000e+08
6050.000000 2.49890000e+08
6070.000000 2.46856000e+08
6090.000000 2.43866000e+08
6110.000000 2.40920000e+08
6130.000000 2.38027000e+08
6150.000000 2.35166000e+08
6170.000000 2.32358000e+08
6190.000000 2.29581000e+08
6210.000000 2.26854000e+08
6230.000000 2.24167000e+08
6250.000000 2.21510000e+08
6270.000000 2.18901000e+08
6290.000000 2.16330000e+08
6310.000000 2.13797000e+08
6330.000000 2.11301000e+08
6350.000000 2.08833000e+08
6370.000000 2.06409000e+08
6390.000000 2.04021000e+08
6410.000000 2.01668000e+08
6430.000000 1.99340000e+08
6450.000000 1.97056000e+08
6470.000000 1.94795000e+08
6490.000000 1.92577000e+08
6510.000000 1.90382000e+08
6530.000000 1.87733000e+08
6550.000000 1.81109000e+08
6570.000000 1.62675000e+08
6590.000000 1.80756000e+08
6610.000000 1.79776000e+08
6630.000000 1.77871000e+08
6650.000000 1.75985000e+08
6670.000000 1.72484000e+08
6690.000000 1.70595000e+08
6710.000000 1.70191000e+08
6730.000000 1.68315000e+08
6750.000000 1.66468000e+08
6770.000000 1.64639000e+08
6790.000000 1.62837000e+08
6810.000000 1.61062000e+08
6830.000000 1.59304000e+08
6850.000000 1.57580000e+08
6870.000000 1.55874000e+08
6890.000000 1.54185000e+08
6910.000000 1.52528000e+08
6930.000000 1.50888000e+08
6950.000000 1.49272000e+08
6970.000000 1.47680000e+08
6990.000000 1.46104000e+08
7010.000000 1.44558000e+08
7030.000000 1.43028000e+08
7050.000000 1.41513000e+08
7070.000000 1.37887000e+08
7090.000000 1.38549000e+08
7110.000000 1.37100000e+08
7130.000000 1.35665000e+08
7150.000000 1.34251000e+08
7170.000000 1.32829000e+08
7190.000000 1.31479000e+08
7210.000000 1.30120000e+08
7230.000000 1.28745000e+08
7250.000000 1.27448000e+08
7270.000000 1.26142000e+08
7290.000000 1.23863000e+08
7310.000000 1.23560000e+08
7330.000000 1.22312000e+08
7350.000000 1.21075000e+08
7370.000000 1.19843000e+08
7390.000000 1.18630000e+08
7410.000000 1.17434000e+08
7430.000000 1.16257000e+08
7450.000000 1.15104000e+08
7470.000000 1.13949000e+08
7490.000000 1.12810000e+08
7510.000000 1.11649000e+08
7530.000000 1.10579000e+08
7550.000000 1.09485000e+08
7570.000000 1.08401000e+08
7590.000000 1.07333000e+08
7610.000000 1.06275000e+08
7630.000000 1.05234000e+08
7650.000000 1.04208000e+08
7670.000000 1.03185000e+08
7690.000000 1.02184000e+08
7710.000000 1.01192000e+08
7730.000000 1.00208000e+08
7750.000000 9.92402000e+07
7770.000000 9.82807000e+07
7790.000000 9.73359000e+07
7810.000000 9.63501000e+07
7830.000000 9.54837000e+07
7850.000000 9.46615000e+07
7870.000000 9.37552000e+07
7890.000000 9.28206000e+07
7910.000000 9.19845000e+07
7930.000000 9.11137000e+07
7950.000000 9.02386000e+07
7970.000000 8.92347000e+07
7990.000000 8.83873000e+07
8010.000000 8.75354000e+07
8030.000000 8.67143000e+07
8050.000000 8.59642000e+07
8070.000000 8.51916000e+07
8090.000000 8.42413000e+07
8110.000000 8.35743000e+07
8130.000000 8.28844000e+07
8150.000000 8.19960000e+07
8170.000000 8.13749000e+07
8190.000000 8.05230000e+07
8210.000000 7.96673000e+07
8230.000000 7.91582000e+07
8250.000000 7.84649000e+07
8270.000000 7.73753000e+07
8290.000000 7.69750000e+07
8310.000000 7.63048000e+07
8330.000000 7.55805000e+07
8350.000000 7.45489000e+07
8370.000000 7.41070000e+07
8390.000000 7.35347000e+07
8410.000000 7.28658000e+07
8430.000000 7.21441000e+07
8450.000000 7.10485000e+07
8470.000000 7.07501000e+07
8490.000000 7.00931000e+07
8510.000000 6.92907000e+07
8530.000000 6.89299000e+07
8550.000000 6.73761000e+07
8570.000000 6.84623000e+07
8590.000000 6.57545000e+07
8610.000000 6.55357000e+07
8630.000000 6.72051000e+07
8650.000000 6.53338000e+07
8670.000000 6.14644000e+07
8690.000000 6.55170000e+07
8710.000000 6.56882000e+07
8730.000000 6.37415000e+07
8750.000000 5.80280000e+07
8770.000000 6.19222000e+07
8790.000000 6.36886000e+07
8810.000000 6.32929000e+07
8830.000000 6.25379000e+07
8850.000000 5.88934000e+07
8870.000000 5.47017000e+07
8890.000000 6.03809000e+07
8910.000000 6.06606000e+07
8930.000000 6.02097000e+07
8950.000000 5.98563000e+07
8970.000000 5.92525000e+07
8990.000000 5.76747000e+07
9010.000000 5.16552000e+07
9030.000000 5.41710000e+07
9050.000000 5.69355000e+07
9070.000000 5.63458000e+07
9090.000000 5.63078000e+07
9110.000000 5.60654000e+07
9130.000000 5.56347000e+07
9150.000000 5.51713000e+07
9170.000000 5.44919000e+07
9190.000000 5.39382000e+07
9210.000000 5.17012000e+07
9230.000000 4.59675000e+07
9250.000000 5.10084000e+07
9270.000000 5.21257000e+07
9290.000000 5.19539000e+07
9310.000000 5.13919000e+07
9330.000000 5.12064000e+07
9350.000000 5.07506000e+07
9370.000000 5.03797000e+07
9390.000000 4.99688000e+07
9410.000000 4.95651000e+07
9430.000000 4.91645000e+07
9450.000000 4.87667000e+07
9470.000000 4.80737000e+07
9490.000000 4.78796000e+07
9510.000000 4.68745000e+07
9530.000000 4.49814000e+07
9550.000000 4.03048000e+07
9570.000000 4.52150000e+07
9590.000000 4.58254000e+07
9610.000000 4.55288000e+07
9630.000000 4.51327000e+07
9650.000000 4.50065000e+07
9670.000000 4.46513000e+07
9690.000000 4.42585000e+07
9710.000000 4.38247000e+07
9730.000000 4.36049000e+07
9750.000000 4.32637000e+07
9770.000000 4.29249000e+07
9790.000000 4.25886000e+07
9810.000000 4.22585000e+07
9830.000000 4.19308000e+07
9850.000000 4.16054000e+07
9870.000000 4.12822000e+07
9890.000000 4.09614000e+07
9910.000000 4.06428000e+07
9930.000000 4.03340000e+07
9950.000000 4.00236000e+07
9970.000000 3.97154000e+07
9990.000000 3.93414000e+07
10025.000000 3.73852000e+07
10075.000000 3.61748000e+07
10125.000000 3.73071000e+07
10175.000000 3.67303000e+07
10225.000000 3.60310000e+07
10275.000000 3.53776000e+07
10325.000000 3.45912000e+07
10375.000000 3.40853000e+07
10425.000000 3.34614000e+07
10475.000000 3.28516000e+07
10525.000000 3.22555000e+07
10575.000000 3.16730000e+07
10625.000000 3.11033000e+07
10675.000000 3.04886000e+07
10725.000000 3.00023000e+07
10775.000000 2.94698000e+07
10825.000000 2.86432000e+07
10875.000000 2.83706000e+07
10925.000000 2.58591000e+07
10975.000000 2.69358000e+07
11025.000000 2.68033000e+07
11075.000000 2.64949000e+07
11125.000000 2.60560000e+07
11175.000000 2.56098000e+07
11225.000000 2.51591000e+07
11275.000000 2.47450000e+07
11325.000000 2.43267000e+07
11375.000000 2.39168000e+07
11425.000000 2.35157000e+07
11475.000000 2.31229000e+07
11525.000000 2.27381000e+07
11575.000000 2.23616000e+07
11625.000000 2.19923000e+07
11675.000000 2.16313000e+07
11725.000000 2.12773000e+07
11775.000000 2.09307000e+07
11825.000000 2.05908000e+07
11875.000000 2.02580000e+07
11925.000000 1.99320000e+07
11975.000000 1.94296000e+07
12025.000000 1.92991000e+07
12075.000000 1.89921000e+07
12125.000000 1.86912000e+07
12175.000000 1.83962000e+07
12225.000000 1.81071000e+07
12275.000000 1.78237000e+07
12325.000000 1.75457000e+07
12375.000000 1.72730000e+07
12425.000000 1.70057000e+07
12475.000000 1.67435000e+07
12525.000000 1.64526000e+07
12575.000000 1.62341000e+07
12625.000000 1.59867000e+07
12675.000000 1.57438000e+07
12725.000000 1.55026000e+07
12775.000000 1.50197000e+07
12825.000000 1.39315000e+07
12875.000000 1.47332000e+07
12925.000000 1.45964000e+07
12975.000000 1.42834000e+07
13025.000000 1.41673000e+07
13075.000000 1.39587000e+07
