# Kurucz ODFNEW /NOVER, alpha: 0.0 (2003)
# teff = 22000 K (value for the effective temperature for the model. Temperatures are given in K)
# logg = 4 log(cm/s2) (value for Log(G) for the model.)
# lh = 1.25  (l/Hp where l is the  mixing length of the convective element and Hp is the pressure scale height)
# meta = -2.5  (value for the Metallicity for the model.)
# vtur = 2 km/s (Microturbulence velocity)
# alpha = 0  (Alpha)
#
# column 1: WAVELENGTH (ANGSTROM), Wavelength in Angstrom
# column 2: FLUX (ERG/CM2/S/A), Flux in erg/cm2/s/A
147.200000 8.09171000e-18
151.000000 4.96765000e-17
155.200000 3.32795000e-16
158.800000 1.56698000e-15
162.000000 5.85851000e-15
166.000000 2.83258000e-14
170.300000 1.41666000e-13
173.400000 4.29797000e-13
176.800000 1.38672000e-12
180.200000 4.27544000e-12
181.700000 6.92961000e-12
186.100000 2.72802000e-11
191.000000 1.16207000e-10
193.900000 2.64361000e-10
198.400000 9.00943000e-10
201.800000 2.19100000e-09
205.000000 4.91698000e-09
210.500000 1.85822000e-08
216.200000 6.84058000e-08
219.800000 1.50225000e-07
223.000000 2.95602000e-07
226.800000 6.43391000e-07
230.000000 1.67584000e-06
234.000000 3.76661000e-06
240.000000 1.10180000e-05
246.500000 3.31554000e-05
252.400000 8.59540000e-05
256.800000 1.68135000e-04
260.000000 2.73146000e-04
264.000000 4.88198000e-04
268.500000 9.17573000e-04
273.500000 1.80326000e-03
278.500000 3.45749000e-03
284.000000 6.87871000e-03
290.000000 1.41164000e-02
296.000000 2.80767000e-02
301.000000 4.87373000e-02
308.000000 1.01688000e-01
318.000000 2.76937000e-01
328.000000 7.03601000e-01
338.000000 1.68517000e+00
348.000000 3.82534000e+00
357.000000 7.66737000e+00
366.000000 1.48182000e+01
375.000000 2.76657000e+01
385.000000 5.33534000e+01
395.000000 9.92185000e+01
405.000000 1.78448000e+02
414.000000 2.94731000e+02
422.000000 4.51354000e+02
430.000000 6.79213000e+02
441.000000 1.16021000e+03
451.000000 1.84067000e+03
460.000000 2.73574000e+03
470.000000 4.16602000e+03
480.000000 6.21996000e+03
490.000000 9.11870000e+03
500.000000 1.31382000e+04
506.000000 7.87754000e+04
512.000000 2.32912000e+05
520.000000 2.96549000e+05
530.000000 4.29611000e+05
540.000000 4.74258000e+05
550.000000 6.80616000e+05
560.000000 8.33718000e+05
570.000000 1.02359000e+06
580.000000 1.04780000e+06
590.000000 1.39523000e+06
600.000000 1.77304000e+06
610.000000 2.11155000e+06
620.000000 2.48236000e+06
630.000000 2.91066000e+06
640.000000 3.36067000e+06
650.000000 3.91736000e+06
658.000000 4.39905000e+06
665.000000 4.84226000e+06
675.000000 5.49361000e+06
685.000000 6.23104000e+06
695.000000 7.15601000e+06
705.000000 8.06327000e+06
716.000000 9.16001000e+06
726.000000 1.02403000e+07
735.000000 1.13467000e+07
745.000000 1.26406000e+07
755.000000 1.40203000e+07
765.000000 1.54863000e+07
775.000000 1.70794000e+07
785.000000 1.87660000e+07
795.000000 2.05423000e+07
805.000000 2.24401000e+07
815.000000 2.44275000e+07
825.000000 2.65716000e+07
835.000000 2.85093000e+07
845.000000 3.11139000e+07
855.000000 3.34783000e+07
865.000000 3.61602000e+07
875.000000 3.88846000e+07
885.000000 4.17203000e+07
895.000000 4.46432000e+07
905.000000 4.72530000e+07
915.000000 8.21157000e+07
925.000000 5.66046000e+08
935.000000 2.03808000e+09
945.000000 7.61242000e+09
955.000000 1.17477000e+10
965.000000 1.56271000e+10
975.000000 5.99002000e+09
985.000000 1.86135000e+10
995.000000 1.83592000e+10
1005.000000 1.88360000e+10
1015.000000 1.64079000e+10
1025.000000 4.37320000e+09
1035.000000 1.45645000e+10
1045.000000 1.81247000e+10
1055.000000 1.78277000e+10
1065.000000 1.67080000e+10
1075.000000 1.70463000e+10
1085.000000 1.59655000e+10
1095.000000 1.65968000e+10
1105.000000 1.59260000e+10
1115.000000 1.57001000e+10
1125.000000 1.49391000e+10
1135.000000 1.51250000e+10
1145.000000 1.45617000e+10
1155.000000 1.46382000e+10
1165.000000 1.43625000e+10
1175.000000 1.29132000e+10
1185.000000 1.36894000e+10
1195.000000 1.27442000e+10
1205.000000 1.07519000e+10
1215.000000 2.97561000e+09
1225.000000 1.02189000e+10
1235.000000 1.21005000e+10
1245.000000 1.20566000e+10
1255.000000 1.18973000e+10
1265.000000 1.16115000e+10
1275.000000 1.15893000e+10
1285.000000 1.13658000e+10
1295.000000 1.07015000e+10
1305.000000 1.06423000e+10
1315.000000 1.07292000e+10
1325.000000 1.03919000e+10
1335.000000 1.00231000e+10
1345.000000 1.01093000e+10
1355.000000 9.96801000e+09
1365.000000 9.75072000e+09
1375.000000 9.57593000e+09
1385.000000 9.41458000e+09
1395.000000 9.08379000e+09
1405.000000 8.97841000e+09
1415.000000 8.89900000e+09
1425.000000 8.76081000e+09
1435.000000 8.61681000e+09
1442.000000 8.52267000e+09
1447.000000 8.44336000e+09
1455.000000 8.32283000e+09
1465.000000 8.16799000e+09
1475.000000 8.03026000e+09
1485.000000 7.88625000e+09
1495.000000 7.75228000e+09
1505.000000 7.58607000e+09
1512.000000 7.49160000e+09
1517.000000 7.44246000e+09
1525.000000 7.33413000e+09
1535.000000 7.13159000e+09
1545.000000 7.05346000e+09
1555.000000 6.90118000e+09
1565.000000 6.85957000e+09
1575.000000 6.76332000e+09
1585.000000 6.65291000e+09
1595.000000 6.55094000e+09
1605.000000 6.39001000e+09
1615.000000 6.28512000e+09
1625.000000 6.22954000e+09
1635.000000 6.14047000e+09
1645.000000 5.98961000e+09
1655.000000 5.94413000e+09
1665.000000 5.86316000e+09
1672.000000 5.74517000e+09
1677.000000 5.75932000e+09
1685.000000 5.68512000e+09
1695.000000 5.58520000e+09
1705.000000 5.49020000e+09
1715.000000 5.39075000e+09
1725.000000 5.31552000e+09
1735.000000 5.24391000e+09
1745.000000 5.15936000e+09
1755.000000 5.09608000e+09
1765.000000 4.95759000e+09
1775.000000 4.92365000e+09
1785.000000 4.86391000e+09
1795.000000 4.79923000e+09
1805.000000 4.73383000e+09
1815.000000 4.65310000e+09
1825.000000 4.58958000e+09
1835.000000 4.52224000e+09
1845.000000 4.42089000e+09
1855.000000 4.30362000e+09
1865.000000 4.26528000e+09
1875.000000 4.25709000e+09
1885.000000 4.14599000e+09
1895.000000 4.04926000e+09
1905.000000 4.05918000e+09
1915.000000 3.95290000e+09
1925.000000 3.89740000e+09
1935.000000 3.87251000e+09
1945.000000 3.84514000e+09
1955.000000 3.73888000e+09
1967.000000 3.72992000e+09
1976.000000 3.70209000e+09
1984.000000 3.63411000e+09
1995.000000 3.54691000e+09
2005.000000 3.54770000e+09
2015.000000 3.51285000e+09
2025.000000 3.47301000e+09
2035.000000 3.41431000e+09
2045.000000 3.36838000e+09
2055.000000 3.29884000e+09
2065.000000 3.25795000e+09
2074.000000 3.25724000e+09
2078.000000 3.19856000e+09
2085.000000 3.19566000e+09
2095.000000 3.13553000e+09
2105.000000 3.11652000e+09
2115.000000 3.08283000e+09
2125.000000 3.04888000e+09
2135.000000 3.00815000e+09
2145.000000 2.96559000e+09
2155.000000 2.93213000e+09
2165.000000 2.89562000e+09
2175.000000 2.85783000e+09
2185.000000 2.82344000e+09
2195.000000 2.78941000e+09
2205.000000 2.75409000e+09
2215.000000 2.71984000e+09
2225.000000 2.68502000e+09
2235.000000 2.65207000e+09
2245.000000 2.62102000e+09
2255.000000 2.58775000e+09
2265.000000 2.55754000e+09
2275.000000 2.52622000e+09
2285.000000 2.49629000e+09
2295.000000 2.45406000e+09
2305.000000 2.43614000e+09
2315.000000 2.40607000e+09
2325.000000 2.37783000e+09
2335.000000 2.34769000e+09
2345.000000 2.31880000e+09
2355.000000 2.29433000e+09
2365.000000 2.26594000e+09
2375.000000 2.23989000e+09
2385.000000 2.21181000e+09
2395.000000 2.18681000e+09
2405.000000 2.16182000e+09
2415.000000 2.13614000e+09
2425.000000 2.11362000e+09
2435.000000 2.08848000e+09
2445.000000 2.06469000e+09
2455.000000 2.04191000e+09
2465.000000 2.01799000e+09
2475.000000 1.99532000e+09
2485.000000 1.97271000e+09
2495.000000 1.93762000e+09
2505.000000 1.92825000e+09
2513.000000 1.90698000e+09
2518.000000 1.90031000e+09
2525.000000 1.88512000e+09
2535.000000 1.86365000e+09
2545.000000 1.84199000e+09
2555.000000 1.82385000e+09
2565.000000 1.80313000e+09
2575.000000 1.78421000e+09
2585.000000 1.76463000e+09
2595.000000 1.74523000e+09
2605.000000 1.74030000e+09
2615.000000 1.72189000e+09
2625.000000 1.70262000e+09
2635.000000 1.68039000e+09
2645.000000 1.66324000e+09
2655.000000 1.64282000e+09
2665.000000 1.62245000e+09
2675.000000 1.60403000e+09
2685.000000 1.59743000e+09
2695.000000 1.56843000e+09
2705.000000 1.56360000e+09
2715.000000 1.54699000e+09
2725.000000 1.51821000e+09
2735.000000 1.51463000e+09
2745.000000 1.49696000e+09
2755.000000 1.48175000e+09
2765.000000 1.45494000e+09
2775.000000 1.45254000e+09
2785.000000 1.43737000e+09
2795.000000 1.41394000e+09
2805.000000 1.40512000e+09
2815.000000 1.39358000e+09
2825.000000 1.36466000e+09
2835.000000 1.35735000e+09
2845.000000 1.35132000e+09
2855.000000 1.33761000e+09
2865.000000 1.32416000e+09
2875.000000 1.31077000e+09
2885.000000 1.29763000e+09
2895.000000 1.28463000e+09
2910.000000 1.26542000e+09
2930.000000 1.24026000e+09
2950.000000 1.20757000e+09
2970.000000 1.19226000e+09
2990.000000 1.16894000e+09
3010.000000 1.14639000e+09
3030.000000 1.12446000e+09
3050.000000 1.10291000e+09
3070.000000 1.08195000e+09
3090.000000 1.06137000e+09
3110.000000 1.04149000e+09
3130.000000 1.02322000e+09
3150.000000 1.00412000e+09
3170.000000 9.85077000e+08
3190.000000 9.59177000e+08
3210.000000 9.48980000e+08
3230.000000 9.31523000e+08
3250.000000 9.14423000e+08
3270.000000 8.98973000e+08
3290.000000 8.81533000e+08
3310.000000 8.67061000e+08
3330.000000 8.51649000e+08
3350.000000 8.35065000e+08
3370.000000 8.21833000e+08
3390.000000 8.07444000e+08
3410.000000 7.93399000e+08
3430.000000 7.76361000e+08
3450.000000 7.60296000e+08
3470.000000 7.49460000e+08
3490.000000 7.36596000e+08
3510.000000 7.26635000e+08
3530.000000 7.15583000e+08
3550.000000 7.03717000e+08
3570.000000 6.95233000e+08
3590.000000 6.79850000e+08
3610.000000 6.69881000e+08
3630.000000 6.57487000e+08
3640.000000 6.56041000e+08
3650.000000 6.49849000e+08
3670.000000 6.41975000e+08
3690.000000 6.26872000e+08
3710.000000 6.07131000e+08
3730.000000 5.86720000e+08
3750.000000 6.33039000e+08
3770.000000 6.39912000e+08
3790.000000 6.80411000e+08
3810.000000 7.14395000e+08
3830.000000 6.16886000e+08
3850.000000 7.39124000e+08
3870.000000 7.46597000e+08
3890.000000 5.84260000e+08
3910.000000 7.35268000e+08
3930.000000 7.26169000e+08
3950.000000 7.12315000e+08
3970.000000 5.43788000e+08
3990.000000 6.83622000e+08
4010.000000 6.80077000e+08
4030.000000 6.39848000e+08
4050.000000 6.65262000e+08
4070.000000 6.51804000e+08
4090.000000 5.96642000e+08
4110.000000 5.14956000e+08
4130.000000 6.11336000e+08
4150.000000 6.06376000e+08
4170.000000 6.01527000e+08
4190.000000 5.93566000e+08
4210.000000 5.83944000e+08
4230.000000 5.74498000e+08
4250.000000 5.65204000e+08
4270.000000 5.55686000e+08
4290.000000 5.46627000e+08
4310.000000 5.34853000e+08
4330.000000 4.80634000e+08
4350.000000 4.35790000e+08
4370.000000 5.08608000e+08
4390.000000 4.89969000e+08
4410.000000 4.97428000e+08
4430.000000 4.87303000e+08
4450.000000 4.82229000e+08
4470.000000 4.52922000e+08
4490.000000 4.67079000e+08
4510.000000 4.60389000e+08
4530.000000 4.53377000e+08
4550.000000 4.46471000e+08
4570.000000 4.39721000e+08
4590.000000 4.33108000e+08
4610.000000 4.26628000e+08
4630.000000 4.20227000e+08
4650.000000 4.13919000e+08
4670.000000 4.07842000e+08
4690.000000 4.01785000e+08
4710.000000 3.90755000e+08
4730.000000 3.90034000e+08
4750.000000 3.84268000e+08
4770.000000 3.78817000e+08
4790.000000 3.73313000e+08
4810.000000 3.67365000e+08
4830.000000 3.59969000e+08
4850.000000 3.29811000e+08
4870.000000 2.92321000e+08
4890.000000 3.43344000e+08
4910.000000 3.41068000e+08
4930.000000 3.28898000e+08
4950.000000 3.32780000e+08
4970.000000 3.28124000e+08
4990.000000 3.23532000e+08
5010.000000 3.15026000e+08
5030.000000 3.14595000e+08
5050.000000 3.08267000e+08
5070.000000 3.05972000e+08
5090.000000 3.01769000e+08
5110.000000 2.97637000e+08
5130.000000 2.93574000e+08
5150.000000 2.89580000e+08
5170.000000 2.85667000e+08
5190.000000 2.81819000e+08
5210.000000 2.78008000e+08
5230.000000 2.74302000e+08
5250.000000 2.70630000e+08
5270.000000 2.67034000e+08
5290.000000 2.63497000e+08
5310.000000 2.60006000e+08
5330.000000 2.56586000e+08
5350.000000 2.53211000e+08
5370.000000 2.49891000e+08
5390.000000 2.46639000e+08
5410.000000 2.43429000e+08
5430.000000 2.40272000e+08
5450.000000 2.37167000e+08
5470.000000 2.34114000e+08
5490.000000 2.31112000e+08
5510.000000 2.28159000e+08
5530.000000 2.25243000e+08
5550.000000 2.22387000e+08
5570.000000 2.19566000e+08
5590.000000 2.16792000e+08
5610.000000 2.14064000e+08
5630.000000 2.11381000e+08
5650.000000 2.08731000e+08
5670.000000 2.06136000e+08
5690.000000 2.03572000e+08
5710.000000 2.01051000e+08
5730.000000 1.98572000e+08
5750.000000 1.96133000e+08
5770.000000 1.93723000e+08
5790.000000 1.91353000e+08
5810.000000 1.89023000e+08
5830.000000 1.86719000e+08
5850.000000 1.84465000e+08
5870.000000 1.76639000e+08
5890.000000 1.79818000e+08
5910.000000 1.77880000e+08
5930.000000 1.75750000e+08
5950.000000 1.73656000e+08
5970.000000 1.71596000e+08
5990.000000 1.69559000e+08
6010.000000 1.67557000e+08
6030.000000 1.65577000e+08
6050.000000 1.63629000e+08
6070.000000 1.61714000e+08
6090.000000 1.59831000e+08
6110.000000 1.57969000e+08
6130.000000 1.56138000e+08
6150.000000 1.54327000e+08
6170.000000 1.52557000e+08
6190.000000 1.50796000e+08
6210.000000 1.49064000e+08
6230.000000 1.47361000e+08
6250.000000 1.45686000e+08
6270.000000 1.44030000e+08
6290.000000 1.42392000e+08
6310.000000 1.40781000e+08
6330.000000 1.39197000e+08
6350.000000 1.37621000e+08
6370.000000 1.36090000e+08
6390.000000 1.34566000e+08
6410.000000 1.33067000e+08
6430.000000 1.31594000e+08
6450.000000 1.30136000e+08
6470.000000 1.28694000e+08
6490.000000 1.27276000e+08
6510.000000 1.25766000e+08
6530.000000 1.23848000e+08
6550.000000 1.17930000e+08
6570.000000 1.04217000e+08
6590.000000 1.19096000e+08
6610.000000 1.18894000e+08
6630.000000 1.17878000e+08
6650.000000 1.16701000e+08
6670.000000 1.14275000e+08
6690.000000 1.13079000e+08
6710.000000 1.12983000e+08
6730.000000 1.11781000e+08
6750.000000 1.10590000e+08
6770.000000 1.09420000e+08
6790.000000 1.08261000e+08
6810.000000 1.07123000e+08
6830.000000 1.05996000e+08
6850.000000 1.04880000e+08
6870.000000 1.03783000e+08
6890.000000 1.02705000e+08
6910.000000 1.01638000e+08
6930.000000 1.00582000e+08
6950.000000 9.95435000e+07
6970.000000 9.85155000e+07
6990.000000 9.74899000e+07
7010.000000 9.64974000e+07
7030.000000 9.55070000e+07
7050.000000 9.45339000e+07
7070.000000 9.20553000e+07
7090.000000 9.26233000e+07
7110.000000 9.16856000e+07
7130.000000 9.07570000e+07
7150.000000 8.98447000e+07
7170.000000 8.89191000e+07
7190.000000 8.80462000e+07
7210.000000 8.71671000e+07
7230.000000 8.62675000e+07
7250.000000 8.54338000e+07
7270.000000 8.45866000e+07
7290.000000 8.30740000e+07
7310.000000 8.29091000e+07
7330.000000 8.21067000e+07
7350.000000 8.12978000e+07
7370.000000 8.05035000e+07
7390.000000 7.97165000e+07
7410.000000 7.89368000e+07
7430.000000 7.81712000e+07
7450.000000 7.74195000e+07
7470.000000 7.66747000e+07
7490.000000 7.59300000e+07
7510.000000 7.51721000e+07
7530.000000 7.44743000e+07
7550.000000 7.37630000e+07
7570.000000 7.30582000e+07
7590.000000 7.23598000e+07
7610.000000 7.16742000e+07
7630.000000 7.09884000e+07
7650.000000 7.03151000e+07
7670.000000 6.96543000e+07
7690.000000 6.89994000e+07
7710.000000 6.83504000e+07
7730.000000 6.77071000e+07
7750.000000 6.70696000e+07
7770.000000 6.64440000e+07
7790.000000 6.58301000e+07
7810.000000 6.51660000e+07
7830.000000 6.46123000e+07
7850.000000 6.40879000e+07
7870.000000 6.34888000e+07
7890.000000 6.28769000e+07
7910.000000 6.23305000e+07
7930.000000 6.17589000e+07
7950.000000 6.11207000e+07
7970.000000 6.04704000e+07
7990.000000 5.99379000e+07
8010.000000 5.93747000e+07
8030.000000 5.88398000e+07
8050.000000 5.83385000e+07
8070.000000 5.78472000e+07
8090.000000 5.72093000e+07
8110.000000 5.67929000e+07
8130.000000 5.63314000e+07
8150.000000 5.57388000e+07
8170.000000 5.53477000e+07
8190.000000 5.47778000e+07
8210.000000 5.42223000e+07
8230.000000 5.39107000e+07
8250.000000 5.34509000e+07
8270.000000 5.27079000e+07
8290.000000 5.24649000e+07
8310.000000 5.20272000e+07
8330.000000 5.15534000e+07
8350.000000 5.08448000e+07
8370.000000 5.05607000e+07
8390.000000 5.01947000e+07
8410.000000 4.97400000e+07
8430.000000 4.92349000e+07
8450.000000 4.85020000e+07
8470.000000 4.82506000e+07
8490.000000 4.78871000e+07
8510.000000 4.72149000e+07
8530.000000 4.71698000e+07
8550.000000 4.57435000e+07
8570.000000 4.70316000e+07
8590.000000 4.47977000e+07
8610.000000 4.45974000e+07
8630.000000 4.63784000e+07
8650.000000 4.48415000e+07
8670.000000 4.14985000e+07
8690.000000 4.52603000e+07
8710.000000 4.56346000e+07
8730.000000 4.40407000e+07
8750.000000 3.92512000e+07
8770.000000 4.25932000e+07
8790.000000 4.43801000e+07
8810.000000 4.41959000e+07
8830.000000 4.35871000e+07
8850.000000 4.04524000e+07
8870.000000 3.72090000e+07
8890.000000 4.19239000e+07
8910.000000 4.24064000e+07
8930.000000 4.21383000e+07
8950.000000 4.19285000e+07
8970.000000 4.14716000e+07
8990.000000 4.01429000e+07
9010.000000 3.53396000e+07
9030.000000 3.72221000e+07
9050.000000 3.97596000e+07
9070.000000 3.94617000e+07
9090.000000 3.94693000e+07
9110.000000 3.93761000e+07
9130.000000 3.90993000e+07
9150.000000 3.87221000e+07
9170.000000 3.82200000e+07
9190.000000 3.78000000e+07
9210.000000 3.59226000e+07
9230.000000 3.15068000e+07
9250.000000 3.53515000e+07
9270.000000 3.65371000e+07
9290.000000 3.64991000e+07
9310.000000 3.61130000e+07
9330.000000 3.60544000e+07
9350.000000 3.57318000e+07
9370.000000 3.54825000e+07
9390.000000 3.52003000e+07
9410.000000 3.49190000e+07
9430.000000 3.46439000e+07
9450.000000 3.43700000e+07
9470.000000 3.38007000e+07
9490.000000 3.36956000e+07
9510.000000 3.29238000e+07
9530.000000 3.12713000e+07
9550.000000 2.77950000e+07
9570.000000 3.15176000e+07
9590.000000 3.22281000e+07
9610.000000 3.20594000e+07
9630.000000 3.18090000e+07
9650.000000 3.17752000e+07
9670.000000 3.15295000e+07
9690.000000 3.12506000e+07
9710.000000 3.09430000e+07
9730.000000 3.08063000e+07
9750.000000 3.05699000e+07
9770.000000 3.03360000e+07
9790.000000 3.01040000e+07
9810.000000 2.98742000e+07
9830.000000 2.96467000e+07
9850.000000 2.94212000e+07
9870.000000 2.91980000e+07
9890.000000 2.89768000e+07
9910.000000 2.87549000e+07
9930.000000 2.85406000e+07
9950.000000 2.83252000e+07
9970.000000 2.80888000e+07
9990.000000 2.78009000e+07
10025.000000 2.62262000e+07
10075.000000 2.53501000e+07
10125.000000 2.64056000e+07
10175.000000 2.60416000e+07
10225.000000 2.55533000e+07
10275.000000 2.51015000e+07
10325.000000 2.45501000e+07
10375.000000 2.42027000e+07
10425.000000 2.37687000e+07
10475.000000 2.33442000e+07
10525.000000 2.29294000e+07
10575.000000 2.25235000e+07
10625.000000 2.21268000e+07
10675.000000 2.16915000e+07
10725.000000 2.13591000e+07
10775.000000 2.09877000e+07
10825.000000 2.03866000e+07
10875.000000 2.01786000e+07
10925.000000 1.82384000e+07
10975.000000 1.90694000e+07
11025.000000 1.90849000e+07
11075.000000 1.89032000e+07
11125.000000 1.86025000e+07
11175.000000 1.82904000e+07
11225.000000 1.79735000e+07
11275.000000 1.76849000e+07
11325.000000 1.73917000e+07
11375.000000 1.71043000e+07
11425.000000 1.68230000e+07
11475.000000 1.65474000e+07
11525.000000 1.62776000e+07
11575.000000 1.60133000e+07
11625.000000 1.57540000e+07
11675.000000 1.55003000e+07
11725.000000 1.52516000e+07
11775.000000 1.50077000e+07
11825.000000 1.47690000e+07
11875.000000 1.45348000e+07
11925.000000 1.43051000e+07
11975.000000 1.39426000e+07
12025.000000 1.38595000e+07
12075.000000 1.36434000e+07
12125.000000 1.34312000e+07
12175.000000 1.32232000e+07
12225.000000 1.30195000e+07
12275.000000 1.28194000e+07
12325.000000 1.26231000e+07
12375.000000 1.24307000e+07
12425.000000 1.22421000e+07
12475.000000 1.20567000e+07
12525.000000 1.18502000e+07
12575.000000 1.16968000e+07
12625.000000 1.15219000e+07
12675.000000 1.13500000e+07
12725.000000 1.11707000e+07
12775.000000 1.08065000e+07
12825.000000 9.95736000e+06
12875.000000 1.06061000e+07
12925.000000 1.05318000e+07
12975.000000 1.03110000e+07
13025.000000 1.02339000e+07
13075.000000 1.00860000e+07
