# Kurucz ODFNEW /NOVER, alpha: 0.0 (2003)
# teff = 8000 K (value for the effective temperature for the model. Temperatures are given in K)
# logg = 2.5 log(cm/s2) (value for Log(G) for the model.)
# lh = 1.25  (l/Hp where l is the  mixing length of the convective element and Hp is the pressure scale height)
# meta = 0.5  (value for the Metallicity for the model.)
# vtur = 2 km/s (Microturbulence velocity)
# alpha = 0  (Alpha)
#
# column 1: WAVELENGTH (ANGSTROM), Wavelength in Angstrom
# column 2: FLUX (ERG/CM2/S/A), Flux in erg/cm2/s/A
357.000000 1.41816000e-23
366.000000 1.45344000e-22
375.000000 9.88833000e-22
385.000000 7.35185000e-21
395.000000 4.91239000e-20
405.000000 2.97869000e-19
414.000000 1.39648000e-18
422.000000 5.20741000e-18
430.000000 1.20845000e-18
441.000000 5.81770000e-18
451.000000 2.26037000e-17
460.000000 7.26628000e-17
470.000000 2.51466000e-16
480.000000 8.23376000e-16
490.000000 2.56022000e-15
500.000000 7.57482000e-15
506.000000 2.39219000e-13
512.000000 3.91900000e-14
520.000000 8.64053000e-14
530.000000 2.25340000e-13
540.000000 5.54901000e-13
550.000000 1.34190000e-12
560.000000 3.11631000e-12
570.000000 6.99692000e-12
580.000000 1.50457000e-11
590.000000 3.21979000e-11
600.000000 6.62081000e-11
610.000000 1.33065000e-10
620.000000 2.60192000e-10
630.000000 4.97114000e-10
640.000000 9.28027000e-10
650.000000 1.69987000e-09
658.000000 2.71607000e-09
665.000000 4.03662000e-09
675.000000 7.04138000e-09
685.000000 1.20560000e-08
695.000000 2.02979000e-08
705.000000 3.32809000e-08
716.000000 5.73153000e-08
726.000000 9.17886000e-08
735.000000 1.38467000e-07
745.000000 2.15520000e-07
755.000000 3.31448000e-07
765.000000 5.03696000e-07
775.000000 7.55999000e-07
785.000000 1.12385000e-06
795.000000 1.62518000e-06
805.000000 2.36819000e-06
815.000000 3.42611000e-06
825.000000 4.87223000e-06
835.000000 6.85837000e-06
845.000000 9.57408000e-06
855.000000 1.32392000e-05
865.000000 1.81491000e-05
875.000000 2.44871000e-05
885.000000 3.32408000e-05
895.000000 4.44865000e-05
905.000000 5.84580000e-05
915.000000 1.93205000e-02
925.000000 5.65342000e-02
935.000000 7.50162000e-02
945.000000 9.93981000e-02
955.000000 1.38936000e-01
965.000000 1.83634000e-01
975.000000 2.34659000e-01
985.000000 3.00914000e-01
995.000000 3.72477000e-01
1005.000000 5.04283000e-01
1015.000000 6.43043000e-01
1025.000000 7.86143000e-01
1035.000000 1.00852000e+00
1045.000000 1.27185000e+00
1055.000000 1.58687000e+00
1065.000000 1.93100000e+00
1075.000000 2.41655000e+00
1085.000000 2.98315000e+00
1095.000000 3.58592000e+00
1105.000000 1.05130000e+01
1115.000000 3.40086000e+01
1125.000000 5.00431000e+01
1135.000000 6.98904000e+01
1145.000000 8.82237000e+01
1155.000000 9.84561000e+01
1165.000000 1.35583000e+02
1175.000000 1.62300000e+02
1185.000000 1.71924000e+02
1195.000000 9.44313000e+01
1205.000000 1.16968000e+02
1215.000000 2.95468000e+01
1225.000000 1.40223000e+02
1235.000000 2.94818000e+02
1245.000000 7.49558000e+02
1255.000000 2.05275000e+03
1265.000000 1.68871000e+03
1275.000000 3.20827000e+03
1285.000000 4.69627000e+03
1295.000000 5.68073000e+03
1305.000000 3.71282000e+03
1315.000000 6.96194000e+03
1325.000000 8.44603000e+03
1335.000000 8.73450000e+03
1345.000000 1.16839000e+04
1355.000000 1.17716000e+04
1365.000000 1.25622000e+04
1375.000000 1.36957000e+04
1385.000000 1.51193000e+04
1395.000000 1.75522000e+04
1405.000000 1.97046000e+04
1415.000000 1.95192000e+04
1425.000000 2.25708000e+04
1435.000000 2.24586000e+04
1442.000000 2.61563000e+04
1447.000000 2.87665000e+04
1455.000000 3.27165000e+04
1465.000000 3.26681000e+04
1475.000000 3.58751000e+04
1485.000000 4.01718000e+04
1495.000000 4.60397000e+04
1505.000000 5.06392000e+04
1512.000000 5.03115000e+04
1517.000000 5.51354000e+04
1525.000000 6.28507000e+04
1535.000000 1.38029000e+05
1545.000000 5.87957000e+05
1555.000000 4.89619000e+05
1565.000000 3.98537000e+05
1575.000000 8.73974000e+05
1585.000000 1.24028000e+06
1595.000000 1.78456000e+06
1605.000000 1.43270000e+06
1615.000000 1.20630000e+06
1625.000000 9.03537000e+05
1635.000000 1.03308000e+06
1645.000000 1.67397000e+06
1655.000000 7.66161000e+05
1665.000000 1.29889000e+06
1672.000000 3.10794000e+05
1677.000000 2.14638000e+06
1685.000000 4.01180000e+06
1695.000000 4.19382000e+06
1705.000000 4.27112000e+06
1715.000000 6.81174000e+06
1725.000000 7.44084000e+06
1735.000000 9.98146000e+06
1745.000000 8.32918000e+06
1755.000000 1.17388000e+07
1765.000000 7.70819000e+06
1775.000000 1.12070000e+07
1785.000000 9.10566000e+06
1795.000000 1.45663000e+07
1805.000000 1.14377000e+07
1815.000000 1.32967000e+07
1825.000000 1.08739000e+07
1835.000000 9.28368000e+06
1845.000000 8.67423000e+06
1855.000000 1.06647000e+07
1865.000000 1.24092000e+07
1875.000000 1.11616000e+07
1885.000000 1.16288000e+07
1895.000000 1.34273000e+07
1905.000000 1.17004000e+07
1915.000000 1.22278000e+07
1925.000000 1.16538000e+07
1935.000000 7.04192000e+06
1945.000000 1.35723000e+07
1955.000000 1.39099000e+07
1967.000000 1.60338000e+07
1976.000000 1.56179000e+07
1984.000000 1.47715000e+07
1995.000000 1.44898000e+07
2005.000000 1.31395000e+07
2015.000000 1.15555000e+07
2025.000000 1.12303000e+07
2035.000000 1.33818000e+07
2045.000000 1.52907000e+07
2055.000000 1.30119000e+07
2065.000000 1.22793000e+07
2074.000000 1.61264000e+07
2078.000000 1.78712000e+07
2085.000000 1.68293000e+07
2095.000000 1.52845000e+07
2105.000000 1.39732000e+07
2115.000000 1.43366000e+07
2125.000000 1.49127000e+07
2135.000000 1.07914000e+07
2145.000000 1.38344000e+07
2155.000000 1.45442000e+07
2165.000000 1.22747000e+07
2175.000000 1.25985000e+07
2185.000000 1.33262000e+07
2195.000000 1.50237000e+07
2205.000000 1.38100000e+07
2215.000000 1.08368000e+07
2225.000000 1.02549000e+07
2235.000000 1.39538000e+07
2245.000000 1.24021000e+07
2255.000000 9.84455000e+06
2265.000000 1.01331000e+07
2275.000000 1.20328000e+07
2285.000000 1.29205000e+07
2295.000000 1.14127000e+07
2305.000000 1.20180000e+07
2315.000000 1.08199000e+07
2325.000000 1.01486000e+07
2335.000000 6.63989000e+06
2345.000000 4.86547000e+06
2355.000000 8.84149000e+06
2365.000000 4.81545000e+06
2375.000000 6.79574000e+06
2385.000000 3.67336000e+06
2395.000000 5.09200000e+06
2405.000000 4.82601000e+06
2415.000000 6.36255000e+06
2425.000000 1.04896000e+07
2435.000000 9.92523000e+06
2445.000000 1.10164000e+07
2455.000000 1.10543000e+07
2465.000000 1.03026000e+07
2475.000000 9.64329000e+06
2485.000000 9.93248000e+06
2495.000000 9.37311000e+06
2505.000000 1.29066000e+07
2513.000000 9.27332000e+06
2518.000000 1.02074000e+07
2525.000000 7.92029000e+06
2535.000000 7.55133000e+06
2545.000000 7.71894000e+06
2555.000000 9.97798000e+06
2565.000000 8.18767000e+06
2575.000000 9.83495000e+06
2585.000000 9.05203000e+06
2595.000000 7.95526000e+06
2605.000000 6.88558000e+06
2615.000000 6.37521000e+06
2625.000000 8.62189000e+06
2635.000000 1.08078000e+07
2645.000000 1.59043000e+07
2655.000000 1.66174000e+07
2665.000000 1.24531000e+07
2675.000000 1.42697000e+07
2685.000000 1.36593000e+07
2695.000000 1.29056000e+07
2705.000000 1.40476000e+07
2715.000000 1.18663000e+07
2725.000000 1.20026000e+07
2735.000000 1.31423000e+07
2745.000000 7.09059000e+06
2755.000000 8.53619000e+06
2765.000000 1.01130000e+07
2775.000000 1.27398000e+07
2785.000000 9.74630000e+06
2795.000000 3.46183000e+06
2805.000000 4.61296000e+06
2815.000000 1.22153000e+07
2825.000000 1.58459000e+07
2835.000000 1.48395000e+07
2845.000000 1.41867000e+07
2855.000000 1.23700000e+07
2865.000000 1.54667000e+07
2875.000000 1.48484000e+07
2885.000000 1.53295000e+07
2895.000000 1.41602000e+07
2910.000000 1.77334000e+07
2930.000000 1.63520000e+07
2950.000000 1.61458000e+07
2970.000000 1.77374000e+07
2990.000000 1.79079000e+07
3010.000000 1.89011000e+07
3030.000000 1.85302000e+07
3050.000000 1.83936000e+07
3070.000000 1.86456000e+07
3090.000000 1.95394000e+07
3110.000000 1.86205000e+07
3130.000000 1.83683000e+07
3150.000000 1.94635000e+07
3170.000000 1.91969000e+07
3190.000000 1.75961000e+07
3210.000000 1.87683000e+07
3230.000000 1.75472000e+07
3250.000000 1.88684000e+07
3270.000000 1.94402000e+07
3290.000000 1.95226000e+07
3310.000000 2.01797000e+07
3330.000000 1.95715000e+07
3350.000000 1.93090000e+07
3370.000000 1.88257000e+07
3390.000000 1.93300000e+07
3410.000000 1.97703000e+07
3430.000000 2.00080000e+07
3450.000000 1.99197000e+07
3470.000000 1.95437000e+07
3490.000000 1.93170000e+07
3510.000000 2.01347000e+07
3530.000000 2.01629000e+07
3550.000000 2.10451000e+07
3570.000000 1.96835000e+07
3590.000000 1.97068000e+07
3610.000000 1.98426000e+07
3630.000000 2.01500000e+07
3640.000000 1.97017000e+07
3650.000000 2.09040000e+07
3670.000000 2.04852000e+07
3690.000000 2.02640000e+07
3710.000000 2.40622000e+07
3730.000000 2.76870000e+07
3750.000000 3.86789000e+07
3770.000000 4.26855000e+07
3790.000000 5.51662000e+07
3810.000000 6.44168000e+07
3830.000000 4.96231000e+07
3850.000000 6.90376000e+07
3870.000000 7.72807000e+07
3890.000000 4.50668000e+07
3910.000000 7.32508000e+07
3930.000000 5.17863000e+07
3950.000000 7.01715000e+07
3970.000000 3.69824000e+07
3990.000000 7.29980000e+07
4010.000000 7.75055000e+07
4030.000000 7.58381000e+07
4050.000000 7.49853000e+07
4070.000000 7.30857000e+07
4090.000000 6.37450000e+07
4110.000000 4.85272000e+07
4130.000000 7.06087000e+07
4150.000000 7.34363000e+07
4170.000000 7.14250000e+07
4190.000000 7.09786000e+07
4210.000000 7.02973000e+07
4230.000000 6.83709000e+07
4250.000000 6.86529000e+07
4270.000000 6.52591000e+07
4290.000000 6.70388000e+07
4310.000000 6.20335000e+07
4330.000000 5.20721000e+07
4350.000000 4.40488000e+07
4370.000000 6.35987000e+07
4390.000000 6.30088000e+07
4410.000000 6.13964000e+07
4430.000000 6.06821000e+07
4450.000000 6.16541000e+07
4470.000000 6.13016000e+07
4490.000000 6.05922000e+07
4510.000000 6.22971000e+07
4530.000000 5.91615000e+07
4550.000000 5.80093000e+07
4570.000000 6.03618000e+07
4590.000000 5.71332000e+07
4610.000000 5.91114000e+07
4630.000000 5.67162000e+07
4650.000000 5.74681000e+07
4670.000000 5.71238000e+07
4690.000000 5.47639000e+07
4710.000000 5.27239000e+07
4730.000000 5.50034000e+07
4750.000000 5.50321000e+07
4770.000000 5.36676000e+07
4790.000000 5.33862000e+07
4810.000000 5.22772000e+07
4830.000000 5.10700000e+07
4850.000000 4.12308000e+07
4870.000000 3.24503000e+07
4890.000000 4.81166000e+07
4910.000000 4.90865000e+07
4930.000000 4.78210000e+07
4950.000000 4.88391000e+07
4970.000000 4.91027000e+07
4990.000000 4.65675000e+07
5010.000000 4.42498000e+07
5030.000000 4.56020000e+07
5050.000000 4.48574000e+07
5070.000000 4.57280000e+07
5090.000000 4.49666000e+07
5110.000000 4.48071000e+07
5130.000000 4.35065000e+07
5150.000000 4.22744000e+07
5170.000000 4.16463000e+07
5190.000000 4.12029000e+07
5210.000000 4.10690000e+07
5230.000000 4.06425000e+07
5250.000000 4.12301000e+07
5270.000000 3.82930000e+07
5290.000000 4.02683000e+07
5310.000000 3.91479000e+07
5330.000000 3.79635000e+07
5350.000000 3.92675000e+07
5370.000000 3.88711000e+07
5390.000000 3.81591000e+07
5410.000000 3.72416000e+07
5430.000000 3.72949000e+07
5450.000000 3.77649000e+07
5470.000000 3.71065000e+07
5490.000000 3.68516000e+07
5510.000000 3.63389000e+07
5530.000000 3.61061000e+07
5550.000000 3.59894000e+07
5570.000000 3.54266000e+07
5590.000000 3.50916000e+07
5610.000000 3.50609000e+07
5630.000000 3.48741000e+07
5650.000000 3.42441000e+07
5670.000000 3.36443000e+07
5690.000000 3.37701000e+07
5710.000000 3.34796000e+07
5730.000000 3.36812000e+07
5750.000000 3.29779000e+07
5770.000000 3.28062000e+07
5790.000000 3.23170000e+07
5810.000000 3.21284000e+07
5830.000000 3.18983000e+07
5850.000000 3.15705000e+07
5870.000000 3.13273000e+07
5890.000000 3.04525000e+07
5910.000000 3.06836000e+07
5930.000000 3.03977000e+07
5950.000000 3.00234000e+07
5970.000000 2.98712000e+07
5990.000000 2.93571000e+07
6010.000000 2.88554000e+07
6030.000000 2.89212000e+07
6050.000000 2.85955000e+07
6070.000000 2.85516000e+07
6090.000000 2.81358000e+07
6110.000000 2.77228000e+07
6130.000000 2.72074000e+07
6150.000000 2.64918000e+07
6170.000000 2.66459000e+07
6190.000000 2.69253000e+07
6210.000000 2.67141000e+07
6230.000000 2.62254000e+07
6250.000000 2.52371000e+07
6270.000000 2.60634000e+07
6290.000000 2.58313000e+07
6310.000000 2.51834000e+07
6330.000000 2.51674000e+07
6350.000000 2.46905000e+07
6370.000000 2.45663000e+07
6390.000000 2.45143000e+07
6410.000000 2.40572000e+07
6430.000000 2.40380000e+07
6450.000000 2.33812000e+07
6470.000000 2.36490000e+07
6490.000000 2.29812000e+07
6510.000000 2.30126000e+07
6530.000000 2.26651000e+07
6550.000000 2.00761000e+07
6570.000000 1.57604000e+07
6590.000000 2.15230000e+07
6610.000000 2.20672000e+07
6630.000000 2.20963000e+07
6650.000000 2.19303000e+07
6670.000000 2.16652000e+07
6690.000000 2.15982000e+07
6710.000000 2.14211000e+07
6730.000000 2.11991000e+07
6750.000000 2.09092000e+07
6770.000000 2.09625000e+07
6790.000000 2.07289000e+07
6810.000000 2.05854000e+07
6830.000000 2.03035000e+07
6850.000000 2.01570000e+07
6870.000000 2.00749000e+07
6890.000000 1.99197000e+07
6910.000000 1.97288000e+07
6930.000000 1.95319000e+07
6950.000000 1.93994000e+07
6970.000000 1.92029000e+07
6990.000000 1.91001000e+07
7010.000000 1.86647000e+07
7030.000000 1.87035000e+07
7050.000000 1.85793000e+07
7070.000000 1.84691000e+07
7090.000000 1.83253000e+07
7110.000000 1.76724000e+07
7130.000000 1.78283000e+07
7150.000000 1.77479000e+07
7170.000000 1.76123000e+07
7190.000000 1.74169000e+07
7210.000000 1.73341000e+07
7230.000000 1.71548000e+07
7250.000000 1.69642000e+07
7270.000000 1.69843000e+07
7290.000000 1.67119000e+07
7310.000000 1.65952000e+07
7330.000000 1.65153000e+07
7350.000000 1.64353000e+07
7370.000000 1.63656000e+07
7390.000000 1.61192000e+07
7410.000000 1.58923000e+07
7430.000000 1.56568000e+07
7450.000000 1.56434000e+07
7470.000000 1.54078000e+07
7490.000000 1.54083000e+07
7510.000000 1.53383000e+07
7530.000000 1.52802000e+07
7550.000000 1.52615000e+07
7570.000000 1.50712000e+07
7590.000000 1.50043000e+07
7610.000000 1.48917000e+07
7630.000000 1.47801000e+07
7650.000000 1.45922000e+07
7670.000000 1.43913000e+07
7690.000000 1.43516000e+07
7710.000000 1.42265000e+07
7730.000000 1.42009000e+07
7750.000000 1.40618000e+07
7770.000000 1.36307000e+07
7790.000000 1.39228000e+07
7810.000000 1.37916000e+07
7830.000000 1.35849000e+07
7850.000000 1.33996000e+07
7870.000000 1.33674000e+07
7890.000000 1.32102000e+07
7910.000000 1.30995000e+07
7930.000000 1.30323000e+07
7950.000000 1.28524000e+07
7970.000000 1.29985000e+07
7990.000000 1.26692000e+07
8010.000000 1.27545000e+07
8030.000000 1.26087000e+07
8050.000000 1.25723000e+07
8070.000000 1.24528000e+07
8090.000000 1.23602000e+07
8110.000000 1.23285000e+07
8130.000000 1.22668000e+07
8150.000000 1.21726000e+07
8170.000000 1.20866000e+07
8190.000000 1.17389000e+07
8210.000000 1.16734000e+07
8230.000000 1.15945000e+07
8250.000000 1.15815000e+07
8270.000000 1.17002000e+07
8290.000000 1.15863000e+07
8310.000000 1.14798000e+07
8330.000000 1.12472000e+07
8350.000000 1.13085000e+07
8370.000000 1.11878000e+07
8390.000000 1.10431000e+07
8410.000000 1.09464000e+07
8430.000000 1.09327000e+07
8450.000000 1.06720000e+07
8470.000000 1.03770000e+07
8490.000000 1.10118000e+07
8510.000000 9.81409000e+06
8530.000000 1.11319000e+07
8550.000000 8.89948000e+06
8570.000000 1.14114000e+07
8590.000000 1.04261000e+07
8610.000000 1.00611000e+07
8630.000000 1.15775000e+07
8650.000000 1.11333000e+07
8670.000000 8.49395000e+06
8690.000000 1.11029000e+07
8710.000000 1.17641000e+07
8730.000000 1.13272000e+07
8750.000000 8.73988000e+06
8770.000000 1.08827000e+07
8790.000000 1.16621000e+07
8810.000000 1.16233000e+07
8830.000000 1.11402000e+07
8850.000000 1.01765000e+07
8870.000000 8.46573000e+06
8890.000000 1.08792000e+07
8910.000000 1.11883000e+07
8930.000000 1.11207000e+07
8950.000000 1.11971000e+07
8970.000000 1.09984000e+07
8990.000000 1.06227000e+07
9010.000000 8.38196000e+06
9030.000000 9.34329000e+06
9050.000000 1.05693000e+07
9070.000000 1.03560000e+07
9090.000000 1.02061000e+07
9110.000000 1.04396000e+07
9130.000000 1.04739000e+07
9150.000000 1.04983000e+07
9170.000000 1.03348000e+07
9190.000000 1.00739000e+07
9210.000000 9.47596000e+06
9230.000000 7.30438000e+06
9250.000000 9.06396000e+06
9270.000000 9.52116000e+06
9290.000000 9.92895000e+06
9310.000000 9.92110000e+06
9330.000000 9.81240000e+06
9350.000000 9.80925000e+06
9370.000000 9.77343000e+06
9390.000000 9.57290000e+06
9410.000000 9.17657000e+06
9430.000000 9.41094000e+06
9450.000000 9.37199000e+06
9470.000000 9.35933000e+06
9490.000000 9.30068000e+06
9510.000000 9.09873000e+06
9530.000000 8.46534000e+06
9550.000000 6.69792000e+06
9570.000000 8.48686000e+06
9590.000000 8.88693000e+06
9610.000000 8.81041000e+06
9630.000000 8.61542000e+06
9650.000000 8.76423000e+06
9670.000000 8.58700000e+06
9690.000000 8.53394000e+06
9710.000000 8.69541000e+06
9730.000000 8.60478000e+06
9750.000000 8.45340000e+06
9770.000000 8.51750000e+06
9790.000000 8.44932000e+06
9810.000000 8.38006000e+06
9830.000000 8.29376000e+06
9850.000000 8.17430000e+06
9870.000000 8.13618000e+06
9890.000000 8.03513000e+06
9910.000000 8.01347000e+06
9930.000000 8.01943000e+06
9950.000000 7.93852000e+06
9970.000000 7.92754000e+06
9990.000000 7.85280000e+06
10025.000000 7.23691000e+06
10075.000000 6.83642000e+06
10125.000000 7.38571000e+06
10175.000000 7.37989000e+06
10225.000000 7.31618000e+06
10275.000000 7.21803000e+06
10325.000000 7.05253000e+06
10375.000000 6.95811000e+06
10425.000000 6.85201000e+06
10475.000000 6.62333000e+06
10525.000000 6.55681000e+06
10575.000000 6.49394000e+06
10625.000000 6.41227000e+06
10675.000000 6.17416000e+06
10725.000000 6.16323000e+06
10775.000000 6.07728000e+06
10825.000000 5.98752000e+06
10875.000000 5.87079000e+06
10925.000000 5.05617000e+06
10975.000000 5.48436000e+06
11025.000000 5.67772000e+06
11075.000000 5.62258000e+06
11125.000000 5.51462000e+06
11175.000000 5.43974000e+06
11225.000000 5.37405000e+06
11275.000000 5.15254000e+06
11325.000000 5.09657000e+06
11375.000000 5.09699000e+06
11425.000000 4.97743000e+06
11475.000000 4.99195000e+06
11525.000000 4.92717000e+06
11575.000000 4.83886000e+06
11625.000000 4.69028000e+06
11675.000000 4.59713000e+06
11725.000000 4.64460000e+06
11775.000000 4.47291000e+06
11825.000000 4.45133000e+06
11875.000000 4.35729000e+06
11925.000000 4.40083000e+06
11975.000000 4.27405000e+06
12025.000000 4.24692000e+06
12075.000000 4.17048000e+06
12125.000000 4.11898000e+06
12175.000000 4.07963000e+06
12225.000000 4.00952000e+06
12275.000000 3.95217000e+06
12325.000000 3.90232000e+06
12375.000000 3.85707000e+06
12425.000000 3.82096000e+06
12475.000000 3.74682000e+06
12525.000000 3.69656000e+06
12575.000000 3.61624000e+06
12625.000000 3.59568000e+06
12675.000000 3.56174000e+06
12725.000000 3.51473000e+06
12775.000000 3.40694000e+06
12825.000000 2.94685000e+06
12875.000000 3.33172000e+06
12925.000000 3.32178000e+06
12975.000000 3.28952000e+06
13025.000000 3.25165000e+06
13075.000000 3.21449000e+06
13125.000000 3.16446000e+06
13175.000000 3.10446000e+06
13225.000000 3.08771000e+06
13275.000000 3.04589000e+06
13325.000000 3.01098000e+06
13375.000000 2.97103000e+06
13425.000000 2.92971000e+06
13475.000000 2.89307000e+06
13525.000000 2.84474000e+06
13575.000000 2.80440000e+06
13625.000000 2.78203000e+06
13675.000000 2.73836000e+06
13725.000000 2.67624000e+06
13775.000000 2.66857000e+06
13825.000000 2.63944000e+06
13875.000000 2.62026000e+06
13925.000000 2.56786000e+06
13975.000000 2.54528000e+06
14025.000000 2.51701000e+06
14075.000000 2.49193000e+06
14125.000000 2.45280000e+06
14175.000000 2.42653000e+06
14225.000000 2.39349000e+06
14275.000000 2.36140000e+06
14325.000000 2.33797000e+06
14375.000000 2.31645000e+06
14425.000000 2.22854000e+06
14475.000000 2.25363000e+06
14525.000000 2.19564000e+06
14570.000000 2.20197000e+06
14620.000000 2.16843000e+06
14675.000000 2.15116000e+06
14725.000000 2.11712000e+06
14775.000000 2.08176000e+06
14825.000000 2.06774000e+06
14875.000000 2.03360000e+06
14925.000000 2.03623000e+06
14975.000000 2.00082000e+06
15025.000000 1.97100000e+06
