# Kurucz ODFNEW /NOVER, alpha: 0.0 (2003)
# teff = 25000 K (value for the effective temperature for the model. Temperatures are given in K)
# logg = 4 log(cm/s2) (value for Log(G) for the model.)
# lh = 1.25  (l/Hp where l is the  mixing length of the convective element and Hp is the pressure scale height)
# meta = 0  (value for the Metallicity for the model.)
# vtur = 2 km/s (Microturbulence velocity)
# alpha = 0  (Alpha)
#
# column 1: WAVELENGTH (ANGSTROM), Wavelength in Angstrom
# column 2: FLUX (ERG/CM2/S/A), Flux in erg/cm2/s/A
147.200000 2.92772000e-14
151.000000 1.23188000e-13
155.200000 5.59236000e-13
158.800000 1.92985000e-12
162.000000 5.56854000e-12
166.000000 1.98769000e-11
170.300000 7.34115000e-11
173.400000 1.81727000e-10
176.800000 4.74204000e-10
180.200000 1.19706000e-09
181.700000 1.78250000e-09
186.100000 5.54817000e-09
191.000000 1.85675000e-08
193.900000 3.69423000e-08
198.400000 1.03508000e-07
201.800000 2.19091000e-07
205.000000 4.34344000e-07
210.500000 1.34579000e-06
216.200000 4.09996000e-06
219.800000 8.05283000e-06
223.000000 1.44172000e-05
226.800000 2.82249000e-05
230.000000 2.65940000e-03
234.000000 6.07476000e-03
240.000000 1.39566000e-02
246.500000 3.31498000e-02
252.400000 7.07087000e-02
256.800000 1.14488000e-01
260.000000 1.86069000e-01
264.000000 2.90882000e-01
268.500000 4.80625000e-01
273.500000 8.17599000e-01
278.500000 1.36689000e+00
284.000000 2.50828000e+00
290.000000 4.38753000e+00
296.000000 7.55557000e+00
301.000000 1.15384000e+01
308.000000 2.11267000e+01
318.000000 4.95630000e+01
328.000000 1.01116000e+02
338.000000 2.10000000e+02
348.000000 4.04154000e+02
357.000000 1.25231000e+03
366.000000 2.28969000e+03
375.000000 3.50757000e+03
385.000000 5.83273000e+03
395.000000 1.00259000e+04
405.000000 1.53370000e+04
414.000000 2.27406000e+04
422.000000 3.11649000e+04
430.000000 4.39219000e+04
441.000000 6.60125000e+04
451.000000 9.18389000e+04
460.000000 1.22022000e+05
470.000000 1.71310000e+05
480.000000 2.32349000e+05
490.000000 3.15223000e+05
500.000000 4.15879000e+05
506.000000 2.27845000e+06
512.000000 1.57694000e+07
520.000000 1.78236000e+07
530.000000 2.07852000e+07
540.000000 2.22627000e+07
550.000000 3.15332000e+07
560.000000 3.71552000e+07
570.000000 4.40909000e+07
580.000000 4.26945000e+07
590.000000 5.52118000e+07
600.000000 6.13022000e+07
610.000000 7.15735000e+07
620.000000 7.87251000e+07
630.000000 8.35174000e+07
640.000000 7.81907000e+07
650.000000 6.09151000e+07
658.000000 9.03182000e+07
665.000000 1.09784000e+08
675.000000 1.17494000e+08
685.000000 1.21186000e+08
695.000000 1.54685000e+08
705.000000 1.57362000e+08
716.000000 1.77733000e+08
726.000000 1.84499000e+08
735.000000 1.91278000e+08
745.000000 2.16790000e+08
755.000000 2.30859000e+08
765.000000 2.47670000e+08
775.000000 2.64603000e+08
785.000000 2.83074000e+08
795.000000 2.93623000e+08
805.000000 3.04953000e+08
815.000000 3.13776000e+08
825.000000 3.41330000e+08
835.000000 3.08473000e+08
845.000000 3.53770000e+08
855.000000 3.62369000e+08
865.000000 3.86092000e+08
875.000000 4.11013000e+08
885.000000 4.42681000e+08
895.000000 4.62370000e+08
905.000000 4.59531000e+08
915.000000 6.47782000e+08
925.000000 4.30267000e+09
935.000000 1.04117000e+10
945.000000 2.04812000e+10
955.000000 2.56747000e+10
965.000000 2.97451000e+10
975.000000 5.18633000e+09
985.000000 2.45936000e+10
995.000000 2.43490000e+10
1005.000000 2.87053000e+10
1015.000000 2.88885000e+10
1025.000000 1.49197000e+10
1035.000000 2.26264000e+10
1045.000000 3.42185000e+10
1055.000000 3.13602000e+10
1065.000000 2.53382000e+10
1075.000000 2.91072000e+10
1085.000000 2.58460000e+10
1095.000000 2.91188000e+10
1105.000000 2.62869000e+10
1115.000000 2.53548000e+10
1125.000000 2.03426000e+10
1135.000000 2.64928000e+10
1145.000000 2.39548000e+10
1155.000000 2.45313000e+10
1165.000000 2.41936000e+10
1175.000000 1.41897000e+10
1185.000000 2.27485000e+10
1195.000000 2.09564000e+10
1205.000000 1.42698000e+10
1215.000000 1.08763000e+10
1225.000000 1.91161000e+10
1235.000000 2.19674000e+10
1245.000000 2.12844000e+10
1255.000000 2.09336000e+10
1265.000000 2.12446000e+10
1275.000000 2.19107000e+10
1285.000000 2.16436000e+10
1295.000000 1.54351000e+10
1305.000000 1.66064000e+10
1315.000000 2.08691000e+10
1325.000000 1.94087000e+10
1335.000000 1.85944000e+10
1345.000000 1.89408000e+10
1355.000000 1.86472000e+10
1365.000000 1.70701000e+10
1375.000000 1.65553000e+10
1385.000000 1.61270000e+10
1395.000000 1.17087000e+10
1405.000000 1.27079000e+10
1415.000000 1.41704000e+10
1425.000000 1.38859000e+10
1435.000000 1.43864000e+10
1442.000000 1.47161000e+10
1447.000000 1.44207000e+10
1455.000000 1.39399000e+10
1465.000000 1.27832000e+10
1475.000000 1.30768000e+10
1485.000000 1.28866000e+10
1495.000000 1.26040000e+10
1505.000000 1.13858000e+10
1512.000000 1.01045000e+10
1517.000000 1.04389000e+10
1525.000000 1.07973000e+10
1535.000000 9.07918000e+09
1545.000000 8.81478000e+09
1555.000000 8.55189000e+09
1565.000000 9.30585000e+09
1575.000000 9.92098000e+09
1585.000000 9.92995000e+09
1595.000000 9.80938000e+09
1605.000000 9.92693000e+09
1615.000000 9.66802000e+09
1625.000000 9.51288000e+09
1635.000000 1.00764000e+10
1645.000000 1.00251000e+10
1655.000000 9.90491000e+09
1665.000000 1.00545000e+10
1672.000000 9.56262000e+09
1677.000000 1.04585000e+10
1685.000000 1.00876000e+10
1695.000000 9.49788000e+09
1705.000000 9.21340000e+09
1715.000000 8.69229000e+09
1725.000000 8.55002000e+09
1735.000000 8.89666000e+09
1745.000000 8.67955000e+09
1755.000000 8.72904000e+09
1765.000000 8.57986000e+09
1775.000000 8.03387000e+09
1785.000000 8.18554000e+09
1795.000000 8.42385000e+09
1805.000000 8.48236000e+09
1815.000000 7.52184000e+09
1825.000000 7.84378000e+09
1835.000000 7.58231000e+09
1845.000000 6.88301000e+09
1855.000000 6.95428000e+09
1865.000000 7.05298000e+09
1875.000000 7.37273000e+09
1885.000000 6.52677000e+09
1895.000000 6.04945000e+09
1905.000000 6.58955000e+09
1915.000000 6.17667000e+09
1925.000000 5.84366000e+09
1935.000000 6.23307000e+09
1945.000000 6.36423000e+09
1955.000000 5.69970000e+09
1967.000000 6.22217000e+09
1976.000000 6.49676000e+09
1984.000000 5.99646000e+09
1995.000000 5.88508000e+09
2005.000000 6.11797000e+09
2015.000000 6.03587000e+09
2025.000000 6.21564000e+09
2035.000000 5.62416000e+09
2045.000000 5.74252000e+09
2055.000000 5.50630000e+09
2065.000000 5.49913000e+09
2074.000000 5.80612000e+09
2078.000000 5.20135000e+09
2085.000000 5.51113000e+09
2095.000000 5.21461000e+09
2105.000000 5.40911000e+09
2115.000000 5.42217000e+09
2125.000000 5.46787000e+09
2135.000000 5.36991000e+09
2145.000000 5.05941000e+09
2155.000000 5.29025000e+09
2165.000000 5.26817000e+09
2175.000000 5.19507000e+09
2185.000000 5.01214000e+09
2195.000000 5.08434000e+09
2205.000000 5.05793000e+09
2215.000000 4.96951000e+09
2225.000000 4.83599000e+09
2235.000000 4.76023000e+09
2245.000000 4.80081000e+09
2255.000000 4.64075000e+09
2265.000000 4.69569000e+09
2275.000000 4.62284000e+09
2285.000000 4.61797000e+09
2295.000000 4.23148000e+09
2305.000000 4.45387000e+09
2315.000000 4.31987000e+09
2325.000000 4.26997000e+09
2335.000000 4.14061000e+09
2345.000000 4.16531000e+09
2355.000000 4.15202000e+09
2365.000000 4.10385000e+09
2375.000000 4.01747000e+09
2385.000000 3.98610000e+09
2395.000000 3.94349000e+09
2405.000000 3.86667000e+09
2415.000000 3.83168000e+09
2425.000000 3.82481000e+09
2435.000000 3.71181000e+09
2445.000000 3.71831000e+09
2455.000000 3.71671000e+09
2465.000000 3.64743000e+09
2475.000000 3.59157000e+09
2485.000000 3.52996000e+09
2495.000000 3.10418000e+09
2505.000000 3.42579000e+09
2513.000000 3.27307000e+09
2518.000000 3.39556000e+09
2525.000000 3.35360000e+09
2535.000000 3.31171000e+09
2545.000000 3.19942000e+09
2555.000000 3.23872000e+09
2565.000000 3.19319000e+09
2575.000000 3.19616000e+09
2585.000000 3.15062000e+09
2595.000000 3.12040000e+09
2605.000000 3.09543000e+09
2615.000000 3.05087000e+09
2625.000000 3.02778000e+09
2635.000000 2.99909000e+09
2645.000000 2.96552000e+09
2655.000000 2.94975000e+09
2665.000000 2.84071000e+09
2675.000000 2.84884000e+09
2685.000000 2.83952000e+09
2695.000000 2.73954000e+09
2705.000000 2.69646000e+09
2715.000000 2.69478000e+09
2725.000000 2.68041000e+09
2735.000000 2.66468000e+09
2745.000000 2.59340000e+09
2755.000000 2.58577000e+09
2765.000000 2.55567000e+09
2775.000000 2.57075000e+09
2785.000000 2.52808000e+09
2795.000000 2.43928000e+09
2805.000000 2.45908000e+09
2815.000000 2.45937000e+09
2825.000000 2.41985000e+09
2835.000000 2.33470000e+09
2845.000000 2.36593000e+09
2855.000000 2.32614000e+09
2865.000000 2.32287000e+09
2875.000000 2.29712000e+09
2885.000000 2.27245000e+09
2895.000000 2.23749000e+09
2910.000000 2.19433000e+09
2930.000000 2.16066000e+09
2950.000000 2.09579000e+09
2970.000000 2.06774000e+09
2990.000000 2.02045000e+09
3010.000000 1.95307000e+09
3030.000000 1.94333000e+09
3050.000000 1.90837000e+09
3070.000000 1.87539000e+09
3090.000000 1.80539000e+09
3110.000000 1.79424000e+09
3130.000000 1.75223000e+09
3150.000000 1.72219000e+09
3170.000000 1.67860000e+09
3190.000000 1.64181000e+09
3210.000000 1.62160000e+09
3230.000000 1.58374000e+09
3250.000000 1.55874000e+09
3270.000000 1.52476000e+09
3290.000000 1.49420000e+09
3310.000000 1.46808000e+09
3330.000000 1.43722000e+09
3350.000000 1.41071000e+09
3370.000000 1.38343000e+09
3390.000000 1.36086000e+09
3410.000000 1.33575000e+09
3430.000000 1.30487000e+09
3450.000000 1.27627000e+09
3470.000000 1.25453000e+09
3490.000000 1.22996000e+09
3510.000000 1.21036000e+09
3530.000000 1.19378000e+09
3550.000000 1.17184000e+09
3570.000000 1.15577000e+09
3590.000000 1.12214000e+09
3610.000000 1.10324000e+09
3630.000000 1.08685000e+09
3640.000000 1.08581000e+09
3650.000000 1.06174000e+09
3670.000000 1.04975000e+09
3690.000000 1.02739000e+09
3710.000000 9.89824000e+08
3730.000000 9.53027000e+08
3750.000000 9.96361000e+08
3770.000000 9.90350000e+08
3790.000000 1.03238000e+09
3810.000000 1.06872000e+09
3830.000000 9.43050000e+08
3850.000000 1.08122000e+09
3870.000000 1.07126000e+09
3890.000000 8.93793000e+08
3910.000000 1.06439000e+09
3930.000000 1.03090000e+09
3950.000000 1.02150000e+09
3970.000000 8.29761000e+08
3990.000000 9.84578000e+08
4010.000000 9.78741000e+08
4030.000000 9.26578000e+08
4050.000000 9.48065000e+08
4070.000000 9.08204000e+08
4090.000000 8.53064000e+08
4110.000000 7.64382000e+08
4130.000000 8.64051000e+08
4150.000000 8.58783000e+08
4170.000000 8.53577000e+08
4190.000000 8.43731000e+08
4210.000000 8.35415000e+08
4230.000000 8.17238000e+08
4250.000000 7.96758000e+08
4270.000000 7.74724000e+08
4290.000000 7.66781000e+08
4310.000000 7.45018000e+08
4330.000000 6.89305000e+08
4350.000000 6.33925000e+08
4370.000000 7.07991000e+08
4390.000000 6.98740000e+08
4410.000000 6.97124000e+08
4430.000000 6.89519000e+08
4450.000000 6.79378000e+08
4470.000000 6.47406000e+08
4490.000000 6.57647000e+08
4510.000000 6.52346000e+08
4530.000000 6.41128000e+08
4550.000000 6.31883000e+08
4570.000000 6.21115000e+08
4590.000000 6.11065000e+08
4610.000000 5.97549000e+08
4630.000000 5.88813000e+08
4650.000000 5.71893000e+08
4670.000000 5.71946000e+08
4690.000000 5.66993000e+08
4710.000000 5.45817000e+08
4730.000000 5.46212000e+08
4750.000000 5.37565000e+08
4770.000000 5.36610000e+08
4790.000000 5.27163000e+08
4810.000000 5.16421000e+08
4830.000000 5.06776000e+08
4850.000000 4.76163000e+08
4870.000000 4.27990000e+08
4890.000000 4.85672000e+08
4910.000000 4.80802000e+08
4930.000000 4.64322000e+08
4950.000000 4.66205000e+08
4970.000000 4.62628000e+08
4990.000000 4.55054000e+08
5010.000000 4.36719000e+08
5030.000000 4.41458000e+08
5050.000000 4.31010000e+08
5070.000000 4.29829000e+08
5090.000000 4.23143000e+08
5110.000000 4.16418000e+08
5130.000000 4.07551000e+08
5150.000000 4.02915000e+08
5170.000000 3.99803000e+08
5190.000000 3.94700000e+08
5210.000000 3.88053000e+08
5230.000000 3.83548000e+08
5250.000000 3.78540000e+08
5270.000000 3.72621000e+08
5290.000000 3.68301000e+08
5310.000000 3.62993000e+08
5330.000000 3.58205000e+08
5350.000000 3.52834000e+08
5370.000000 3.48969000e+08
5390.000000 3.44024000e+08
5410.000000 3.39774000e+08
5430.000000 3.34758000e+08
5450.000000 3.30200000e+08
5470.000000 3.25838000e+08
5490.000000 3.21656000e+08
5510.000000 3.17961000e+08
5530.000000 3.13238000e+08
5550.000000 3.09823000e+08
5570.000000 3.05537000e+08
5590.000000 3.01884000e+08
5610.000000 2.97724000e+08
5630.000000 2.94175000e+08
5650.000000 2.89063000e+08
5670.000000 2.84273000e+08
5690.000000 2.80114000e+08
5710.000000 2.78433000e+08
5730.000000 2.75196000e+08
5750.000000 2.71040000e+08
5770.000000 2.68836000e+08
5790.000000 2.65252000e+08
5810.000000 2.61989000e+08
5830.000000 2.58233000e+08
5850.000000 2.55369000e+08
5870.000000 2.45290000e+08
5890.000000 2.46961000e+08
5910.000000 2.45411000e+08
5930.000000 2.42001000e+08
5950.000000 2.38823000e+08
5970.000000 2.37363000e+08
5990.000000 2.33471000e+08
6010.000000 2.31346000e+08
6030.000000 2.28156000e+08
6050.000000 2.25652000e+08
6070.000000 2.23237000e+08
6090.000000 2.20554000e+08
6110.000000 2.17932000e+08
6130.000000 2.15469000e+08
6150.000000 2.11919000e+08
6170.000000 2.09854000e+08
6190.000000 2.07743000e+08
6210.000000 2.05450000e+08
6230.000000 2.03104000e+08
6250.000000 2.00312000e+08
6270.000000 1.98154000e+08
6290.000000 1.95991000e+08
6310.000000 1.93587000e+08
6330.000000 1.91557000e+08
6350.000000 1.88736000e+08
6370.000000 1.86986000e+08
6390.000000 1.84867000e+08
6410.000000 1.82808000e+08
6430.000000 1.80871000e+08
6450.000000 1.78727000e+08
6470.000000 1.76175000e+08
6490.000000 1.74304000e+08
6510.000000 1.72612000e+08
6530.000000 1.70011000e+08
6550.000000 1.63697000e+08
6570.000000 1.45412000e+08
6590.000000 1.62678000e+08
6610.000000 1.62885000e+08
6630.000000 1.61424000e+08
6650.000000 1.59637000e+08
6670.000000 1.56538000e+08
6690.000000 1.54872000e+08
6710.000000 1.54594000e+08
6730.000000 1.52595000e+08
6750.000000 1.51287000e+08
6770.000000 1.49655000e+08
6790.000000 1.46911000e+08
6810.000000 1.46204000e+08
6830.000000 1.44647000e+08
6850.000000 1.43241000e+08
6870.000000 1.41706000e+08
6890.000000 1.40083000e+08
6910.000000 1.38492000e+08
6930.000000 1.37200000e+08
6950.000000 1.35787000e+08
6970.000000 1.34365000e+08
6990.000000 1.32919000e+08
7010.000000 1.31518000e+08
7030.000000 1.30130000e+08
7050.000000 1.28756000e+08
7070.000000 1.25361000e+08
7090.000000 1.26108000e+08
7110.000000 1.24096000e+08
7130.000000 1.22882000e+08
7150.000000 1.22181000e+08
7170.000000 1.20965000e+08
7190.000000 1.19746000e+08
7210.000000 1.18518000e+08
7230.000000 1.15643000e+08
7250.000000 1.15945000e+08
7270.000000 1.14909000e+08
7290.000000 1.12826000e+08
7310.000000 1.12569000e+08
7330.000000 1.11422000e+08
7350.000000 1.10343000e+08
7370.000000 1.09245000e+08
7390.000000 1.08144000e+08
7410.000000 1.07067000e+08
7430.000000 1.05953000e+08
7450.000000 1.04936000e+08
7470.000000 1.03552000e+08
7490.000000 1.02832000e+08
7510.000000 1.01790000e+08
7530.000000 1.00772000e+08
7550.000000 9.98686000e+07
7570.000000 9.88945000e+07
7590.000000 9.79163000e+07
7610.000000 9.68753000e+07
7630.000000 9.59993000e+07
7650.000000 9.50860000e+07
7670.000000 9.41681000e+07
7690.000000 9.32521000e+07
7710.000000 9.23443000e+07
7730.000000 9.14384000e+07
7750.000000 9.05970000e+07
7770.000000 8.93574000e+07
7790.000000 8.88805000e+07
7810.000000 8.79689000e+07
7830.000000 8.71944000e+07
7850.000000 8.63716000e+07
7870.000000 8.54952000e+07
7890.000000 8.45237000e+07
7910.000000 8.39343000e+07
7930.000000 8.31220000e+07
7950.000000 8.22215000e+07
7970.000000 8.14417000e+07
7990.000000 8.06155000e+07
8010.000000 7.99316000e+07
8030.000000 7.91892000e+07
8050.000000 7.84997000e+07
8070.000000 7.78334000e+07
8090.000000 7.69713000e+07
8110.000000 7.61110000e+07
8130.000000 7.57313000e+07
8150.000000 7.49460000e+07
8170.000000 7.44102000e+07
8190.000000 7.34631000e+07
8210.000000 7.26362000e+07
8230.000000 7.19832000e+07
8250.000000 7.16014000e+07
8270.000000 7.03687000e+07
8290.000000 7.02379000e+07
8310.000000 6.96492000e+07
8330.000000 6.90274000e+07
8350.000000 6.80704000e+07
8370.000000 6.76325000e+07
8390.000000 6.71713000e+07
8410.000000 6.65433000e+07
8430.000000 6.59045000e+07
8450.000000 6.47540000e+07
8470.000000 6.46376000e+07
8490.000000 6.40251000e+07
8510.000000 6.32615000e+07
8530.000000 6.30015000e+07
8550.000000 6.15012000e+07
8570.000000 6.26096000e+07
8590.000000 6.00567000e+07
8610.000000 5.98593000e+07
8630.000000 6.15195000e+07
8650.000000 5.97349000e+07
8670.000000 5.60717000e+07
8690.000000 5.99496000e+07
8710.000000 6.01712000e+07
8730.000000 5.83585000e+07
8750.000000 5.29894000e+07
8770.000000 5.66665000e+07
8790.000000 5.83787000e+07
8810.000000 5.80752000e+07
8830.000000 5.73002000e+07
8850.000000 5.38910000e+07
8870.000000 5.00139000e+07
8890.000000 5.53567000e+07
8910.000000 5.56685000e+07
8930.000000 5.52446000e+07
8950.000000 5.49650000e+07
8970.000000 5.44018000e+07
8990.000000 5.28921000e+07
9010.000000 4.72651000e+07
9030.000000 4.96156000e+07
9050.000000 5.22621000e+07
9070.000000 5.17251000e+07
9090.000000 5.16847000e+07
9110.000000 5.15079000e+07
9130.000000 5.11243000e+07
9150.000000 5.06896000e+07
9170.000000 5.00431000e+07
9190.000000 4.95356000e+07
9210.000000 4.74109000e+07
9230.000000 4.20053000e+07
9250.000000 4.66715000e+07
9270.000000 4.76365000e+07
9290.000000 4.77197000e+07
9310.000000 4.72020000e+07
9330.000000 4.69479000e+07
9350.000000 4.66611000e+07
9370.000000 4.63205000e+07
9390.000000 4.59525000e+07
9410.000000 4.55021000e+07
9430.000000 4.52033000e+07
9450.000000 4.48350000e+07
9470.000000 4.41964000e+07
9490.000000 4.39935000e+07
9510.000000 4.30797000e+07
9530.000000 4.12814000e+07
9550.000000 3.69556000e+07
9570.000000 4.15005000e+07
9590.000000 4.21428000e+07
9610.000000 4.18207000e+07
9630.000000 4.14116000e+07
9650.000000 4.14262000e+07
9670.000000 4.10938000e+07
9690.000000 4.07318000e+07
9710.000000 4.03045000e+07
9730.000000 4.01350000e+07
9750.000000 3.98159000e+07
9770.000000 3.95189000e+07
9790.000000 3.92066000e+07
9810.000000 3.88759000e+07
9830.000000 3.86013000e+07
9850.000000 3.82998000e+07
9870.000000 3.79808000e+07
9890.000000 3.76552000e+07
9910.000000 3.72034000e+07
9930.000000 3.71408000e+07
9950.000000 3.68527000e+07
9970.000000 3.65398000e+07
9990.000000 3.62037000e+07
10025.000000 3.43710000e+07
10075.000000 3.32094000e+07
10125.000000 3.43290000e+07
10175.000000 3.38465000e+07
10225.000000 3.32050000e+07
10275.000000 3.26064000e+07
10325.000000 3.18828000e+07
10375.000000 3.14247000e+07
10425.000000 3.08533000e+07
10475.000000 3.02937000e+07
10525.000000 2.97379000e+07
10575.000000 2.92121000e+07
10625.000000 2.86912000e+07
10675.000000 2.81183000e+07
10725.000000 2.76815000e+07
10775.000000 2.71909000e+07
10825.000000 2.64143000e+07
10875.000000 2.61720000e+07
10925.000000 2.38037000e+07
10975.000000 2.48265000e+07
11025.000000 2.47242000e+07
11075.000000 2.44616000e+07
11125.000000 2.40580000e+07
11175.000000 2.36492000e+07
11225.000000 2.32357000e+07
11275.000000 2.28321000e+07
11325.000000 2.24418000e+07
11375.000000 2.20924000e+07
11425.000000 2.17116000e+07
11475.000000 2.13648000e+07
11525.000000 2.10122000e+07
11575.000000 2.06520000e+07
11625.000000 2.03208000e+07
11675.000000 1.99844000e+07
11725.000000 1.96685000e+07
11775.000000 1.93437000e+07
11825.000000 1.90366000e+07
11875.000000 1.87321000e+07
11925.000000 1.84325000e+07
11975.000000 1.79616000e+07
12025.000000 1.78492000e+07
12075.000000 1.75679000e+07
12125.000000 1.72900000e+07
12175.000000 1.70187000e+07
12225.000000 1.67527000e+07
12275.000000 1.64923000e+07
12325.000000 1.62355000e+07
12375.000000 1.59845000e+07
12425.000000 1.57395000e+07
12475.000000 1.54872000e+07
12525.000000 1.52230000e+07
12575.000000 1.50203000e+07
12625.000000 1.47959000e+07
12675.000000 1.45774000e+07
12725.000000 1.43523000e+07
12775.000000 1.38955000e+07
12825.000000 1.28712000e+07
12875.000000 1.36394000e+07
12925.000000 1.35183000e+07
12975.000000 1.32234000e+07
13025.000000 1.31214000e+07
13075.000000 1.29327000e+07
