# Kurucz ODFNEW /NOVER, alpha: 0.0 (2003)
# teff = 29000 K (value for the effective temperature for the model. Temperatures are given in K)
# logg = 4 log(cm/s2) (value for Log(G) for the model.)
# lh = 1.25  (l/Hp where l is the  mixing length of the convective element and Hp is the pressure scale height)
# meta = -1.5  (value for the Metallicity for the model.)
# vtur = 2 km/s (Microturbulence velocity)
# alpha = 0  (Alpha)
#
# column 1: WAVELENGTH (ANGSTROM), Wavelength in Angstrom
# column 2: FLUX (ERG/CM2/S/A), Flux in erg/cm2/s/A
147.200000 9.26165000e-10
151.000000 3.26518000e-09
155.200000 1.22351000e-08
158.800000 3.59259000e-08
162.000000 8.99663000e-08
166.000000 2.69669000e-07
170.300000 8.28745000e-07
173.400000 1.79898000e-06
176.800000 4.07990000e-06
180.200000 8.97202000e-06
181.700000 1.25839000e-05
186.100000 3.29290000e-05
191.000000 9.12542000e-05
193.900000 1.62837000e-04
198.400000 3.86917000e-04
201.800000 7.25257000e-04
205.000000 1.28541000e-03
210.500000 3.30348000e-03
216.200000 8.35225000e-03
219.800000 1.46397000e-02
223.000000 2.37459000e-02
226.800000 4.14329000e-02
230.000000 1.27825000e+01
234.000000 3.57575000e+01
240.000000 6.82168000e+01
246.500000 1.35806000e+02
252.400000 2.46123000e+02
256.800000 3.12078000e+02
260.000000 5.02131000e+02
264.000000 6.91773000e+02
268.500000 1.03102000e+03
273.500000 1.55124000e+03
278.500000 2.26765000e+03
284.000000 3.57640000e+03
290.000000 5.45787000e+03
296.000000 8.14507000e+03
301.000000 1.06377000e+04
308.000000 1.52147000e+04
318.000000 3.26459000e+04
328.000000 5.57439000e+04
338.000000 9.59400000e+04
348.000000 1.56277000e+05
357.000000 2.45152000e+05
366.000000 3.71510000e+05
375.000000 5.21782000e+05
385.000000 7.79993000e+05
395.000000 1.12329000e+06
405.000000 1.57065000e+06
414.000000 2.12048000e+06
422.000000 2.66759000e+06
430.000000 3.37304000e+06
441.000000 4.58841000e+06
451.000000 5.99745000e+06
460.000000 7.43720000e+06
470.000000 9.53233000e+06
480.000000 1.19312000e+07
490.000000 1.48031000e+07
500.000000 1.83377000e+07
506.000000 1.12925000e+08
512.000000 3.93064000e+08
520.000000 4.02142000e+08
530.000000 4.30778000e+08
540.000000 4.10591000e+08
550.000000 4.89512000e+08
560.000000 5.34917000e+08
570.000000 5.79020000e+08
580.000000 5.52675000e+08
590.000000 6.33460000e+08
600.000000 6.60312000e+08
610.000000 7.08142000e+08
620.000000 7.58467000e+08
630.000000 7.98023000e+08
640.000000 8.07457000e+08
650.000000 8.65096000e+08
658.000000 8.98222000e+08
665.000000 9.35296000e+08
675.000000 9.56903000e+08
685.000000 9.70195000e+08
695.000000 1.07936000e+09
705.000000 1.08526000e+09
716.000000 1.17342000e+09
726.000000 1.20307000e+09
735.000000 1.25106000e+09
745.000000 1.31422000e+09
755.000000 1.35722000e+09
765.000000 1.40810000e+09
775.000000 1.46339000e+09
785.000000 1.53137000e+09
795.000000 1.56807000e+09
805.000000 1.61360000e+09
815.000000 1.64729000e+09
825.000000 1.71802000e+09
835.000000 1.67318000e+09
845.000000 1.79151000e+09
855.000000 1.83468000e+09
865.000000 1.89451000e+09
875.000000 1.95705000e+09
885.000000 2.01538000e+09
895.000000 2.06503000e+09
905.000000 2.08975000e+09
915.000000 2.76752000e+09
925.000000 1.62615000e+10
935.000000 3.03732000e+10
945.000000 5.10152000e+10
955.000000 5.66937000e+10
965.000000 6.66379000e+10
975.000000 3.48178000e+10
985.000000 6.31904000e+10
995.000000 5.90461000e+10
1005.000000 6.11667000e+10
1015.000000 5.93530000e+10
1025.000000 3.74282000e+10
1035.000000 5.55797000e+10
1045.000000 6.08100000e+10
1055.000000 5.90332000e+10
1065.000000 5.40204000e+10
1075.000000 5.51292000e+10
1085.000000 5.11384000e+10
1095.000000 5.39570000e+10
1105.000000 5.19512000e+10
1115.000000 5.09235000e+10
1125.000000 4.70575000e+10
1135.000000 4.91096000e+10
1145.000000 4.66549000e+10
1155.000000 4.66836000e+10
1165.000000 4.58718000e+10
1175.000000 3.80816000e+10
1185.000000 4.30084000e+10
1195.000000 4.17772000e+10
1205.000000 3.88450000e+10
1215.000000 2.49844000e+10
1225.000000 3.86137000e+10
1235.000000 3.95767000e+10
1245.000000 3.83529000e+10
1255.000000 3.81077000e+10
1265.000000 3.75594000e+10
1275.000000 3.70212000e+10
1285.000000 3.63400000e+10
1295.000000 3.38602000e+10
1305.000000 3.39892000e+10
1315.000000 3.41692000e+10
1325.000000 3.30095000e+10
1335.000000 3.19567000e+10
1345.000000 3.18789000e+10
1355.000000 3.14594000e+10
1365.000000 3.05472000e+10
1375.000000 2.99989000e+10
1385.000000 2.94278000e+10
1395.000000 2.70522000e+10
1405.000000 2.69662000e+10
1415.000000 2.74801000e+10
1425.000000 2.65355000e+10
1435.000000 2.64889000e+10
1442.000000 2.63556000e+10
1447.000000 2.60154000e+10
1455.000000 2.54917000e+10
1465.000000 2.49640000e+10
1475.000000 2.44934000e+10
1485.000000 2.41270000e+10
1495.000000 2.35508000e+10
1505.000000 2.28946000e+10
1512.000000 2.25315000e+10
1517.000000 2.23783000e+10
1525.000000 2.19659000e+10
1535.000000 2.06686000e+10
1545.000000 2.01162000e+10
1555.000000 1.95810000e+10
1565.000000 1.97946000e+10
1575.000000 1.98265000e+10
1585.000000 1.96206000e+10
1595.000000 1.93042000e+10
1605.000000 1.84575000e+10
1615.000000 1.80289000e+10
1625.000000 1.79261000e+10
1635.000000 1.77526000e+10
1645.000000 1.70501000e+10
1655.000000 1.73591000e+10
1665.000000 1.70656000e+10
1672.000000 1.66737000e+10
1677.000000 1.70660000e+10
1685.000000 1.67000000e+10
1695.000000 1.63305000e+10
1705.000000 1.59451000e+10
1715.000000 1.54984000e+10
1725.000000 1.52382000e+10
1735.000000 1.52458000e+10
1745.000000 1.49552000e+10
1755.000000 1.47241000e+10
1765.000000 1.43751000e+10
1775.000000 1.41610000e+10
1785.000000 1.40300000e+10
1795.000000 1.38192000e+10
1805.000000 1.36780000e+10
1815.000000 1.33264000e+10
1825.000000 1.31435000e+10
1835.000000 1.29637000e+10
1845.000000 1.24152000e+10
1855.000000 1.21744000e+10
1865.000000 1.21297000e+10
1875.000000 1.20586000e+10
1885.000000 1.15323000e+10
1895.000000 1.11812000e+10
1905.000000 1.13402000e+10
1915.000000 1.09683000e+10
1925.000000 1.06890000e+10
1935.000000 1.07730000e+10
1945.000000 1.07491000e+10
1955.000000 1.02156000e+10
1967.000000 1.03318000e+10
1976.000000 1.03634000e+10
1984.000000 1.00359000e+10
1995.000000 9.72675000e+09
2005.000000 9.79865000e+09
2015.000000 9.73968000e+09
2025.000000 9.65475000e+09
2035.000000 9.38270000e+09
2045.000000 9.24072000e+09
2055.000000 8.47908000e+09
2065.000000 8.29547000e+09
2074.000000 8.43435000e+09
2078.000000 8.28998000e+09
2085.000000 8.41449000e+09
2095.000000 8.43546000e+09
2105.000000 8.48703000e+09
2115.000000 8.42524000e+09
2125.000000 8.33370000e+09
2135.000000 8.20540000e+09
2145.000000 8.05571000e+09
2155.000000 7.98704000e+09
2165.000000 7.84302000e+09
2175.000000 7.76414000e+09
2185.000000 7.62545000e+09
2195.000000 7.56481000e+09
2205.000000 7.45513000e+09
2215.000000 7.31425000e+09
2225.000000 7.23960000e+09
2235.000000 7.12933000e+09
2245.000000 7.04114000e+09
2255.000000 6.90171000e+09
2265.000000 6.84472000e+09
2275.000000 6.75076000e+09
2285.000000 6.65406000e+09
2295.000000 6.43012000e+09
2305.000000 6.43862000e+09
2315.000000 6.37580000e+09
2325.000000 6.28992000e+09
2335.000000 6.19774000e+09
2345.000000 6.12458000e+09
2355.000000 6.04123000e+09
2365.000000 5.96041000e+09
2375.000000 5.87573000e+09
2385.000000 5.76821000e+09
2395.000000 5.71416000e+09
2405.000000 5.64323000e+09
2415.000000 5.56604000e+09
2425.000000 5.49537000e+09
2435.000000 5.41684000e+09
2445.000000 5.34887000e+09
2455.000000 5.28082000e+09
2465.000000 5.21214000e+09
2475.000000 5.14255000e+09
2485.000000 5.07508000e+09
2495.000000 4.79295000e+09
2505.000000 4.93931000e+09
2513.000000 4.81527000e+09
2518.000000 4.84625000e+09
2525.000000 4.81841000e+09
2535.000000 4.75808000e+09
2545.000000 4.67772000e+09
2555.000000 4.62923000e+09
2565.000000 4.57700000e+09
2575.000000 4.51993000e+09
2585.000000 4.46366000e+09
2595.000000 4.40778000e+09
2605.000000 4.37273000e+09
2615.000000 4.31704000e+09
2625.000000 4.26338000e+09
2635.000000 4.20645000e+09
2645.000000 4.15236000e+09
2655.000000 4.09789000e+09
2665.000000 4.03913000e+09
2675.000000 3.98751000e+09
2685.000000 3.95906000e+09
2695.000000 3.88295000e+09
2705.000000 3.85893000e+09
2715.000000 3.81369000e+09
2725.000000 3.74526000e+09
2735.000000 3.70871000e+09
2745.000000 3.67774000e+09
2755.000000 3.63505000e+09
2765.000000 3.56643000e+09
2775.000000 3.55046000e+09
2785.000000 3.50738000e+09
2795.000000 3.44490000e+09
2805.000000 3.41986000e+09
2815.000000 3.38614000e+09
2825.000000 3.31859000e+09
2835.000000 3.28576000e+09
2845.000000 3.26917000e+09
2855.000000 3.22976000e+09
2865.000000 3.19284000e+09
2875.000000 3.15636000e+09
2885.000000 3.12066000e+09
2895.000000 3.08458000e+09
2910.000000 3.03079000e+09
2930.000000 2.96336000e+09
2950.000000 2.87886000e+09
2970.000000 2.83202000e+09
2990.000000 2.76855000e+09
3010.000000 2.70564000e+09
3030.000000 2.64830000e+09
3050.000000 2.59132000e+09
3070.000000 2.53581000e+09
3090.000000 2.47515000e+09
3110.000000 2.42749000e+09
3130.000000 2.37638000e+09
3150.000000 2.32598000e+09
3170.000000 2.27659000e+09
3190.000000 2.21334000e+09
3210.000000 2.17915000e+09
3230.000000 2.13633000e+09
3250.000000 2.09253000e+09
3270.000000 2.05119000e+09
3290.000000 2.00691000e+09
3310.000000 1.96891000e+09
3330.000000 1.92875000e+09
3350.000000 1.88729000e+09
3370.000000 1.85238000e+09
3390.000000 1.81604000e+09
3410.000000 1.78025000e+09
3430.000000 1.73809000e+09
3450.000000 1.69863000e+09
3470.000000 1.66984000e+09
3490.000000 1.63724000e+09
3510.000000 1.60992000e+09
3530.000000 1.58161000e+09
3550.000000 1.55149000e+09
3570.000000 1.52934000e+09
3590.000000 1.49138000e+09
3610.000000 1.46672000e+09
3630.000000 1.43611000e+09
3640.000000 1.43150000e+09
3650.000000 1.40195000e+09
3670.000000 1.38145000e+09
3690.000000 1.35183000e+09
3710.000000 1.30760000e+09
3730.000000 1.25903000e+09
3750.000000 1.29488000e+09
3770.000000 1.28359000e+09
3790.000000 1.32418000e+09
3810.000000 1.36331000e+09
3830.000000 1.21667000e+09
3850.000000 1.37262000e+09
3870.000000 1.36664000e+09
3890.000000 1.15326000e+09
3910.000000 1.33510000e+09
3930.000000 1.30955000e+09
3950.000000 1.28838000e+09
3970.000000 1.06850000e+09
3990.000000 1.23908000e+09
4010.000000 1.22237000e+09
4030.000000 1.16643000e+09
4050.000000 1.19008000e+09
4070.000000 1.16185000e+09
4090.000000 1.09586000e+09
4110.000000 9.80245000e+08
4130.000000 1.09452000e+09
4150.000000 1.08098000e+09
4170.000000 1.06927000e+09
4190.000000 1.05220000e+09
4210.000000 1.03449000e+09
4230.000000 1.01774000e+09
4250.000000 9.99509000e+08
4270.000000 9.80250000e+08
4290.000000 9.65809000e+08
4310.000000 9.46300000e+08
4330.000000 8.81378000e+08
4350.000000 8.12509000e+08
4370.000000 8.99030000e+08
4390.000000 8.71485000e+08
4410.000000 8.73090000e+08
4430.000000 8.58026000e+08
4450.000000 8.46469000e+08
4470.000000 8.06595000e+08
4490.000000 8.19177000e+08
4510.000000 8.06630000e+08
4530.000000 7.93759000e+08
4550.000000 7.79936000e+08
4570.000000 7.68218000e+08
4590.000000 7.55887000e+08
4610.000000 7.44273000e+08
4630.000000 7.32585000e+08
4650.000000 7.16905000e+08
4670.000000 7.09586000e+08
4690.000000 6.96148000e+08
4710.000000 6.80518000e+08
4730.000000 6.77924000e+08
4750.000000 6.67285000e+08
4770.000000 6.57777000e+08
4790.000000 6.47747000e+08
4810.000000 6.37747000e+08
4830.000000 6.25710000e+08
4850.000000 5.90883000e+08
4870.000000 5.36195000e+08
4890.000000 5.97184000e+08
4910.000000 5.91032000e+08
4930.000000 5.72048000e+08
4950.000000 5.73954000e+08
4970.000000 5.65958000e+08
4990.000000 5.57648000e+08
5010.000000 5.43659000e+08
5030.000000 5.41533000e+08
5050.000000 5.31210000e+08
5070.000000 5.26060000e+08
5090.000000 5.18474000e+08
5110.000000 5.11061000e+08
5130.000000 5.03692000e+08
5150.000000 4.96506000e+08
5170.000000 4.89543000e+08
5190.000000 4.82686000e+08
5210.000000 4.75893000e+08
5230.000000 4.69230000e+08
5250.000000 4.62682000e+08
5270.000000 4.56233000e+08
5290.000000 4.49922000e+08
5310.000000 4.43694000e+08
5330.000000 4.37625000e+08
5350.000000 4.31595000e+08
5370.000000 4.25721000e+08
5390.000000 4.19884000e+08
5410.000000 4.13824000e+08
5430.000000 4.08609000e+08
5450.000000 4.03079000e+08
5470.000000 3.97682000e+08
5490.000000 3.92340000e+08
5510.000000 3.87127000e+08
5530.000000 3.81966000e+08
5550.000000 3.76907000e+08
5570.000000 3.71922000e+08
5590.000000 3.67023000e+08
5610.000000 3.62208000e+08
5630.000000 3.57464000e+08
5650.000000 3.52802000e+08
5670.000000 3.48115000e+08
5690.000000 3.43356000e+08
5710.000000 3.39199000e+08
5730.000000 3.34861000e+08
5750.000000 3.30462000e+08
5770.000000 3.26376000e+08
5790.000000 3.22192000e+08
5810.000000 3.18103000e+08
5830.000000 3.14051000e+08
5850.000000 3.10102000e+08
5870.000000 2.98535000e+08
5890.000000 3.02006000e+08
5910.000000 2.98563000e+08
5930.000000 2.94806000e+08
5950.000000 2.91147000e+08
5970.000000 2.87603000e+08
5990.000000 2.84027000e+08
6010.000000 2.80544000e+08
6030.000000 2.77080000e+08
6050.000000 2.73717000e+08
6070.000000 2.70383000e+08
6090.000000 2.67096000e+08
6110.000000 2.63857000e+08
6130.000000 2.60665000e+08
6150.000000 2.57488000e+08
6170.000000 2.54406000e+08
6190.000000 2.51378000e+08
6210.000000 2.48375000e+08
6230.000000 2.45414000e+08
6250.000000 2.42505000e+08
6270.000000 2.39629000e+08
6290.000000 2.36803000e+08
6310.000000 2.34017000e+08
6330.000000 2.31271000e+08
6350.000000 2.28556000e+08
6370.000000 2.25897000e+08
6390.000000 2.23267000e+08
6410.000000 2.20675000e+08
6430.000000 2.18129000e+08
6450.000000 2.15610000e+08
6470.000000 2.13100000e+08
6490.000000 2.10662000e+08
6510.000000 2.08276000e+08
6530.000000 2.05403000e+08
6550.000000 1.98654000e+08
6570.000000 1.79240000e+08
6590.000000 1.97690000e+08
6610.000000 1.96650000e+08
6630.000000 1.94523000e+08
6650.000000 1.92418000e+08
6670.000000 1.88708000e+08
6690.000000 1.86622000e+08
6710.000000 1.86072000e+08
6730.000000 1.83986000e+08
6750.000000 1.81979000e+08
6770.000000 1.79977000e+08
6790.000000 1.77946000e+08
6810.000000 1.76041000e+08
6830.000000 1.74107000e+08
6850.000000 1.72217000e+08
6870.000000 1.70346000e+08
6890.000000 1.68485000e+08
6910.000000 1.66659000e+08
6930.000000 1.64883000e+08
6950.000000 1.63108000e+08
6970.000000 1.61359000e+08
6990.000000 1.59628000e+08
7010.000000 1.57929000e+08
7030.000000 1.56246000e+08
7050.000000 1.54595000e+08
7070.000000 1.50783000e+08
7090.000000 1.51342000e+08
7110.000000 1.49747000e+08
7130.000000 1.48174000e+08
7150.000000 1.46624000e+08
7170.000000 1.45067000e+08
7190.000000 1.43583000e+08
7210.000000 1.42092000e+08
7230.000000 1.40399000e+08
7250.000000 1.39145000e+08
7270.000000 1.37732000e+08
7290.000000 1.35304000e+08
7310.000000 1.34896000e+08
7330.000000 1.33537000e+08
7350.000000 1.32170000e+08
7370.000000 1.30829000e+08
7390.000000 1.29501000e+08
7410.000000 1.28186000e+08
7430.000000 1.26896000e+08
7450.000000 1.25625000e+08
7470.000000 1.24346000e+08
7490.000000 1.23118000e+08
7510.000000 1.21849000e+08
7530.000000 1.20671000e+08
7550.000000 1.19471000e+08
7570.000000 1.18282000e+08
7590.000000 1.17110000e+08
7610.000000 1.15949000e+08
7630.000000 1.14811000e+08
7650.000000 1.13683000e+08
7670.000000 1.12573000e+08
7690.000000 1.11465000e+08
7710.000000 1.10381000e+08
7730.000000 1.09306000e+08
7750.000000 1.08241000e+08
7770.000000 1.07191000e+08
7790.000000 1.06164000e+08
7810.000000 1.05083000e+08
7830.000000 1.04129000e+08
7850.000000 1.03214000e+08
7870.000000 1.02216000e+08
7890.000000 1.01196000e+08
7910.000000 1.00288000e+08
7930.000000 9.93331000e+07
7950.000000 9.83809000e+07
7970.000000 9.73303000e+07
7990.000000 9.64364000e+07
8010.000000 9.54740000e+07
8030.000000 9.45725000e+07
8050.000000 9.37253000e+07
8070.000000 9.28795000e+07
8090.000000 9.18682000e+07
8110.000000 9.10720000e+07
8130.000000 9.03281000e+07
8150.000000 8.93692000e+07
8170.000000 8.86895000e+07
8190.000000 8.77514000e+07
8210.000000 8.66928000e+07
8230.000000 8.60940000e+07
8250.000000 8.53560000e+07
8270.000000 8.42001000e+07
8290.000000 8.37340000e+07
8310.000000 8.30041000e+07
8330.000000 8.22205000e+07
8350.000000 8.11247000e+07
8370.000000 8.06191000e+07
8390.000000 7.99891000e+07
8410.000000 7.92628000e+07
8430.000000 7.84790000e+07
8450.000000 7.73271000e+07
8470.000000 7.69781000e+07
8490.000000 7.62500000e+07
8510.000000 7.54082000e+07
8530.000000 7.49618000e+07
8550.000000 7.34159000e+07
8570.000000 7.43663000e+07
8590.000000 7.16565000e+07
8610.000000 7.13951000e+07
8630.000000 7.29311000e+07
8650.000000 7.10284000e+07
8670.000000 6.71828000e+07
8690.000000 7.10744000e+07
8710.000000 7.11755000e+07
8730.000000 6.92135000e+07
8750.000000 6.34898000e+07
8770.000000 6.73003000e+07
8790.000000 6.89740000e+07
8810.000000 6.85301000e+07
8830.000000 6.77320000e+07
8850.000000 6.40737000e+07
8870.000000 5.98252000e+07
8890.000000 6.54528000e+07
8910.000000 6.56718000e+07
8930.000000 6.51748000e+07
8950.000000 6.47757000e+07
8970.000000 6.41266000e+07
8990.000000 6.25225000e+07
9010.000000 5.64537000e+07
9030.000000 5.89344000e+07
9050.000000 6.16502000e+07
9070.000000 6.10077000e+07
9090.000000 6.09447000e+07
9110.000000 6.06456000e+07
9130.000000 6.01723000e+07
9150.000000 5.96710000e+07
9170.000000 5.89720000e+07
9190.000000 5.83721000e+07
9210.000000 5.61158000e+07
9230.000000 5.02834000e+07
9250.000000 5.53410000e+07
9270.000000 5.64089000e+07
9290.000000 5.62143000e+07
9310.000000 5.55992000e+07
9330.000000 5.53611000e+07
9350.000000 5.48746000e+07
9370.000000 5.44775000e+07
9390.000000 5.40321000e+07
9410.000000 5.35899000e+07
9430.000000 5.31595000e+07
9450.000000 5.27280000e+07
9470.000000 5.20098000e+07
9490.000000 5.17866000e+07
9510.000000 5.07484000e+07
9530.000000 4.88350000e+07
9550.000000 4.40662000e+07
9570.000000 4.90035000e+07
9590.000000 4.95694000e+07
9610.000000 4.92491000e+07
9630.000000 4.88091000e+07
9650.000000 4.86555000e+07
9670.000000 4.82692000e+07
9690.000000 4.78494000e+07
9710.000000 4.73808000e+07
9730.000000 4.71345000e+07
9750.000000 4.67630000e+07
9770.000000 4.63981000e+07
9790.000000 4.60357000e+07
9810.000000 4.56721000e+07
9830.000000 4.53188000e+07
9850.000000 4.49641000e+07
9870.000000 4.46157000e+07
9890.000000 4.42699000e+07
9910.000000 4.38996000e+07
9930.000000 4.35892000e+07
9950.000000 4.32543000e+07
9970.000000 4.29180000e+07
9990.000000 4.25311000e+07
10025.000000 4.05216000e+07
10075.000000 3.92482000e+07
10125.000000 4.03094000e+07
10175.000000 3.96886000e+07
10225.000000 3.89303000e+07
10275.000000 3.82205000e+07
10325.000000 3.73812000e+07
10375.000000 3.68223000e+07
10425.000000 3.61475000e+07
10475.000000 3.54839000e+07
10525.000000 3.48415000e+07
10575.000000 3.42097000e+07
10625.000000 3.35948000e+07
10675.000000 3.29343000e+07
10725.000000 3.24013000e+07
10775.000000 3.18252000e+07
10825.000000 3.09590000e+07
10875.000000 3.06482000e+07
10925.000000 2.80806000e+07
10975.000000 2.91327000e+07
11025.000000 2.89583000e+07
11075.000000 2.86074000e+07
11125.000000 2.81304000e+07
11175.000000 2.76476000e+07
11225.000000 2.71615000e+07
11275.000000 2.67119000e+07
11325.000000 2.62577000e+07
11375.000000 2.58154000e+07
11425.000000 2.53813000e+07
11475.000000 2.49566000e+07
11525.000000 2.45405000e+07
11575.000000 2.41324000e+07
11625.000000 2.37324000e+07
11675.000000 2.33419000e+07
11725.000000 2.29602000e+07
11775.000000 2.25852000e+07
11825.000000 2.22179000e+07
11875.000000 2.18578000e+07
11925.000000 2.15050000e+07
11975.000000 2.09775000e+07
12025.000000 2.08206000e+07
12075.000000 2.04888000e+07
12125.000000 2.01634000e+07
12175.000000 1.98444000e+07
12225.000000 1.95316000e+07
12275.000000 1.92251000e+07
12325.000000 1.89246000e+07
12375.000000 1.86298000e+07
12425.000000 1.83408000e+07
12475.000000 1.80573000e+07
12525.000000 1.77460000e+07
12575.000000 1.75065000e+07
12625.000000 1.72391000e+07
12675.000000 1.69770000e+07
12725.000000 1.67191000e+07
12775.000000 1.62164000e+07
12825.000000 1.51042000e+07
12875.000000 1.58966000e+07
12925.000000 1.57373000e+07
12975.000000 1.54079000e+07
13025.000000 1.52732000e+07
13075.000000 1.50480000e+07
