# Kurucz ODFNEW /NOVER, alpha: 0.0 (2003)
# teff = 23000 K (value for the effective temperature for the model. Temperatures are given in K)
# logg = 3.5 log(cm/s2) (value for Log(G) for the model.)
# lh = 1.25  (l/Hp where l is the  mixing length of the convective element and Hp is the pressure scale height)
# meta = -2.5  (value for the Metallicity for the model.)
# vtur = 2 km/s (Microturbulence velocity)
# alpha = 0  (Alpha)
#
# column 1: WAVELENGTH (ANGSTROM), Wavelength in Angstrom
# column 2: FLUX (ERG/CM2/S/A), Flux in erg/cm2/s/A
147.200000 5.54962000e-16
151.000000 3.11019000e-15
155.200000 1.88904000e-14
158.800000 8.19746000e-14
162.000000 2.85576000e-13
166.000000 1.26713000e-12
170.300000 5.79823000e-12
173.400000 1.65313000e-11
176.800000 4.99237000e-11
180.200000 1.44348000e-10
181.700000 2.27567000e-10
186.100000 8.27695000e-10
191.000000 3.24022000e-09
193.900000 7.02412000e-09
198.400000 2.22654000e-08
201.800000 5.13623000e-08
205.000000 1.09841000e-07
210.500000 3.83274000e-07
216.200000 1.30414000e-06
219.800000 2.73049000e-06
223.000000 5.15614000e-06
226.800000 1.07024000e-05
230.000000 3.63939000e-05
234.000000 8.10894000e-05
240.000000 2.17829000e-04
246.500000 6.01523000e-04
252.400000 1.45214000e-03
256.800000 2.64857000e-03
260.000000 4.20878000e-03
264.000000 7.18259000e-03
268.500000 1.28353000e-02
273.500000 2.38959000e-02
278.500000 4.35145000e-02
284.000000 8.19775000e-02
290.000000 1.58889000e-01
296.000000 2.99136000e-01
301.000000 4.96271000e-01
308.000000 9.66009000e-01
318.000000 2.46161000e+00
328.000000 5.80971000e+00
338.000000 1.29895000e+01
348.000000 2.76441000e+01
357.000000 5.24558000e+01
366.000000 9.62916000e+01
375.000000 1.71103000e+02
385.000000 3.13380000e+02
395.000000 5.54935000e+02
405.000000 9.53003000e+02
414.000000 1.51326000e+03
422.000000 2.24048000e+03
430.000000 3.26302000e+03
441.000000 5.34485000e+03
451.000000 8.17558000e+03
460.000000 1.17744000e+04
470.000000 1.73425000e+04
480.000000 2.50793000e+04
490.000000 3.56661000e+04
500.000000 4.99106000e+04
506.000000 3.17674000e+05
512.000000 9.04674000e+05
520.000000 1.11152000e+06
530.000000 1.53347000e+06
540.000000 1.66247000e+06
550.000000 2.31605000e+06
560.000000 2.76000000e+06
570.000000 3.32296000e+06
580.000000 3.35305000e+06
590.000000 4.36762000e+06
600.000000 5.38263000e+06
610.000000 6.29728000e+06
620.000000 7.24891000e+06
630.000000 8.36028000e+06
640.000000 9.43571000e+06
650.000000 1.08329000e+07
658.000000 1.20459000e+07
665.000000 1.31064000e+07
675.000000 1.45483000e+07
685.000000 1.62309000e+07
695.000000 1.85196000e+07
705.000000 2.04909000e+07
716.000000 2.29643000e+07
726.000000 2.53101000e+07
735.000000 2.77917000e+07
745.000000 3.06291000e+07
755.000000 3.35764000e+07
765.000000 3.66349000e+07
775.000000 3.99971000e+07
785.000000 4.34872000e+07
795.000000 4.70518000e+07
805.000000 5.08821000e+07
815.000000 5.47678000e+07
825.000000 5.90701000e+07
835.000000 6.26347000e+07
845.000000 6.77720000e+07
855.000000 7.22358000e+07
865.000000 7.73926000e+07
875.000000 8.26455000e+07
885.000000 8.79552000e+07
895.000000 9.33329000e+07
905.000000 9.80065000e+07
915.000000 1.85911000e+08
925.000000 2.19501000e+09
935.000000 6.19160000e+09
945.000000 1.41989000e+10
955.000000 1.70337000e+10
965.000000 2.08575000e+10
975.000000 1.00699000e+10
985.000000 2.13482000e+10
995.000000 2.04742000e+10
1005.000000 2.11236000e+10
1015.000000 1.97908000e+10
1025.000000 9.28606000e+09
1035.000000 1.83563000e+10
1045.000000 2.05917000e+10
1055.000000 2.01016000e+10
1065.000000 1.87965000e+10
1075.000000 1.91999000e+10
1085.000000 1.80376000e+10
1095.000000 1.88015000e+10
1105.000000 1.81240000e+10
1115.000000 1.78825000e+10
1125.000000 1.69974000e+10
1135.000000 1.73245000e+10
1145.000000 1.67272000e+10
1155.000000 1.68345000e+10
1165.000000 1.65770000e+10
1175.000000 1.47949000e+10
1185.000000 1.58890000e+10
1195.000000 1.51095000e+10
1205.000000 1.37327000e+10
1215.000000 6.25745000e+09
1225.000000 1.36676000e+10
1235.000000 1.44408000e+10
1245.000000 1.41767000e+10
1255.000000 1.40395000e+10
1265.000000 1.37103000e+10
1275.000000 1.36333000e+10
1285.000000 1.33840000e+10
1295.000000 1.25954000e+10
1305.000000 1.26084000e+10
1315.000000 1.26849000e+10
1325.000000 1.23081000e+10
1335.000000 1.19018000e+10
1345.000000 1.19862000e+10
1355.000000 1.18408000e+10
1365.000000 1.15925000e+10
1375.000000 1.13908000e+10
1385.000000 1.12122000e+10
1395.000000 1.07665000e+10
1405.000000 1.06639000e+10
1415.000000 1.06180000e+10
1425.000000 1.04545000e+10
1435.000000 1.03018000e+10
1442.000000 1.02007000e+10
1447.000000 1.01073000e+10
1455.000000 9.96622000e+09
1465.000000 9.78762000e+09
1475.000000 9.62713000e+09
1485.000000 9.46425000e+09
1495.000000 9.30553000e+09
1505.000000 9.10411000e+09
1512.000000 8.99249000e+09
1517.000000 8.93740000e+09
1525.000000 8.81213000e+09
1535.000000 8.54755000e+09
1545.000000 8.43963000e+09
1555.000000 8.25867000e+09
1565.000000 8.24129000e+09
1575.000000 8.13956000e+09
1585.000000 8.01288000e+09
1595.000000 7.89317000e+09
1605.000000 7.68515000e+09
1615.000000 7.56080000e+09
1625.000000 7.50071000e+09
1635.000000 7.39937000e+09
1645.000000 7.18494000e+09
1655.000000 7.17705000e+09
1665.000000 7.07792000e+09
1672.000000 6.97053000e+09
1677.000000 6.96721000e+09
1685.000000 6.87347000e+09
1695.000000 6.74999000e+09
1705.000000 6.63282000e+09
1715.000000 6.50459000e+09
1725.000000 6.42217000e+09
1735.000000 6.33972000e+09
1745.000000 6.23745000e+09
1755.000000 6.16449000e+09
1765.000000 6.00148000e+09
1775.000000 5.94947000e+09
1785.000000 5.88678000e+09
1795.000000 5.80804000e+09
1805.000000 5.73415000e+09
1815.000000 5.62986000e+09
1825.000000 5.55464000e+09
1835.000000 5.47457000e+09
1845.000000 5.33338000e+09
1855.000000 5.19458000e+09
1865.000000 5.15852000e+09
1875.000000 5.14908000e+09
1885.000000 4.99206000e+09
1895.000000 4.86734000e+09
1905.000000 4.89766000e+09
1915.000000 4.75983000e+09
1925.000000 4.68835000e+09
1935.000000 4.67100000e+09
1945.000000 4.64291000e+09
1955.000000 4.49165000e+09
1967.000000 4.50079000e+09
1976.000000 4.47648000e+09
1984.000000 4.38149000e+09
1995.000000 4.26572000e+09
2005.000000 4.28185000e+09
2015.000000 4.24641000e+09
2025.000000 4.20155000e+09
2035.000000 4.12133000e+09
2045.000000 4.06536000e+09
2055.000000 3.96808000e+09
2065.000000 3.91119000e+09
2074.000000 3.92601000e+09
2078.000000 3.84967000e+09
2085.000000 3.85107000e+09
2095.000000 3.77474000e+09
2105.000000 3.76013000e+09
2115.000000 3.72281000e+09
2125.000000 3.68460000e+09
2135.000000 3.63371000e+09
2145.000000 3.57854000e+09
2155.000000 3.54054000e+09
2165.000000 3.49682000e+09
2175.000000 3.44976000e+09
2185.000000 3.40792000e+09
2195.000000 3.36670000e+09
2205.000000 3.32383000e+09
2215.000000 3.28183000e+09
2225.000000 3.23908000e+09
2235.000000 3.19764000e+09
2245.000000 3.16055000e+09
2255.000000 3.11902000e+09
2265.000000 3.08258000e+09
2275.000000 3.04441000e+09
2285.000000 3.00764000e+09
2295.000000 2.94780000e+09
2305.000000 2.93363000e+09
2315.000000 2.89674000e+09
2325.000000 2.86177000e+09
2335.000000 2.82528000e+09
2345.000000 2.79206000e+09
2355.000000 2.76018000e+09
2365.000000 2.72658000e+09
2375.000000 2.69358000e+09
2385.000000 2.66045000e+09
2395.000000 2.62934000e+09
2405.000000 2.59867000e+09
2415.000000 2.56698000e+09
2425.000000 2.53855000e+09
2435.000000 2.50783000e+09
2445.000000 2.47892000e+09
2455.000000 2.45070000e+09
2465.000000 2.42174000e+09
2475.000000 2.39373000e+09
2485.000000 2.36577000e+09
2495.000000 2.31338000e+09
2505.000000 2.31128000e+09
2513.000000 2.28418000e+09
2518.000000 2.27684000e+09
2525.000000 2.25885000e+09
2535.000000 2.23280000e+09
2545.000000 2.20453000e+09
2555.000000 2.18275000e+09
2565.000000 2.15809000e+09
2575.000000 2.13454000e+09
2585.000000 2.11056000e+09
2595.000000 2.08700000e+09
2605.000000 2.07955000e+09
2615.000000 2.05663000e+09
2625.000000 2.03213000e+09
2635.000000 2.00458000e+09
2645.000000 1.98380000e+09
2655.000000 1.95964000e+09
2665.000000 1.93599000e+09
2675.000000 1.91386000e+09
2685.000000 1.90392000e+09
2695.000000 1.87021000e+09
2705.000000 1.86263000e+09
2715.000000 1.84245000e+09
2725.000000 1.80921000e+09
2735.000000 1.80281000e+09
2745.000000 1.78250000e+09
2755.000000 1.76377000e+09
2765.000000 1.73172000e+09
2775.000000 1.72724000e+09
2785.000000 1.70878000e+09
2795.000000 1.68351000e+09
2805.000000 1.67091000e+09
2815.000000 1.65544000e+09
2825.000000 1.62293000e+09
2835.000000 1.61332000e+09
2845.000000 1.60405000e+09
2855.000000 1.58733000e+09
2865.000000 1.57099000e+09
2875.000000 1.55475000e+09
2885.000000 1.53874000e+09
2895.000000 1.52292000e+09
2910.000000 1.49947000e+09
2930.000000 1.46902000e+09
2950.000000 1.43038000e+09
2970.000000 1.41058000e+09
2990.000000 1.38234000e+09
3010.000000 1.35488000e+09
3030.000000 1.32831000e+09
3050.000000 1.30224000e+09
3070.000000 1.27682000e+09
3090.000000 1.25174000e+09
3110.000000 1.22782000e+09
3130.000000 1.20561000e+09
3150.000000 1.18237000e+09
3170.000000 1.15937000e+09
3190.000000 1.12873000e+09
3210.000000 1.11588000e+09
3230.000000 1.09481000e+09
3250.000000 1.07421000e+09
3270.000000 1.05554000e+09
3290.000000 1.03457000e+09
3310.000000 1.01708000e+09
3330.000000 9.98517000e+08
3350.000000 9.78540000e+08
3370.000000 9.62647000e+08
3390.000000 9.45323000e+08
3410.000000 9.28403000e+08
3430.000000 9.07489000e+08
3450.000000 8.88135000e+08
3470.000000 8.75205000e+08
3490.000000 8.60099000e+08
3510.000000 8.49408000e+08
3530.000000 8.35366000e+08
3550.000000 8.21257000e+08
3570.000000 8.10603000e+08
3590.000000 7.92651000e+08
3610.000000 7.80106000e+08
3630.000000 7.65730000e+08
3640.000000 7.63718000e+08
3650.000000 7.55749000e+08
3670.000000 7.45940000e+08
3690.000000 7.24513000e+08
3710.000000 7.08128000e+08
3730.000000 6.94706000e+08
3750.000000 7.58147000e+08
3770.000000 7.62821000e+08
3790.000000 7.92086000e+08
3810.000000 8.22903000e+08
3830.000000 7.25830000e+08
3850.000000 8.36315000e+08
3870.000000 8.30712000e+08
3890.000000 6.92558000e+08
3910.000000 8.15010000e+08
3930.000000 7.99174000e+08
3950.000000 7.88301000e+08
3970.000000 6.42889000e+08
3990.000000 7.59181000e+08
4010.000000 7.48394000e+08
4030.000000 7.13125000e+08
4050.000000 7.30009000e+08
4070.000000 7.16097000e+08
4090.000000 6.75938000e+08
4110.000000 5.96180000e+08
4130.000000 6.74018000e+08
4150.000000 6.65677000e+08
4170.000000 6.58679000e+08
4190.000000 6.49724000e+08
4210.000000 6.39229000e+08
4230.000000 6.28882000e+08
4250.000000 6.18702000e+08
4270.000000 6.08271000e+08
4290.000000 5.99051000e+08
4310.000000 5.87927000e+08
4330.000000 5.46742000e+08
4350.000000 5.00415000e+08
4370.000000 5.59741000e+08
4390.000000 5.41516000e+08
4410.000000 5.44519000e+08
4430.000000 5.33855000e+08
4450.000000 5.27868000e+08
4470.000000 5.02340000e+08
4490.000000 5.11609000e+08
4510.000000 5.03933000e+08
4530.000000 4.96244000e+08
4550.000000 4.88670000e+08
4570.000000 4.81246000e+08
4590.000000 4.74039000e+08
4610.000000 4.66921000e+08
4630.000000 4.59943000e+08
4650.000000 4.52894000e+08
4670.000000 4.46346000e+08
4690.000000 4.39618000e+08
4710.000000 4.28336000e+08
4730.000000 4.26860000e+08
4750.000000 4.20551000e+08
4770.000000 4.14581000e+08
4790.000000 4.08549000e+08
4810.000000 4.02602000e+08
4830.000000 3.95609000e+08
4850.000000 3.73038000e+08
4870.000000 3.35161000e+08
4890.000000 3.78114000e+08
4910.000000 3.74446000e+08
4930.000000 3.62254000e+08
4950.000000 3.64099000e+08
4970.000000 3.58993000e+08
4990.000000 3.53958000e+08
5010.000000 3.45224000e+08
5030.000000 3.44167000e+08
5050.000000 3.37487000e+08
5070.000000 3.34698000e+08
5090.000000 3.30095000e+08
5110.000000 3.25568000e+08
5130.000000 3.21102000e+08
5150.000000 3.16724000e+08
5170.000000 3.12432000e+08
5190.000000 3.08210000e+08
5210.000000 3.04044000e+08
5230.000000 2.99961000e+08
5250.000000 2.95944000e+08
5270.000000 2.91992000e+08
5290.000000 2.88106000e+08
5310.000000 2.84283000e+08
5330.000000 2.80522000e+08
5350.000000 2.76823000e+08
5370.000000 2.73197000e+08
5390.000000 2.69618000e+08
5410.000000 2.66096000e+08
5430.000000 2.62645000e+08
5450.000000 2.59237000e+08
5470.000000 2.55896000e+08
5490.000000 2.52598000e+08
5510.000000 2.49353000e+08
5530.000000 2.46173000e+08
5550.000000 2.43032000e+08
5570.000000 2.39942000e+08
5590.000000 2.36902000e+08
5610.000000 2.33911000e+08
5630.000000 2.30968000e+08
5650.000000 2.28073000e+08
5670.000000 2.25213000e+08
5690.000000 2.22388000e+08
5710.000000 2.19654000e+08
5730.000000 2.16930000e+08
5750.000000 2.14239000e+08
5770.000000 2.11613000e+08
5790.000000 2.09019000e+08
5810.000000 2.06455000e+08
5830.000000 2.03933000e+08
5850.000000 2.01462000e+08
5870.000000 1.93761000e+08
5890.000000 1.96498000e+08
5910.000000 1.94242000e+08
5930.000000 1.91906000e+08
5950.000000 1.89607000e+08
5970.000000 1.87345000e+08
5990.000000 1.85109000e+08
6010.000000 1.82909000e+08
6030.000000 1.80745000e+08
6050.000000 1.78615000e+08
6070.000000 1.76520000e+08
6090.000000 1.74448000e+08
6110.000000 1.72410000e+08
6130.000000 1.70394000e+08
6150.000000 1.68421000e+08
6170.000000 1.66470000e+08
6190.000000 1.64541000e+08
6210.000000 1.62652000e+08
6230.000000 1.60775000e+08
6250.000000 1.58938000e+08
6270.000000 1.57120000e+08
6290.000000 1.55332000e+08
6310.000000 1.53573000e+08
6330.000000 1.51834000e+08
6350.000000 1.50113000e+08
6370.000000 1.48429000e+08
6390.000000 1.46763000e+08
6410.000000 1.45115000e+08
6430.000000 1.43503000e+08
6450.000000 1.41899000e+08
6470.000000 1.40321000e+08
6490.000000 1.38769000e+08
6510.000000 1.37242000e+08
6530.000000 1.35448000e+08
6550.000000 1.30917000e+08
6570.000000 1.17309000e+08
6590.000000 1.30556000e+08
6610.000000 1.29870000e+08
6630.000000 1.28488000e+08
6650.000000 1.27188000e+08
6670.000000 1.24733000e+08
6690.000000 1.23416000e+08
6710.000000 1.23125000e+08
6730.000000 1.21803000e+08
6750.000000 1.20504000e+08
6770.000000 1.19217000e+08
6790.000000 1.17952000e+08
6810.000000 1.16708000e+08
6830.000000 1.15468000e+08
6850.000000 1.14257000e+08
6870.000000 1.13058000e+08
6890.000000 1.11871000e+08
6910.000000 1.10696000e+08
6930.000000 1.09540000e+08
6950.000000 1.08404000e+08
6970.000000 1.07278000e+08
6990.000000 1.06164000e+08
7010.000000 1.05076000e+08
7030.000000 1.03999000e+08
7050.000000 1.02925000e+08
7070.000000 1.00278000e+08
7090.000000 1.00837000e+08
7110.000000 9.98087000e+07
7130.000000 9.87901000e+07
7150.000000 9.77960000e+07
7170.000000 9.67822000e+07
7190.000000 9.58291000e+07
7210.000000 9.48634000e+07
7230.000000 9.38708000e+07
7250.000000 9.29738000e+07
7270.000000 9.20495000e+07
7290.000000 9.03967000e+07
7310.000000 9.02059000e+07
7330.000000 8.93287000e+07
7350.000000 8.84457000e+07
7370.000000 8.75779000e+07
7390.000000 8.67182000e+07
7410.000000 8.58665000e+07
7430.000000 8.50227000e+07
7450.000000 8.42071000e+07
7470.000000 8.33922000e+07
7490.000000 8.25781000e+07
7510.000000 8.17448000e+07
7530.000000 8.09922000e+07
7550.000000 8.02068000e+07
7570.000000 7.94351000e+07
7590.000000 7.86770000e+07
7610.000000 7.79257000e+07
7630.000000 7.71812000e+07
7650.000000 7.64435000e+07
7670.000000 7.57187000e+07
7690.000000 7.50005000e+07
7710.000000 7.42887000e+07
7730.000000 7.35895000e+07
7750.000000 7.28903000e+07
7770.000000 7.22098000e+07
7790.000000 7.15415000e+07
7810.000000 7.08111000e+07
7830.000000 7.02102000e+07
7850.000000 6.96389000e+07
7870.000000 6.89935000e+07
7890.000000 6.83113000e+07
7910.000000 6.77194000e+07
7930.000000 6.69709000e+07
7950.000000 6.63184000e+07
7970.000000 6.56598000e+07
7990.000000 6.50896000e+07
8010.000000 6.44655000e+07
8030.000000 6.38994000e+07
8050.000000 6.33614000e+07
8070.000000 6.28336000e+07
8090.000000 6.21262000e+07
8110.000000 6.16483000e+07
8130.000000 6.11858000e+07
8150.000000 6.05058000e+07
8170.000000 6.00971000e+07
8190.000000 5.94782000e+07
8210.000000 5.88422000e+07
8230.000000 5.85177000e+07
8250.000000 5.80073000e+07
8270.000000 5.71763000e+07
8290.000000 5.69062000e+07
8310.000000 5.64199000e+07
8330.000000 5.59104000e+07
8350.000000 5.51350000e+07
8370.000000 5.47911000e+07
8390.000000 5.43857000e+07
8410.000000 5.38823000e+07
8430.000000 5.33248000e+07
8450.000000 5.25672000e+07
8470.000000 5.21601000e+07
8490.000000 5.20166000e+07
8510.000000 5.10009000e+07
8530.000000 5.13331000e+07
8550.000000 4.93375000e+07
8570.000000 5.12711000e+07
8590.000000 4.86835000e+07
8610.000000 4.83900000e+07
8630.000000 5.05272000e+07
8650.000000 4.90079000e+07
8670.000000 4.51395000e+07
8690.000000 4.94099000e+07
8710.000000 4.95765000e+07
8730.000000 4.80377000e+07
8750.000000 4.30715000e+07
8770.000000 4.67345000e+07
8790.000000 4.80756000e+07
8810.000000 4.77090000e+07
8830.000000 4.72240000e+07
8850.000000 4.44625000e+07
8870.000000 4.10167000e+07
8890.000000 4.56921000e+07
8910.000000 4.57709000e+07
8930.000000 4.53937000e+07
8950.000000 4.51948000e+07
8970.000000 4.47383000e+07
8990.000000 4.36357000e+07
9010.000000 3.89908000e+07
9030.000000 4.10910000e+07
9050.000000 4.30797000e+07
9070.000000 4.25868000e+07
9090.000000 4.25140000e+07
9110.000000 4.23230000e+07
9130.000000 4.20094000e+07
9150.000000 4.16662000e+07
9170.000000 4.11850000e+07
9190.000000 4.08141000e+07
9210.000000 3.92345000e+07
9230.000000 3.48959000e+07
9250.000000 3.87898000e+07
9270.000000 3.94757000e+07
9290.000000 3.93268000e+07
9310.000000 3.88586000e+07
9330.000000 3.87307000e+07
9350.000000 3.83898000e+07
9370.000000 3.81149000e+07
9390.000000 3.78113000e+07
9410.000000 3.75100000e+07
9430.000000 3.72125000e+07
9450.000000 3.69176000e+07
9470.000000 3.63976000e+07
9490.000000 3.62967000e+07
9510.000000 3.55672000e+07
9530.000000 3.42575000e+07
9550.000000 3.07654000e+07
9570.000000 3.44415000e+07
9590.000000 3.47813000e+07
9610.000000 3.45172000e+07
9630.000000 3.42143000e+07
9650.000000 3.41248000e+07
9670.000000 3.38601000e+07
9690.000000 3.35632000e+07
9710.000000 3.32321000e+07
9730.000000 3.30821000e+07
9750.000000 3.28276000e+07
9770.000000 3.25757000e+07
9790.000000 3.23260000e+07
9810.000000 3.20789000e+07
9830.000000 3.18339000e+07
9850.000000 3.15913000e+07
9870.000000 3.13513000e+07
9890.000000 3.11133000e+07
9910.000000 3.08739000e+07
9930.000000 3.06442000e+07
9950.000000 3.04127000e+07
9970.000000 3.01836000e+07
9990.000000 2.99375000e+07
10025.000000 2.85473000e+07
10075.000000 2.76385000e+07
10125.000000 2.84055000e+07
10175.000000 2.79560000e+07
10225.000000 2.74303000e+07
10275.000000 2.69442000e+07
10325.000000 2.63594000e+07
10375.000000 2.59779000e+07
10425.000000 2.55109000e+07
10475.000000 2.50544000e+07
10525.000000 2.46077000e+07
10575.000000 2.41715000e+07
10625.000000 2.37446000e+07
10675.000000 2.32810000e+07
10725.000000 2.29190000e+07
10775.000000 2.25196000e+07
10825.000000 2.18809000e+07
10875.000000 2.17133000e+07
10925.000000 1.99106000e+07
10975.000000 2.06776000e+07
11025.000000 2.05230000e+07
11075.000000 2.02875000e+07
11125.000000 1.99546000e+07
11175.000000 1.96186000e+07
11225.000000 1.92777000e+07
11275.000000 1.89675000e+07
11325.000000 1.86524000e+07
11375.000000 1.83435000e+07
11425.000000 1.80410000e+07
11475.000000 1.77448000e+07
11525.000000 1.74547000e+07
11575.000000 1.71704000e+07
11625.000000 1.68920000e+07
11675.000000 1.66191000e+07
11725.000000 1.63519000e+07
11775.000000 1.60899000e+07
11825.000000 1.58332000e+07
11875.000000 1.55815000e+07
11925.000000 1.53348000e+07
11975.000000 1.49709000e+07
12025.000000 1.48560000e+07
12075.000000 1.46237000e+07
12125.000000 1.43957000e+07
12175.000000 1.41722000e+07
12225.000000 1.39532000e+07
12275.000000 1.37382000e+07
12325.000000 1.35275000e+07
12375.000000 1.33208000e+07
12425.000000 1.31179000e+07
12475.000000 1.29190000e+07
12525.000000 1.26979000e+07
12575.000000 1.25323000e+07
12625.000000 1.23444000e+07
12675.000000 1.21600000e+07
12725.000000 1.19788000e+07
12775.000000 1.16310000e+07
12825.000000 1.08577000e+07
12875.000000 1.14095000e+07
12925.000000 1.12880000e+07
12975.000000 1.10537000e+07
13025.000000 1.09612000e+07
13075.000000 1.08024000e+07
