# Kurucz ODFNEW /NOVER, alpha: 0.0 (2003)
# teff = 8750 K (value for the effective temperature for the model. Temperatures are given in K)
# logg = 4 log(cm/s2) (value for Log(G) for the model.)
# lh = 1.25  (l/Hp where l is the  mixing length of the convective element and Hp is the pressure scale height)
# meta = -2.5  (value for the Metallicity for the model.)
# vtur = 2 km/s (Microturbulence velocity)
# alpha = 0  (Alpha)
#
# column 1: WAVELENGTH (ANGSTROM), Wavelength in Angstrom
# column 2: FLUX (ERG/CM2/S/A), Flux in erg/cm2/s/A
268.500000 3.57006000e-23
273.500000 1.90283000e-22
278.500000 8.12062000e-22
284.000000 3.68756000e-21
290.000000 1.79388000e-20
296.000000 8.16528000e-20
301.000000 2.75604000e-19
308.000000 1.41357000e-18
318.000000 1.28631000e-17
328.000000 1.01925000e-16
338.000000 7.11850000e-16
348.000000 4.43288000e-15
357.000000 2.10012000e-14
366.000000 9.19550000e-14
375.000000 3.74278000e-13
385.000000 1.64361000e-12
395.000000 6.67742000e-12
405.000000 2.52416000e-11
414.000000 7.89062000e-11
422.000000 2.08248000e-10
430.000000 5.29255000e-10
441.000000 1.80241000e-09
451.000000 5.19917000e-09
460.000000 1.29455000e-08
470.000000 3.41751000e-08
480.000000 8.64483000e-08
490.000000 2.10159000e-07
500.000000 4.91994000e-07
506.000000 8.66312000e-07
512.000000 1.44976000e-06
520.000000 2.69883000e-06
530.000000 5.72162000e-06
540.000000 1.17178000e-05
550.000000 2.34357000e-05
560.000000 4.55715000e-05
570.000000 8.64414000e-05
580.000000 1.59718000e-04
590.000000 2.90258000e-04
600.000000 5.14989000e-04
610.000000 8.95575000e-04
620.000000 1.52779000e-03
630.000000 2.55946000e-03
640.000000 4.21411000e-03
650.000000 6.82634000e-03
658.000000 9.92804000e-03
665.000000 1.36687000e-02
675.000000 2.13168000e-02
685.000000 3.27806000e-02
695.000000 4.97421000e-02
705.000000 7.45205000e-02
716.000000 1.14601000e-01
726.000000 1.67402000e-01
735.000000 2.33259000e-01
745.000000 3.33808000e-01
755.000000 4.72775000e-01
765.000000 6.62982000e-01
775.000000 9.20835000e-01
785.000000 1.26733000e+00
795.000000 1.72889000e+00
805.000000 2.33877000e+00
815.000000 3.13782000e+00
825.000000 4.17824000e+00
835.000000 5.52214000e+00
845.000000 7.24519000e+00
855.000000 9.43904000e+00
865.000000 1.22143000e+01
875.000000 1.57029000e+01
885.000000 2.00615000e+01
895.000000 2.54729000e+01
905.000000 3.21530000e+01
915.000000 6.34778000e+01
925.000000 2.17084000e+02
935.000000 3.66049000e+02
945.000000 6.86194000e+02
955.000000 1.08641000e+03
965.000000 1.46812000e+03
975.000000 1.03013000e+03
985.000000 2.90430000e+03
995.000000 4.21165000e+03
1005.000000 4.46618000e+03
1015.000000 3.32298000e+03
1025.000000 1.96798000e+03
1035.000000 4.51488000e+03
1045.000000 8.41067000e+03
1055.000000 1.33328000e+04
1065.000000 5.08882000e+04
1075.000000 1.85945000e+05
1085.000000 4.42292000e+05
1095.000000 5.56128000e+05
1105.000000 1.02051000e+06
1115.000000 1.97185000e+06
1125.000000 1.65584000e+06
1135.000000 1.51572000e+06
1145.000000 7.43157000e+05
1155.000000 2.32043000e+05
1165.000000 6.31479000e+04
1175.000000 3.54484000e+04
1185.000000 4.30621000e+04
1195.000000 2.44435000e+04
1205.000000 1.80728000e+04
1215.000000 9.41399000e+03
1225.000000 2.04180000e+04
1235.000000 3.57186000e+04
1245.000000 4.11017000e+04
1255.000000 6.35120000e+04
1265.000000 9.91907000e+04
1275.000000 2.58395000e+05
1285.000000 1.35303000e+06
1295.000000 2.67818000e+06
1305.000000 5.06465000e+06
1315.000000 7.16630000e+06
1325.000000 1.02007000e+07
1335.000000 1.28232000e+07
1345.000000 1.60340000e+07
1355.000000 1.73195000e+07
1365.000000 1.93740000e+07
1375.000000 1.77239000e+07
1385.000000 1.49706000e+07
1395.000000 1.34564000e+07
1405.000000 2.18134000e+07
1415.000000 3.36121000e+07
1425.000000 3.60547000e+07
1435.000000 3.59601000e+07
1442.000000 3.97517000e+07
1447.000000 3.79841000e+07
1455.000000 4.11354000e+07
1465.000000 3.85818000e+07
1475.000000 4.04188000e+07
1485.000000 4.06758000e+07
1495.000000 4.13252000e+07
1505.000000 4.26872000e+07
1512.000000 4.28581000e+07
1517.000000 4.08506000e+07
1525.000000 4.16121000e+07
1535.000000 4.05185000e+07
1545.000000 3.91293000e+07
1555.000000 3.71911000e+07
1565.000000 3.20029000e+07
1575.000000 3.26746000e+07
1585.000000 3.14238000e+07
1595.000000 3.09955000e+07
1605.000000 2.98470000e+07
1615.000000 3.51420000e+07
1625.000000 3.90365000e+07
1635.000000 4.46048000e+07
1645.000000 5.01215000e+07
1655.000000 4.73019000e+07
1665.000000 5.44297000e+07
1672.000000 5.22635000e+07
1677.000000 5.36576000e+07
1685.000000 5.57579000e+07
1695.000000 5.42627000e+07
1705.000000 5.41620000e+07
1715.000000 5.58211000e+07
1725.000000 5.50593000e+07
1735.000000 5.62912000e+07
1745.000000 5.50899000e+07
1755.000000 5.58436000e+07
1765.000000 5.39126000e+07
1775.000000 5.51805000e+07
1785.000000 5.44564000e+07
1795.000000 5.53783000e+07
1805.000000 5.43675000e+07
1815.000000 5.39953000e+07
1825.000000 5.32446000e+07
1835.000000 5.34088000e+07
1845.000000 5.19504000e+07
1855.000000 5.27133000e+07
1865.000000 5.27907000e+07
1875.000000 5.27327000e+07
1885.000000 5.25628000e+07
1895.000000 5.25183000e+07
1905.000000 5.17680000e+07
1915.000000 5.18112000e+07
1925.000000 5.19748000e+07
1935.000000 5.08333000e+07
1945.000000 5.17957000e+07
1955.000000 5.15245000e+07
1967.000000 5.13631000e+07
1976.000000 5.05924000e+07
1984.000000 5.03718000e+07
1995.000000 5.03934000e+07
2005.000000 4.95546000e+07
2015.000000 4.88422000e+07
2025.000000 4.86284000e+07
2035.000000 4.92715000e+07
2045.000000 4.90367000e+07
2055.000000 4.79897000e+07
2065.000000 4.79748000e+07
2074.000000 4.87496000e+07
2078.000000 4.87043000e+07
2085.000000 4.84636000e+07
2095.000000 4.81402000e+07
2105.000000 4.79764000e+07
2115.000000 4.77310000e+07
2125.000000 4.73520000e+07
2135.000000 4.67178000e+07
2145.000000 4.73247000e+07
2155.000000 4.69230000e+07
2165.000000 4.59207000e+07
2175.000000 4.59541000e+07
2185.000000 4.60631000e+07
2195.000000 4.66703000e+07
2205.000000 4.57334000e+07
2215.000000 4.44514000e+07
2225.000000 4.45771000e+07
2235.000000 4.58179000e+07
2245.000000 4.50735000e+07
2255.000000 4.40753000e+07
2265.000000 4.35533000e+07
2275.000000 4.45171000e+07
2285.000000 4.45944000e+07
2295.000000 4.39191000e+07
2305.000000 4.40671000e+07
2315.000000 4.37182000e+07
2325.000000 4.36879000e+07
2335.000000 4.31424000e+07
2345.000000 4.13921000e+07
2355.000000 4.29222000e+07
2365.000000 4.14507000e+07
2375.000000 4.22839000e+07
2385.000000 4.02544000e+07
2395.000000 4.17875000e+07
2405.000000 4.15097000e+07
2415.000000 4.14832000e+07
2425.000000 4.22988000e+07
2435.000000 4.15340000e+07
2445.000000 4.18169000e+07
2455.000000 4.18614000e+07
2465.000000 4.10140000e+07
2475.000000 4.07693000e+07
2485.000000 4.09482000e+07
2495.000000 4.04167000e+07
2505.000000 4.13854000e+07
2513.000000 4.04829000e+07
2518.000000 4.04345000e+07
2525.000000 3.96694000e+07
2535.000000 3.94432000e+07
2545.000000 3.96149000e+07
2555.000000 4.06414000e+07
2565.000000 4.02197000e+07
2575.000000 4.06818000e+07
2585.000000 4.07865000e+07
2595.000000 4.04258000e+07
2605.000000 3.99606000e+07
2615.000000 3.96947000e+07
2625.000000 3.96782000e+07
2635.000000 3.98611000e+07
2645.000000 4.11412000e+07
2655.000000 4.09602000e+07
2665.000000 4.02327000e+07
2675.000000 4.04216000e+07
2685.000000 4.06483000e+07
2695.000000 4.02798000e+07
2705.000000 4.02502000e+07
2715.000000 3.96006000e+07
2725.000000 3.95550000e+07
2735.000000 3.97856000e+07
2745.000000 3.82923000e+07
2755.000000 3.83806000e+07
2765.000000 3.90215000e+07
2775.000000 3.96796000e+07
2785.000000 3.94457000e+07
2795.000000 3.74838000e+07
2805.000000 3.86122000e+07
2815.000000 3.96301000e+07
2825.000000 3.94756000e+07
2835.000000 3.90064000e+07
2845.000000 3.89072000e+07
2855.000000 3.83827000e+07
2865.000000 3.86045000e+07
2875.000000 3.86550000e+07
2885.000000 3.86537000e+07
2895.000000 3.88393000e+07
2910.000000 3.88999000e+07
2930.000000 3.83514000e+07
2950.000000 3.81392000e+07
2970.000000 3.81761000e+07
2990.000000 3.79696000e+07
3010.000000 3.80289000e+07
3030.000000 3.78978000e+07
3050.000000 3.77341000e+07
3070.000000 3.75107000e+07
3090.000000 3.74350000e+07
3110.000000 3.72702000e+07
3130.000000 3.70508000e+07
3150.000000 3.69087000e+07
3170.000000 3.68111000e+07
3190.000000 3.63983000e+07
3210.000000 3.64291000e+07
3230.000000 3.61531000e+07
3250.000000 3.61625000e+07
3270.000000 3.60914000e+07
3290.000000 3.59637000e+07
3310.000000 3.58261000e+07
3330.000000 3.56179000e+07
3350.000000 3.53584000e+07
3370.000000 3.52285000e+07
3390.000000 3.51156000e+07
3410.000000 3.50516000e+07
3430.000000 3.48906000e+07
3450.000000 3.47468000e+07
3470.000000 3.45914000e+07
3490.000000 3.44528000e+07
3510.000000 3.43243000e+07
3530.000000 3.41813000e+07
3550.000000 3.40364000e+07
3570.000000 3.38601000e+07
3590.000000 3.37148000e+07
3610.000000 3.35677000e+07
3630.000000 3.34219000e+07
3640.000000 3.33465000e+07
3650.000000 3.34497000e+07
3670.000000 3.33266000e+07
3690.000000 3.21280000e+07
3710.000000 3.33810000e+07
3730.000000 3.46730000e+07
3750.000000 4.39886000e+07
3770.000000 4.68152000e+07
3790.000000 5.66454000e+07
3810.000000 6.71755000e+07
3830.000000 5.38222000e+07
3850.000000 7.57246000e+07
3870.000000 8.70330000e+07
3890.000000 4.64336000e+07
3910.000000 8.73584000e+07
3930.000000 9.71161000e+07
3950.000000 8.68222000e+07
3970.000000 4.49707000e+07
3990.000000 8.18932000e+07
4010.000000 9.63348000e+07
4030.000000 9.75476000e+07
4050.000000 9.59021000e+07
4070.000000 9.00699000e+07
4090.000000 6.50557000e+07
4110.000000 4.92520000e+07
4130.000000 8.38431000e+07
4150.000000 8.98748000e+07
4170.000000 9.03688000e+07
4190.000000 8.97313000e+07
4210.000000 8.87554000e+07
4230.000000 8.75770000e+07
4250.000000 8.63751000e+07
4270.000000 8.48405000e+07
4290.000000 8.25570000e+07
4310.000000 7.68036000e+07
4330.000000 5.41899000e+07
4350.000000 4.59601000e+07
4370.000000 7.26417000e+07
4390.000000 7.73609000e+07
4410.000000 7.78579000e+07
4430.000000 7.74348000e+07
4450.000000 7.67290000e+07
4470.000000 7.58704000e+07
4490.000000 7.50316000e+07
4510.000000 7.43083000e+07
4530.000000 7.34241000e+07
4550.000000 7.25253000e+07
4570.000000 7.17241000e+07
4590.000000 7.08698000e+07
4610.000000 7.00736000e+07
4630.000000 6.92358000e+07
4650.000000 6.84551000e+07
4670.000000 6.76627000e+07
4690.000000 6.68368000e+07
4710.000000 6.58815000e+07
4730.000000 6.51538000e+07
4750.000000 6.43141000e+07
4770.000000 6.33984000e+07
4790.000000 6.22888000e+07
4810.000000 6.05881000e+07
4830.000000 5.66300000e+07
4850.000000 4.27683000e+07
4870.000000 3.47408000e+07
4890.000000 5.30242000e+07
4910.000000 5.68983000e+07
4930.000000 5.74497000e+07
4950.000000 5.72862000e+07
4970.000000 5.68581000e+07
4990.000000 5.63307000e+07
5010.000000 5.57497000e+07
5030.000000 5.52834000e+07
5050.000000 5.46839000e+07
5070.000000 5.41068000e+07
5090.000000 5.35297000e+07
5110.000000 5.29572000e+07
5130.000000 5.23890000e+07
5150.000000 5.18323000e+07
5170.000000 5.11995000e+07
5190.000000 5.07064000e+07
5210.000000 5.02082000e+07
5230.000000 4.96679000e+07
5250.000000 4.91672000e+07
5270.000000 4.86374000e+07
5290.000000 4.81478000e+07
5310.000000 4.76428000e+07
5330.000000 4.71507000e+07
5350.000000 4.66738000e+07
5370.000000 4.61896000e+07
5390.000000 4.57204000e+07
5410.000000 4.52504000e+07
5430.000000 4.47937000e+07
5450.000000 4.43400000e+07
5470.000000 4.38929000e+07
5490.000000 4.34525000e+07
5510.000000 4.30172000e+07
5530.000000 4.25835000e+07
5550.000000 4.21609000e+07
5570.000000 4.17409000e+07
5590.000000 4.13246000e+07
5610.000000 4.09168000e+07
5630.000000 4.05137000e+07
5650.000000 4.01152000e+07
5670.000000 3.97214000e+07
5690.000000 3.93333000e+07
5710.000000 3.89496000e+07
5730.000000 3.85703000e+07
5750.000000 3.81965000e+07
5770.000000 3.78269000e+07
5790.000000 3.74616000e+07
5810.000000 3.71014000e+07
5830.000000 3.67453000e+07
5850.000000 3.63943000e+07
5870.000000 3.60363000e+07
5890.000000 3.56889000e+07
5910.000000 3.53657000e+07
5930.000000 3.50312000e+07
5950.000000 3.47003000e+07
5970.000000 3.43741000e+07
5990.000000 3.40515000e+07
6010.000000 3.37324000e+07
6030.000000 3.34178000e+07
6050.000000 3.31067000e+07
6070.000000 3.27999000e+07
6090.000000 3.24965000e+07
6110.000000 3.21963000e+07
6130.000000 3.18993000e+07
6150.000000 3.16045000e+07
6170.000000 3.13168000e+07
6190.000000 3.10312000e+07
6210.000000 3.07486000e+07
6230.000000 3.04690000e+07
6250.000000 3.01914000e+07
6270.000000 2.99205000e+07
6290.000000 2.96506000e+07
6310.000000 2.93834000e+07
6330.000000 2.91200000e+07
6350.000000 2.88556000e+07
6370.000000 2.85985000e+07
6390.000000 2.83460000e+07
6410.000000 2.80713000e+07
6430.000000 2.77739000e+07
6450.000000 2.74924000e+07
6470.000000 2.71931000e+07
6490.000000 2.68352000e+07
6510.000000 2.63203000e+07
6530.000000 2.52467000e+07
6550.000000 2.16216000e+07
6570.000000 1.75165000e+07
6590.000000 2.36822000e+07
6610.000000 2.49618000e+07
6630.000000 2.51653000e+07
6650.000000 2.51037000e+07
6670.000000 2.49576000e+07
6690.000000 2.47799000e+07
6710.000000 2.46107000e+07
6730.000000 2.44255000e+07
6750.000000 2.42173000e+07
6770.000000 2.40112000e+07
6790.000000 2.38070000e+07
6810.000000 2.36057000e+07
6830.000000 2.34054000e+07
6850.000000 2.32087000e+07
6870.000000 2.30131000e+07
6890.000000 2.28194000e+07
6910.000000 2.26283000e+07
6930.000000 2.24391000e+07
6950.000000 2.22524000e+07
6970.000000 2.20675000e+07
6990.000000 2.18843000e+07
7010.000000 2.17029000e+07
7030.000000 2.15232000e+07
7050.000000 2.13459000e+07
7070.000000 2.11695000e+07
7090.000000 2.09963000e+07
7110.000000 2.08217000e+07
7130.000000 2.06539000e+07
7150.000000 2.04855000e+07
7170.000000 2.03186000e+07
7190.000000 2.01533000e+07
7210.000000 1.99902000e+07
7230.000000 1.98285000e+07
7250.000000 1.96684000e+07
7270.000000 1.95097000e+07
7290.000000 1.93525000e+07
7310.000000 1.91974000e+07
7330.000000 1.90437000e+07
7350.000000 1.88921000e+07
7370.000000 1.87411000e+07
7390.000000 1.85922000e+07
7410.000000 1.84447000e+07
7430.000000 1.82984000e+07
7450.000000 1.81535000e+07
7470.000000 1.80098000e+07
7490.000000 1.78681000e+07
7510.000000 1.77276000e+07
7530.000000 1.75891000e+07
7550.000000 1.74511000e+07
7570.000000 1.73149000e+07
7590.000000 1.71800000e+07
7610.000000 1.70462000e+07
7630.000000 1.69136000e+07
7650.000000 1.67828000e+07
7670.000000 1.66531000e+07
7690.000000 1.65246000e+07
7710.000000 1.63971000e+07
7730.000000 1.62714000e+07
7750.000000 1.61461000e+07
7770.000000 1.60057000e+07
7790.000000 1.59000000e+07
7810.000000 1.57792000e+07
7830.000000 1.56587000e+07
7850.000000 1.55399000e+07
7870.000000 1.54215000e+07
7890.000000 1.53041000e+07
7910.000000 1.51895000e+07
7930.000000 1.50752000e+07
7950.000000 1.49619000e+07
7970.000000 1.48495000e+07
7990.000000 1.47375000e+07
8010.000000 1.46282000e+07
8030.000000 1.45186000e+07
8050.000000 1.44105000e+07
8070.000000 1.43033000e+07
8090.000000 1.41970000e+07
8110.000000 1.40921000e+07
8130.000000 1.39881000e+07
8150.000000 1.38844000e+07
8170.000000 1.37820000e+07
8190.000000 1.36794000e+07
8210.000000 1.36067000e+07
8230.000000 1.35140000e+07
8250.000000 1.34236000e+07
8270.000000 1.33362000e+07
8290.000000 1.32472000e+07
8310.000000 1.31579000e+07
8330.000000 1.30644000e+07
8350.000000 1.29727000e+07
8370.000000 1.28710000e+07
8390.000000 1.27637000e+07
8410.000000 1.26498000e+07
8430.000000 1.25543000e+07
8450.000000 1.24754000e+07
8470.000000 1.21924000e+07
8490.000000 1.23493000e+07
8510.000000 1.18398000e+07
8530.000000 1.22731000e+07
8550.000000 1.12680000e+07
8570.000000 1.23055000e+07
8590.000000 1.14666000e+07
8610.000000 1.11847000e+07
8630.000000 1.23368000e+07
8650.000000 1.18025000e+07
8670.000000 9.94235000e+06
8690.000000 1.20483000e+07
8710.000000 1.24176000e+07
8730.000000 1.18788000e+07
8750.000000 9.40956000e+06
8770.000000 1.12647000e+07
8790.000000 1.22755000e+07
8810.000000 1.24043000e+07
8830.000000 1.20597000e+07
8850.000000 1.06594000e+07
8870.000000 9.03267000e+06
8890.000000 1.13697000e+07
8910.000000 1.20125000e+07
8930.000000 1.21426000e+07
8950.000000 1.20705000e+07
8970.000000 1.18018000e+07
8990.000000 1.11024000e+07
9010.000000 8.83628000e+06
9030.000000 9.64729000e+06
9050.000000 1.11189000e+07
9070.000000 1.14935000e+07
9090.000000 1.15648000e+07
9110.000000 1.15590000e+07
9130.000000 1.14903000e+07
9150.000000 1.13758000e+07
9170.000000 1.11909000e+07
9190.000000 1.08323000e+07
9210.000000 9.93874000e+06
9230.000000 7.79921000e+06
9250.000000 9.57118000e+06
9270.000000 1.04707000e+07
9290.000000 1.07234000e+07
9310.000000 1.07730000e+07
9330.000000 1.07524000e+07
9350.000000 1.07030000e+07
9370.000000 1.06406000e+07
9390.000000 1.05701000e+07
9410.000000 1.04823000e+07
9430.000000 1.04103000e+07
9450.000000 1.03140000e+07
9470.000000 1.01907000e+07
9490.000000 1.00030000e+07
9510.000000 9.63900000e+06
9530.000000 8.71629000e+06
9550.000000 7.04655000e+06
9570.000000 8.79537000e+06
9590.000000 9.44936000e+06
9610.000000 9.63443000e+06
9630.000000 9.66717000e+06
9650.000000 9.65060000e+06
9670.000000 9.60508000e+06
9690.000000 9.55785000e+06
9710.000000 9.50213000e+06
9730.000000 9.44680000e+06
9750.000000 9.39778000e+06
9770.000000 9.33724000e+06
9790.000000 9.27515000e+06
9810.000000 9.21388000e+06
9830.000000 9.15264000e+06
9850.000000 9.08872000e+06
9870.000000 9.01287000e+06
9890.000000 8.94756000e+06
9910.000000 8.88195000e+06
9930.000000 8.81067000e+06
9950.000000 8.73039000e+06
9970.000000 8.63135000e+06
9990.000000 8.48546000e+06
10025.000000 7.60464000e+06
10075.000000 7.23318000e+06
10125.000000 8.16441000e+06
10175.000000 8.13786000e+06
10225.000000 8.03540000e+06
10275.000000 7.91885000e+06
10325.000000 7.79358000e+06
10375.000000 7.67104000e+06
10425.000000 7.55049000e+06
10475.000000 7.43189000e+06
10525.000000 7.31655000e+06
10575.000000 7.20306000e+06
10625.000000 7.09171000e+06
10675.000000 6.97287000e+06
10725.000000 6.87100000e+06
10775.000000 6.74994000e+06
10825.000000 6.61893000e+06
10875.000000 6.39575000e+06
10925.000000 5.35129000e+06
10975.000000 5.83591000e+06
11025.000000 6.18044000e+06
11075.000000 6.15087000e+06
11125.000000 6.07866000e+06
11175.000000 5.99814000e+06
11225.000000 5.90984000e+06
11275.000000 5.82168000e+06
11325.000000 5.73602000e+06
11375.000000 5.65339000e+06
11425.000000 5.57111000e+06
11475.000000 5.49034000e+06
11525.000000 5.41075000e+06
11575.000000 5.33290000e+06
11625.000000 5.25590000e+06
11675.000000 5.17975000e+06
11725.000000 5.10716000e+06
11775.000000 5.03101000e+06
11825.000000 4.96242000e+06
11875.000000 4.89240000e+06
11925.000000 4.82417000e+06
11975.000000 4.75586000e+06
12025.000000 4.69008000e+06
12075.000000 4.62445000e+06
12125.000000 4.56050000e+06
12175.000000 4.49745000e+06
12225.000000 4.43528000e+06
12275.000000 4.37422000e+06
12325.000000 4.31450000e+06
12375.000000 4.25559000e+06
12425.000000 4.19750000e+06
12475.000000 4.14068000e+06
12525.000000 4.08463000e+06
12575.000000 4.02863000e+06
12625.000000 3.96747000e+06
12675.000000 3.90411000e+06
12725.000000 3.82300000e+06
12775.000000 3.62739000e+06
12825.000000 3.09802000e+06
12875.000000 3.57217000e+06
12925.000000 3.63186000e+06
12975.000000 3.60616000e+06
13025.000000 3.56920000e+06
13075.000000 3.52631000e+06
13125.000000 3.48047000e+06
13175.000000 3.43522000e+06
13225.000000 3.39077000e+06
13275.000000 3.34710000e+06
13325.000000 3.30400000e+06
13375.000000 3.26165000e+06
13425.000000 3.21984000e+06
13475.000000 3.17877000e+06
13525.000000 3.13842000e+06
13575.000000 3.09858000e+06
13625.000000 3.05944000e+06
13675.000000 3.02100000e+06
13725.000000 2.98283000e+06
13775.000000 2.94553000e+06
13825.000000 2.90889000e+06
13875.000000 2.87270000e+06
13925.000000 2.83695000e+06
13975.000000 2.80183000e+06
14025.000000 2.76714000e+06
14075.000000 2.73306000e+06
14125.000000 2.69959000e+06
14175.000000 2.66652000e+06
14225.000000 2.63403000e+06
14275.000000 2.60193000e+06
14325.000000 2.57021000e+06
14375.000000 2.53923000e+06
14425.000000 2.50772000e+06
14475.000000 2.47838000e+06
