# Kurucz ODFNEW /NOVER, alpha: 0.0 (2003)
# teff = 8250 K (value for the effective temperature for the model. Temperatures are given in K)
# logg = 3.5 log(cm/s2) (value for Log(G) for the model.)
# lh = 1.25  (l/Hp where l is the  mixing length of the convective element and Hp is the pressure scale height)
# meta = 0.5  (value for the Metallicity for the model.)
# vtur = 2 km/s (Microturbulence velocity)
# alpha = 0  (Alpha)
#
# column 1: WAVELENGTH (ANGSTROM), Wavelength in Angstrom
# column 2: FLUX (ERG/CM2/S/A), Flux in erg/cm2/s/A
338.000000 3.36288000e-23
348.000000 3.98990000e-22
357.000000 2.90121000e-21
366.000000 1.89661000e-20
375.000000 1.12910000e-19
385.000000 7.40675000e-19
395.000000 4.40268000e-18
405.000000 2.38911000e-17
414.000000 1.01820000e-16
422.000000 3.50024000e-16
430.000000 7.29498000e-17
441.000000 3.16832000e-16
451.000000 1.12583000e-15
460.000000 3.35086000e-15
470.000000 1.06823000e-14
480.000000 3.23294000e-14
490.000000 9.32142000e-14
500.000000 2.56508000e-13
506.000000 6.10098000e-13
512.000000 1.22015000e-12
520.000000 2.55045000e-12
530.000000 6.23823000e-12
540.000000 1.44374000e-11
550.000000 3.28907000e-11
560.000000 7.20939000e-11
570.000000 1.53115000e-10
580.000000 3.12000000e-10
590.000000 6.34001000e-10
600.000000 1.23996000e-09
610.000000 2.37397000e-09
620.000000 4.42902000e-09
630.000000 8.08597000e-09
640.000000 1.44447000e-08
650.000000 2.53537000e-08
658.000000 3.91866000e-08
665.000000 5.66076000e-08
675.000000 9.49131000e-08
685.000000 1.56400000e-07
695.000000 2.53659000e-07
705.000000 4.01109000e-07
716.000000 6.64569000e-07
726.000000 1.02860000e-06
735.000000 1.50580000e-06
745.000000 2.26903000e-06
755.000000 3.38110000e-06
765.000000 4.98276000e-06
775.000000 7.25767000e-06
785.000000 1.04792000e-05
795.000000 1.47276000e-05
805.000000 2.08740000e-05
815.000000 2.93937000e-05
825.000000 4.07114000e-05
835.000000 5.58536000e-05
845.000000 7.60239000e-05
855.000000 1.02579000e-04
865.000000 1.37284000e-04
875.000000 1.80933000e-04
885.000000 2.40047000e-04
895.000000 3.14134000e-04
905.000000 4.03962000e-04
915.000000 1.14968000e-01
925.000000 3.33657000e-01
935.000000 4.32696000e-01
945.000000 5.70014000e-01
955.000000 7.79462000e-01
965.000000 1.01025000e+00
975.000000 1.26359000e+00
985.000000 1.59219000e+00
995.000000 1.95266000e+00
1005.000000 2.58725000e+00
1015.000000 3.24326000e+00
1025.000000 3.89486000e+00
1035.000000 4.93690000e+00
1045.000000 6.11757000e+00
1055.000000 7.51783000e+00
1065.000000 9.04038000e+00
1075.000000 1.11507000e+01
1085.000000 1.35840000e+01
1095.000000 1.61456000e+01
1105.000000 4.41452000e+01
1115.000000 1.34037000e+02
1125.000000 1.93448000e+02
1135.000000 2.68127000e+02
1145.000000 3.34625000e+02
1155.000000 3.70284000e+02
1165.000000 5.03573000e+02
1175.000000 6.00366000e+02
1185.000000 6.36447000e+02
1195.000000 3.86695000e+02
1205.000000 4.86030000e+02
1215.000000 1.29630000e+02
1225.000000 5.72189000e+02
1235.000000 1.09986000e+03
1245.000000 2.62637000e+03
1255.000000 6.92932000e+03
1265.000000 5.76409000e+03
1275.000000 9.65285000e+03
1285.000000 1.32567000e+04
1295.000000 1.56229000e+04
1305.000000 1.13743000e+04
1315.000000 1.84449000e+04
1325.000000 2.16558000e+04
1335.000000 2.28525000e+04
1345.000000 2.87760000e+04
1355.000000 2.89438000e+04
1365.000000 3.08828000e+04
1375.000000 3.34700000e+04
1385.000000 3.61622000e+04
1395.000000 4.13352000e+04
1405.000000 4.59875000e+04
1415.000000 4.59720000e+04
1425.000000 5.20617000e+04
1435.000000 5.18692000e+04
1442.000000 5.98513000e+04
1447.000000 6.48055000e+04
1455.000000 7.25476000e+04
1465.000000 7.25611000e+04
1475.000000 7.90125000e+04
1485.000000 8.74709000e+04
1495.000000 9.86076000e+04
1505.000000 1.07797000e+05
1512.000000 1.07399000e+05
1517.000000 1.16896000e+05
1525.000000 1.32678000e+05
1535.000000 2.38231000e+05
1545.000000 7.63646000e+05
1555.000000 6.94839000e+05
1565.000000 6.69560000e+05
1575.000000 1.37464000e+06
1585.000000 2.14711000e+06
1595.000000 2.88690000e+06
1605.000000 2.66501000e+06
1615.000000 2.41834000e+06
1625.000000 1.81329000e+06
1635.000000 2.25694000e+06
1645.000000 3.97581000e+06
1655.000000 1.86121000e+06
1665.000000 3.48773000e+06
1672.000000 1.17379000e+06
1677.000000 5.20514000e+06
1685.000000 8.18071000e+06
1695.000000 6.61690000e+06
1705.000000 7.90918000e+06
1715.000000 1.24904000e+07
1725.000000 1.30555000e+07
1735.000000 1.73883000e+07
1745.000000 1.54773000e+07
1755.000000 2.08190000e+07
1765.000000 1.30050000e+07
1775.000000 1.90934000e+07
1785.000000 1.71101000e+07
1795.000000 2.48859000e+07
1805.000000 1.97891000e+07
1815.000000 2.19195000e+07
1825.000000 1.85875000e+07
1835.000000 1.62496000e+07
1845.000000 1.44980000e+07
1855.000000 1.77733000e+07
1865.000000 2.08964000e+07
1875.000000 1.91289000e+07
1885.000000 1.97789000e+07
1895.000000 2.22700000e+07
1905.000000 1.95952000e+07
1915.000000 2.10091000e+07
1925.000000 1.99028000e+07
1935.000000 1.24895000e+07
1945.000000 2.24333000e+07
1955.000000 2.28885000e+07
1967.000000 2.60900000e+07
1976.000000 2.54129000e+07
1984.000000 2.38369000e+07
1995.000000 2.34659000e+07
2005.000000 2.13188000e+07
2015.000000 1.95016000e+07
2025.000000 1.87270000e+07
2035.000000 2.19530000e+07
2045.000000 2.46242000e+07
2055.000000 2.20470000e+07
2065.000000 2.09549000e+07
2074.000000 2.59767000e+07
2078.000000 2.85709000e+07
2085.000000 2.68966000e+07
2095.000000 2.44937000e+07
2105.000000 2.21955000e+07
2115.000000 2.29538000e+07
2125.000000 2.40514000e+07
2135.000000 1.79066000e+07
2145.000000 2.25046000e+07
2155.000000 2.31561000e+07
2165.000000 2.03402000e+07
2175.000000 2.04379000e+07
2185.000000 2.17868000e+07
2195.000000 2.39337000e+07
2205.000000 2.22573000e+07
2215.000000 1.83380000e+07
2225.000000 1.75770000e+07
2235.000000 2.24708000e+07
2245.000000 2.00256000e+07
2255.000000 1.69405000e+07
2265.000000 1.74338000e+07
2275.000000 1.97310000e+07
2285.000000 2.11850000e+07
2295.000000 1.86161000e+07
2305.000000 1.95568000e+07
2315.000000 1.79633000e+07
2325.000000 1.70976000e+07
2335.000000 1.28906000e+07
2345.000000 9.89056000e+06
2355.000000 1.61186000e+07
2365.000000 1.00574000e+07
2375.000000 1.31013000e+07
2385.000000 8.11446000e+06
2395.000000 1.05859000e+07
2405.000000 1.01470000e+07
2415.000000 1.16490000e+07
2425.000000 1.67204000e+07
2435.000000 1.59226000e+07
2445.000000 1.76302000e+07
2455.000000 1.75994000e+07
2465.000000 1.69355000e+07
2475.000000 1.56052000e+07
2485.000000 1.60136000e+07
2495.000000 1.50165000e+07
2505.000000 2.00864000e+07
2513.000000 1.49906000e+07
2518.000000 1.58331000e+07
2525.000000 1.30457000e+07
2535.000000 1.20777000e+07
2545.000000 1.18992000e+07
2555.000000 1.50466000e+07
2565.000000 1.34327000e+07
2575.000000 1.61274000e+07
2585.000000 1.57198000e+07
2595.000000 1.45114000e+07
2605.000000 1.30373000e+07
2615.000000 1.20816000e+07
2625.000000 1.58048000e+07
2635.000000 1.77203000e+07
2645.000000 2.38244000e+07
2655.000000 2.48574000e+07
2665.000000 1.91149000e+07
2675.000000 2.17852000e+07
2685.000000 2.09878000e+07
2695.000000 1.95517000e+07
2705.000000 2.12079000e+07
2715.000000 1.85262000e+07
2725.000000 1.88369000e+07
2735.000000 2.09084000e+07
2745.000000 1.28713000e+07
2755.000000 1.47172000e+07
2765.000000 1.65441000e+07
2775.000000 2.02542000e+07
2785.000000 1.67158000e+07
2795.000000 6.65592000e+06
2805.000000 8.85800000e+06
2815.000000 2.02299000e+07
2825.000000 2.42249000e+07
2835.000000 2.25417000e+07
2845.000000 2.13237000e+07
2855.000000 1.88692000e+07
2865.000000 2.30754000e+07
2875.000000 2.22083000e+07
2885.000000 2.26439000e+07
2895.000000 2.09765000e+07
2910.000000 2.58057000e+07
2930.000000 2.39157000e+07
2950.000000 2.37020000e+07
2970.000000 2.55509000e+07
2990.000000 2.57336000e+07
3010.000000 2.67729000e+07
3030.000000 2.62429000e+07
3050.000000 2.60606000e+07
3070.000000 2.64813000e+07
3090.000000 2.73674000e+07
3110.000000 2.61885000e+07
3130.000000 2.58968000e+07
3150.000000 2.71439000e+07
3170.000000 2.68489000e+07
3190.000000 2.47530000e+07
3210.000000 2.60505000e+07
3230.000000 2.44914000e+07
3250.000000 2.60028000e+07
3270.000000 2.67465000e+07
3290.000000 2.68295000e+07
3310.000000 2.75647000e+07
3330.000000 2.67803000e+07
3350.000000 2.64286000e+07
3370.000000 2.58535000e+07
3390.000000 2.62849000e+07
3410.000000 2.66184000e+07
3430.000000 2.67952000e+07
3450.000000 2.66735000e+07
3470.000000 2.62349000e+07
3490.000000 2.60535000e+07
3510.000000 2.69011000e+07
3530.000000 2.67758000e+07
3550.000000 2.77884000e+07
3570.000000 2.61156000e+07
3590.000000 2.59873000e+07
3610.000000 2.61283000e+07
3630.000000 2.64113000e+07
3640.000000 2.59161000e+07
3650.000000 2.74206000e+07
3670.000000 2.70425000e+07
3690.000000 2.58872000e+07
3710.000000 2.78084000e+07
3730.000000 2.92006000e+07
3750.000000 3.72644000e+07
3770.000000 4.05915000e+07
3790.000000 5.11351000e+07
3810.000000 6.06121000e+07
3830.000000 4.70652000e+07
3850.000000 6.72356000e+07
3870.000000 7.71575000e+07
3890.000000 4.27814000e+07
3910.000000 7.54242000e+07
3930.000000 6.05991000e+07
3950.000000 7.36050000e+07
3970.000000 3.76541000e+07
3990.000000 7.45053000e+07
4010.000000 8.42482000e+07
4030.000000 8.34396000e+07
4050.000000 8.23993000e+07
4070.000000 7.87714000e+07
4090.000000 6.22001000e+07
4110.000000 4.69125000e+07
4130.000000 7.47588000e+07
4150.000000 8.00707000e+07
4170.000000 7.90792000e+07
4190.000000 7.84226000e+07
4210.000000 7.80215000e+07
4230.000000 7.55526000e+07
4250.000000 7.59215000e+07
4270.000000 7.16664000e+07
4290.000000 7.33619000e+07
4310.000000 6.64708000e+07
4330.000000 5.14090000e+07
4350.000000 4.34277000e+07
4370.000000 6.74238000e+07
4390.000000 6.90178000e+07
4410.000000 6.78547000e+07
4430.000000 6.66330000e+07
4450.000000 6.81642000e+07
4470.000000 6.77668000e+07
4490.000000 6.66038000e+07
4510.000000 6.88519000e+07
4530.000000 6.54713000e+07
4550.000000 6.43584000e+07
4570.000000 6.66860000e+07
4590.000000 6.33667000e+07
4610.000000 6.50357000e+07
4630.000000 6.25612000e+07
4650.000000 6.31951000e+07
4670.000000 6.28985000e+07
4690.000000 5.99774000e+07
4710.000000 5.75264000e+07
4730.000000 6.04322000e+07
4750.000000 6.02483000e+07
4770.000000 5.88865000e+07
4790.000000 5.83416000e+07
4810.000000 5.66850000e+07
4830.000000 5.41463000e+07
4850.000000 4.13798000e+07
4870.000000 3.26711000e+07
4890.000000 5.03443000e+07
4910.000000 5.30682000e+07
4930.000000 5.22804000e+07
4950.000000 5.34440000e+07
4970.000000 5.37102000e+07
4990.000000 5.11866000e+07
5010.000000 4.88981000e+07
5030.000000 5.02834000e+07
5050.000000 4.92640000e+07
5070.000000 5.03226000e+07
5090.000000 4.94874000e+07
5110.000000 4.93676000e+07
5130.000000 4.81002000e+07
5150.000000 4.67174000e+07
5170.000000 4.59804000e+07
5190.000000 4.54504000e+07
5210.000000 4.54255000e+07
5230.000000 4.49204000e+07
5250.000000 4.55656000e+07
5270.000000 4.22227000e+07
5290.000000 4.43945000e+07
5310.000000 4.33900000e+07
5330.000000 4.17110000e+07
5350.000000 4.31990000e+07
5370.000000 4.27354000e+07
5390.000000 4.20843000e+07
5410.000000 4.09834000e+07
5430.000000 4.11804000e+07
5450.000000 4.15458000e+07
5470.000000 4.08560000e+07
5490.000000 4.05377000e+07
5510.000000 4.00975000e+07
5530.000000 3.97304000e+07
5550.000000 3.95656000e+07
5570.000000 3.89493000e+07
5590.000000 3.85192000e+07
5610.000000 3.84796000e+07
5630.000000 3.83256000e+07
5650.000000 3.77231000e+07
5670.000000 3.70426000e+07
5690.000000 3.70852000e+07
5710.000000 3.67461000e+07
5730.000000 3.69984000e+07
5750.000000 3.61900000e+07
5770.000000 3.60187000e+07
5790.000000 3.55220000e+07
5810.000000 3.53135000e+07
5830.000000 3.50883000e+07
5850.000000 3.46616000e+07
5870.000000 3.43832000e+07
5890.000000 3.34779000e+07
5910.000000 3.37101000e+07
5930.000000 3.34038000e+07
5950.000000 3.30126000e+07
5970.000000 3.28108000e+07
5990.000000 3.22855000e+07
6010.000000 3.17101000e+07
6030.000000 3.17415000e+07
6050.000000 3.14455000e+07
6070.000000 3.13828000e+07
6090.000000 3.09444000e+07
6110.000000 3.05060000e+07
6130.000000 2.99193000e+07
6150.000000 2.91582000e+07
6170.000000 2.92545000e+07
6190.000000 2.96066000e+07
6210.000000 2.93507000e+07
6230.000000 2.88636000e+07
6250.000000 2.78777000e+07
6270.000000 2.86345000e+07
6290.000000 2.83898000e+07
6310.000000 2.77456000e+07
6330.000000 2.76646000e+07
6350.000000 2.71000000e+07
6370.000000 2.69877000e+07
6390.000000 2.69519000e+07
6410.000000 2.64383000e+07
6430.000000 2.64062000e+07
6450.000000 2.57012000e+07
6470.000000 2.58944000e+07
6490.000000 2.52413000e+07
6510.000000 2.51309000e+07
6530.000000 2.43853000e+07
6550.000000 2.10104000e+07
6570.000000 1.65966000e+07
6590.000000 2.29075000e+07
6610.000000 2.40142000e+07
6630.000000 2.41455000e+07
6650.000000 2.40175000e+07
6670.000000 2.37500000e+07
6690.000000 2.36949000e+07
6710.000000 2.35087000e+07
6730.000000 2.32819000e+07
6750.000000 2.29349000e+07
6770.000000 2.30076000e+07
6790.000000 2.27684000e+07
6810.000000 2.25886000e+07
6830.000000 2.23095000e+07
6850.000000 2.21313000e+07
6870.000000 2.20361000e+07
6890.000000 2.18624000e+07
6910.000000 2.16563000e+07
6930.000000 2.14405000e+07
6950.000000 2.12931000e+07
6970.000000 2.10811000e+07
6990.000000 2.09660000e+07
7010.000000 2.04924000e+07
7030.000000 2.05223000e+07
7050.000000 2.03916000e+07
7070.000000 2.02666000e+07
7090.000000 2.01052000e+07
7110.000000 1.94065000e+07
7130.000000 1.95750000e+07
7150.000000 1.94737000e+07
7170.000000 1.93169000e+07
7190.000000 1.91177000e+07
7210.000000 1.90350000e+07
7230.000000 1.88484000e+07
7250.000000 1.86120000e+07
7270.000000 1.86437000e+07
7290.000000 1.83416000e+07
7310.000000 1.82520000e+07
7330.000000 1.81378000e+07
7350.000000 1.80601000e+07
7370.000000 1.79498000e+07
7390.000000 1.76844000e+07
7410.000000 1.74402000e+07
7430.000000 1.71956000e+07
7450.000000 1.71720000e+07
7470.000000 1.69195000e+07
7490.000000 1.69145000e+07
7510.000000 1.68573000e+07
7530.000000 1.67718000e+07
7550.000000 1.67346000e+07
7570.000000 1.65458000e+07
7590.000000 1.64561000e+07
7610.000000 1.63209000e+07
7630.000000 1.62044000e+07
7650.000000 1.60174000e+07
7670.000000 1.57816000e+07
7690.000000 1.57257000e+07
7710.000000 1.56189000e+07
7730.000000 1.55709000e+07
7750.000000 1.54104000e+07
7770.000000 1.49461000e+07
7790.000000 1.52618000e+07
7810.000000 1.51134000e+07
7830.000000 1.48937000e+07
7850.000000 1.47036000e+07
7870.000000 1.46490000e+07
7890.000000 1.44817000e+07
7910.000000 1.43555000e+07
7930.000000 1.42586000e+07
7950.000000 1.40881000e+07
7970.000000 1.42392000e+07
7990.000000 1.38990000e+07
8010.000000 1.39735000e+07
8030.000000 1.38140000e+07
8050.000000 1.37675000e+07
8070.000000 1.36444000e+07
8090.000000 1.35385000e+07
8110.000000 1.35033000e+07
8130.000000 1.34335000e+07
8150.000000 1.33302000e+07
8170.000000 1.32363000e+07
8190.000000 1.28628000e+07
8210.000000 1.27851000e+07
8230.000000 1.26963000e+07
8250.000000 1.26791000e+07
8270.000000 1.28035000e+07
8290.000000 1.26821000e+07
8310.000000 1.25638000e+07
8330.000000 1.23418000e+07
8350.000000 1.24037000e+07
8370.000000 1.23397000e+07
8390.000000 1.21846000e+07
8410.000000 1.21097000e+07
8430.000000 1.19818000e+07
8450.000000 1.16861000e+07
8470.000000 1.15759000e+07
8490.000000 1.18015000e+07
8510.000000 1.09414000e+07
8530.000000 1.17812000e+07
8550.000000 9.94099000e+06
8570.000000 1.19305000e+07
8590.000000 1.09912000e+07
8610.000000 1.06638000e+07
8630.000000 1.19549000e+07
8650.000000 1.14505000e+07
8670.000000 9.06880000e+06
8690.000000 1.13987000e+07
8710.000000 1.20615000e+07
8730.000000 1.15437000e+07
8750.000000 9.03068000e+06
8770.000000 1.10404000e+07
8790.000000 1.19985000e+07
8810.000000 1.20519000e+07
8830.000000 1.15088000e+07
8850.000000 1.03107000e+07
8870.000000 8.67690000e+06
8890.000000 1.10976000e+07
8910.000000 1.16315000e+07
8930.000000 1.16555000e+07
8950.000000 1.17526000e+07
8970.000000 1.14628000e+07
8990.000000 1.08870000e+07
9010.000000 8.53789000e+06
9030.000000 9.45417000e+06
9050.000000 1.08922000e+07
9070.000000 1.08703000e+07
9090.000000 1.07546000e+07
9110.000000 1.10324000e+07
9130.000000 1.10718000e+07
9150.000000 1.10761000e+07
9170.000000 1.08666000e+07
9190.000000 1.05013000e+07
9210.000000 9.67093000e+06
9230.000000 7.45695000e+06
9250.000000 9.23876000e+06
9270.000000 9.90871000e+06
9290.000000 1.04405000e+07
9310.000000 1.04835000e+07
9330.000000 1.03975000e+07
9350.000000 1.03919000e+07
9370.000000 1.03531000e+07
9390.000000 1.01565000e+07
9410.000000 9.72030000e+06
9430.000000 9.97354000e+06
9450.000000 9.92420000e+06
9470.000000 9.89619000e+06
9490.000000 9.77295000e+06
9510.000000 9.44863000e+06
9530.000000 8.59890000e+06
9550.000000 6.82142000e+06
9570.000000 8.65428000e+06
9590.000000 9.25151000e+06
9610.000000 9.27953000e+06
9630.000000 9.11591000e+06
9650.000000 9.28408000e+06
9670.000000 9.10873000e+06
9690.000000 9.05071000e+06
9710.000000 9.23043000e+06
9730.000000 9.14119000e+06
9750.000000 8.98999000e+06
9770.000000 9.05110000e+06
9790.000000 8.98035000e+06
9810.000000 8.91559000e+06
9830.000000 8.81541000e+06
9850.000000 8.69810000e+06
9870.000000 8.64510000e+06
9890.000000 8.52428000e+06
9910.000000 8.49566000e+06
9930.000000 8.50694000e+06
9950.000000 8.42254000e+06
9970.000000 8.38613000e+06
9990.000000 8.27218000e+06
10025.000000 7.45320000e+06
10075.000000 7.03795000e+06
10125.000000 7.81420000e+06
10175.000000 7.83475000e+06
10225.000000 7.78389000e+06
10275.000000 7.68013000e+06
10325.000000 7.51475000e+06
10375.000000 7.40925000e+06
10425.000000 7.29259000e+06
10475.000000 7.05559000e+06
10525.000000 6.98701000e+06
10575.000000 6.91369000e+06
10625.000000 6.83041000e+06
10675.000000 6.56558000e+06
10725.000000 6.55887000e+06
10775.000000 6.46310000e+06
10825.000000 6.35402000e+06
10875.000000 6.18455000e+06
10925.000000 5.19600000e+06
10975.000000 5.67984000e+06
11025.000000 6.00718000e+06
11075.000000 5.97457000e+06
11125.000000 5.87198000e+06
11175.000000 5.79511000e+06
11225.000000 5.72566000e+06
11275.000000 5.49215000e+06
11325.000000 5.43289000e+06
11375.000000 5.43036000e+06
11425.000000 5.30501000e+06
11475.000000 5.31982000e+06
11525.000000 5.25079000e+06
11575.000000 5.15913000e+06
11625.000000 5.00194000e+06
11675.000000 4.89977000e+06
11725.000000 4.95151000e+06
11775.000000 4.76310000e+06
11825.000000 4.74634000e+06
11875.000000 4.64421000e+06
11925.000000 4.69224000e+06
11975.000000 4.55672000e+06
12025.000000 4.52751000e+06
12075.000000 4.44617000e+06
12125.000000 4.39087000e+06
12175.000000 4.35106000e+06
12225.000000 4.27672000e+06
12275.000000 4.21520000e+06
12325.000000 4.16123000e+06
12375.000000 4.11390000e+06
12425.000000 4.07524000e+06
12475.000000 3.99761000e+06
12525.000000 3.94223000e+06
12575.000000 3.85662000e+06
12625.000000 3.83180000e+06
12675.000000 3.78967000e+06
12725.000000 3.72971000e+06
12775.000000 3.56206000e+06
12825.000000 3.02060000e+06
12875.000000 3.49649000e+06
12925.000000 3.52858000e+06
12975.000000 3.50121000e+06
13025.000000 3.46528000e+06
13075.000000 3.42891000e+06
13125.000000 3.37484000e+06
13175.000000 3.31194000e+06
13225.000000 3.29449000e+06
13275.000000 3.24941000e+06
13325.000000 3.21212000e+06
13375.000000 3.16941000e+06
13425.000000 3.12662000e+06
13475.000000 3.08727000e+06
13525.000000 3.03607000e+06
13575.000000 2.99248000e+06
13625.000000 2.96894000e+06
13675.000000 2.92289000e+06
13725.000000 2.85743000e+06
13775.000000 2.84745000e+06
13825.000000 2.81644000e+06
13875.000000 2.79579000e+06
13925.000000 2.73981000e+06
13975.000000 2.71541000e+06
14025.000000 2.68517000e+06
14075.000000 2.65833000e+06
14125.000000 2.61594000e+06
14175.000000 2.58908000e+06
14225.000000 2.55248000e+06
14275.000000 2.51762000e+06
14325.000000 2.49420000e+06
14375.000000 2.47141000e+06
14425.000000 2.37682000e+06
14475.000000 2.40430000e+06
14525.000000 2.34242000e+06
14570.000000 2.34874000e+06
14620.000000 2.31296000e+06
14675.000000 2.29373000e+06
14725.000000 2.25716000e+06
14775.000000 2.21982000e+06
14825.000000 2.20470000e+06
14875.000000 2.16777000e+06
14925.000000 2.17221000e+06
