# Kurucz ODFNEW /NOVER, alpha: 0.0 (2003)
# teff = 35000 K (value for the effective temperature for the model. Temperatures are given in K)
# logg = 4.5 log(cm/s2) (value for Log(G) for the model.)
# lh = 1.25  (l/Hp where l is the  mixing length of the convective element and Hp is the pressure scale height)
# meta = 0.2  (value for the Metallicity for the model.)
# vtur = 2 km/s (Microturbulence velocity)
# alpha = 0  (Alpha)
#
# column 1: WAVELENGTH (ANGSTROM), Wavelength in Angstrom
# column 2: FLUX (ERG/CM2/S/A), Flux in erg/cm2/s/A
147.200000 1.47110000e-04
151.000000 3.64965000e-04
155.200000 9.42064000e-04
158.800000 2.04160000e-03
162.000000 3.93812000e-03
166.000000 8.67588000e-03
170.300000 1.93482000e-02
173.400000 3.38094000e-02
176.800000 6.11298000e-02
180.200000 1.07457000e-01
181.700000 1.37809000e-01
186.100000 2.74401000e-01
191.000000 5.69984000e-01
193.900000 8.62995000e-01
198.400000 1.60856000e+00
201.800000 2.51691000e+00
205.000000 3.78746000e+00
210.500000 7.44077000e+00
216.200000 1.43253000e+01
219.800000 2.15641000e+01
223.000000 3.04730000e+01
226.800000 4.58851000e+01
230.000000 2.14892000e+04
234.000000 4.74558000e+04
240.000000 6.91325000e+04
246.500000 1.06009000e+05
252.400000 1.65208000e+05
256.800000 2.24028000e+05
260.000000 3.74562000e+05
264.000000 7.22259000e+05
268.500000 1.07048000e+06
273.500000 1.36601000e+06
278.500000 1.53398000e+06
284.000000 2.92968000e+06
290.000000 3.98697000e+06
296.000000 4.84671000e+06
301.000000 1.05446000e+07
308.000000 2.16990000e+07
318.000000 4.62399000e+07
328.000000 6.24112000e+07
338.000000 1.11307000e+08
348.000000 1.62791000e+08
357.000000 3.25447000e+08
366.000000 6.95350000e+08
375.000000 7.71220000e+08
385.000000 9.58134000e+08
395.000000 1.70129000e+09
405.000000 2.13522000e+09
414.000000 2.27428000e+09
422.000000 2.49180000e+09
430.000000 2.51139000e+09
441.000000 2.94556000e+09
451.000000 3.05235000e+09
460.000000 2.86838000e+09
470.000000 3.21354000e+09
480.000000 3.69371000e+09
490.000000 3.47576000e+09
500.000000 4.20234000e+09
506.000000 5.46166000e+09
512.000000 2.75149000e+10
520.000000 2.56953000e+10
530.000000 2.26976000e+10
540.000000 2.03261000e+10
550.000000 2.19126000e+10
560.000000 2.91461000e+10
570.000000 3.17884000e+10
580.000000 2.94978000e+10
590.000000 3.03440000e+10
600.000000 2.29010000e+10
610.000000 2.73157000e+10
620.000000 3.36518000e+10
630.000000 3.20101000e+10
640.000000 3.28829000e+10
650.000000 3.14580000e+10
658.000000 2.52726000e+10
665.000000 3.07015000e+10
675.000000 3.46190000e+10
685.000000 2.63175000e+10
695.000000 3.44842000e+10
705.000000 2.65623000e+10
716.000000 3.62138000e+10
726.000000 3.53231000e+10
735.000000 3.53560000e+10
745.000000 3.24326000e+10
755.000000 3.23173000e+10
765.000000 3.16312000e+10
775.000000 3.30042000e+10
785.000000 3.27665000e+10
795.000000 3.36271000e+10
805.000000 3.19074000e+10
815.000000 3.16096000e+10
825.000000 3.29978000e+10
835.000000 2.64771000e+10
845.000000 3.10770000e+10
855.000000 3.04058000e+10
865.000000 3.12697000e+10
875.000000 3.11333000e+10
885.000000 3.11855000e+10
895.000000 3.10555000e+10
905.000000 2.99051000e+10
915.000000 2.79326000e+10
925.000000 6.13334000e+10
935.000000 9.19345000e+10
945.000000 1.14589000e+11
955.000000 1.24780000e+11
965.000000 1.40141000e+11
975.000000 7.01960000e+10
985.000000 1.15322000e+11
995.000000 1.02156000e+11
1005.000000 1.04657000e+11
1015.000000 1.09992000e+11
1025.000000 9.01461000e+10
1035.000000 1.08483000e+11
1045.000000 1.20495000e+11
1055.000000 1.14563000e+11
1065.000000 1.01507000e+11
1075.000000 1.03396000e+11
1085.000000 9.44908000e+10
1095.000000 9.96725000e+10
1105.000000 9.52233000e+10
1115.000000 9.37774000e+10
1125.000000 7.99254000e+10
1135.000000 8.94839000e+10
1145.000000 8.71461000e+10
1155.000000 8.15629000e+10
1165.000000 7.81979000e+10
1175.000000 5.52750000e+10
1185.000000 7.13364000e+10
1195.000000 6.88231000e+10
1205.000000 6.64973000e+10
1215.000000 5.33006000e+10
1225.000000 6.32366000e+10
1235.000000 6.68726000e+10
1245.000000 6.46287000e+10
1255.000000 6.41171000e+10
1265.000000 6.56053000e+10
1275.000000 6.73380000e+10
1285.000000 6.70081000e+10
1295.000000 6.34949000e+10
1305.000000 6.24371000e+10
1315.000000 6.49746000e+10
1325.000000 6.28303000e+10
1335.000000 6.08715000e+10
1345.000000 6.06715000e+10
1355.000000 5.86159000e+10
1365.000000 5.66846000e+10
1375.000000 5.47631000e+10
1385.000000 5.31660000e+10
1395.000000 4.52612000e+10
1405.000000 4.49188000e+10
1415.000000 5.08339000e+10
1425.000000 4.53124000e+10
1435.000000 4.82249000e+10
1442.000000 4.71020000e+10
1447.000000 4.69479000e+10
1455.000000 4.46749000e+10
1465.000000 4.38249000e+10
1475.000000 4.38699000e+10
1485.000000 4.39268000e+10
1495.000000 4.23887000e+10
1505.000000 4.15113000e+10
1512.000000 4.08015000e+10
1517.000000 4.09095000e+10
1525.000000 3.93896000e+10
1535.000000 3.46731000e+10
1545.000000 2.86655000e+10
1555.000000 2.90677000e+10
1565.000000 3.27074000e+10
1575.000000 3.40915000e+10
1585.000000 3.41305000e+10
1595.000000 3.39246000e+10
1605.000000 3.19032000e+10
1615.000000 3.04376000e+10
1625.000000 3.11541000e+10
1635.000000 3.11505000e+10
1645.000000 3.07924000e+10
1655.000000 3.10747000e+10
1665.000000 3.04933000e+10
1672.000000 2.81120000e+10
1677.000000 3.25407000e+10
1685.000000 3.10117000e+10
1695.000000 2.99991000e+10
1705.000000 2.95692000e+10
1715.000000 2.81725000e+10
1725.000000 2.71530000e+10
1735.000000 2.80311000e+10
1745.000000 2.77293000e+10
1755.000000 2.71610000e+10
1765.000000 2.67610000e+10
1775.000000 2.58289000e+10
1785.000000 2.61445000e+10
1795.000000 2.54051000e+10
1805.000000 2.52203000e+10
1815.000000 2.46161000e+10
1825.000000 2.40824000e+10
1835.000000 2.40545000e+10
1845.000000 2.31404000e+10
1855.000000 2.32802000e+10
1865.000000 2.31644000e+10
1875.000000 2.25215000e+10
1885.000000 2.16237000e+10
1895.000000 2.14097000e+10
1905.000000 2.16652000e+10
1915.000000 2.11200000e+10
1925.000000 1.98215000e+10
1935.000000 2.08044000e+10
1945.000000 2.08460000e+10
1955.000000 1.91498000e+10
1967.000000 1.98350000e+10
1976.000000 1.99905000e+10
1984.000000 1.94966000e+10
1995.000000 1.89301000e+10
2005.000000 1.91906000e+10
2015.000000 1.90210000e+10
2025.000000 1.88538000e+10
2035.000000 1.82287000e+10
2045.000000 1.79274000e+10
2055.000000 1.40753000e+10
2065.000000 1.35011000e+10
2074.000000 1.39395000e+10
2078.000000 1.39216000e+10
2085.000000 1.47538000e+10
2095.000000 1.58253000e+10
2105.000000 1.63317000e+10
2115.000000 1.64496000e+10
2125.000000 1.60691000e+10
2135.000000 1.59486000e+10
2145.000000 1.56758000e+10
2155.000000 1.56532000e+10
2165.000000 1.48780000e+10
2175.000000 1.52695000e+10
2185.000000 1.46802000e+10
2195.000000 1.49940000e+10
2205.000000 1.47592000e+10
2215.000000 1.40849000e+10
2225.000000 1.42812000e+10
2235.000000 1.40692000e+10
2245.000000 1.37999000e+10
2255.000000 1.32859000e+10
2265.000000 1.34567000e+10
2275.000000 1.33211000e+10
2285.000000 1.29580000e+10
2295.000000 1.18976000e+10
2305.000000 1.22938000e+10
2315.000000 1.23411000e+10
2325.000000 1.22923000e+10
2335.000000 1.21022000e+10
2345.000000 1.19047000e+10
2355.000000 1.16469000e+10
2365.000000 1.14550000e+10
2375.000000 1.11984000e+10
2385.000000 1.06689000e+10
2395.000000 1.08014000e+10
2405.000000 1.07717000e+10
2415.000000 1.06497000e+10
2425.000000 1.05845000e+10
2435.000000 1.03935000e+10
2445.000000 1.02708000e+10
2455.000000 1.01148000e+10
2465.000000 9.98829000e+09
2475.000000 9.86715000e+09
2485.000000 9.58353000e+09
2495.000000 7.58721000e+09
2505.000000 9.20237000e+09
2513.000000 8.76566000e+09
2518.000000 8.99589000e+09
2525.000000 9.16589000e+09
2535.000000 9.10427000e+09
2545.000000 8.94155000e+09
2555.000000 8.82033000e+09
2565.000000 8.71733000e+09
2575.000000 8.60317000e+09
2585.000000 8.49840000e+09
2595.000000 8.32449000e+09
2605.000000 8.29623000e+09
2615.000000 8.12437000e+09
2625.000000 8.07571000e+09
2635.000000 7.99120000e+09
2645.000000 7.84958000e+09
2655.000000 7.76972000e+09
2665.000000 7.61392000e+09
2675.000000 7.41863000e+09
2685.000000 7.45022000e+09
2695.000000 7.29493000e+09
2705.000000 7.24830000e+09
2715.000000 7.13009000e+09
2725.000000 7.05706000e+09
2735.000000 6.83834000e+09
2745.000000 6.91860000e+09
2755.000000 6.82429000e+09
2765.000000 6.71293000e+09
2775.000000 6.68078000e+09
2785.000000 6.56197000e+09
2795.000000 6.36368000e+09
2805.000000 6.38398000e+09
2815.000000 6.34584000e+09
2825.000000 6.25284000e+09
2835.000000 6.14787000e+09
2845.000000 6.12567000e+09
2855.000000 6.03801000e+09
2865.000000 5.93213000e+09
2875.000000 5.87544000e+09
2885.000000 5.81124000e+09
2895.000000 5.73745000e+09
2910.000000 5.60817000e+09
2930.000000 5.51519000e+09
2950.000000 5.36058000e+09
2970.000000 5.23737000e+09
2990.000000 5.07863000e+09
3010.000000 4.94442000e+09
3030.000000 4.81288000e+09
3050.000000 4.73944000e+09
3070.000000 4.64951000e+09
3090.000000 4.52520000e+09
3110.000000 4.45472000e+09
3130.000000 4.34030000e+09
3150.000000 4.25916000e+09
3170.000000 4.15572000e+09
3190.000000 4.06824000e+09
3210.000000 3.94019000e+09
3230.000000 3.89155000e+09
3250.000000 3.82276000e+09
3270.000000 3.70426000e+09
3290.000000 3.64684000e+09
3310.000000 3.56404000e+09
3330.000000 3.48195000e+09
3350.000000 3.38947000e+09
3370.000000 3.32913000e+09
3390.000000 3.28111000e+09
3410.000000 3.20949000e+09
3430.000000 3.14902000e+09
3450.000000 3.06435000e+09
3470.000000 3.01589000e+09
3490.000000 2.95613000e+09
3510.000000 2.89939000e+09
3530.000000 2.84280000e+09
3550.000000 2.78318000e+09
3570.000000 2.73296000e+09
3590.000000 2.66827000e+09
3610.000000 2.61090000e+09
3630.000000 2.56202000e+09
3640.000000 2.52294000e+09
3650.000000 2.36235000e+09
3670.000000 2.32260000e+09
3690.000000 2.27901000e+09
3710.000000 2.21476000e+09
3730.000000 2.18891000e+09
3750.000000 2.18365000e+09
3770.000000 2.14933000e+09
3790.000000 2.20350000e+09
3810.000000 2.23981000e+09
3830.000000 2.05129000e+09
3850.000000 2.22004000e+09
3870.000000 2.17243000e+09
3890.000000 1.92414000e+09
3910.000000 2.15088000e+09
3930.000000 2.08999000e+09
3950.000000 2.04328000e+09
3970.000000 1.77253000e+09
3990.000000 1.99081000e+09
4010.000000 1.95690000e+09
4030.000000 1.88139000e+09
4050.000000 1.89682000e+09
4070.000000 1.83030000e+09
4090.000000 1.73164000e+09
4110.000000 1.59868000e+09
4130.000000 1.73862000e+09
4150.000000 1.71569000e+09
4170.000000 1.70293000e+09
4190.000000 1.66864000e+09
4210.000000 1.63089000e+09
4230.000000 1.62148000e+09
4250.000000 1.58142000e+09
4270.000000 1.54846000e+09
4290.000000 1.52341000e+09
4310.000000 1.48432000e+09
4330.000000 1.39929000e+09
4350.000000 1.31107000e+09
4370.000000 1.41563000e+09
4390.000000 1.38216000e+09
4410.000000 1.36839000e+09
4430.000000 1.35737000e+09
4450.000000 1.33300000e+09
4470.000000 1.28821000e+09
4490.000000 1.29132000e+09
4510.000000 1.26020000e+09
4530.000000 1.24554000e+09
4550.000000 1.21279000e+09
4570.000000 1.21106000e+09
4590.000000 1.18701000e+09
4610.000000 1.16766000e+09
4630.000000 1.14084000e+09
4650.000000 1.08593000e+09
4670.000000 1.10705000e+09
4690.000000 1.07527000e+09
4710.000000 1.07025000e+09
4730.000000 1.07153000e+09
4750.000000 1.05382000e+09
4770.000000 1.04029000e+09
4790.000000 1.02379000e+09
4810.000000 1.00624000e+09
4830.000000 9.86793000e+08
4850.000000 9.39754000e+08
4870.000000 8.61841000e+08
4890.000000 9.40701000e+08
4910.000000 9.28896000e+08
4930.000000 9.04449000e+08
4950.000000 8.99984000e+08
4970.000000 8.91352000e+08
4990.000000 8.77973000e+08
5010.000000 8.52351000e+08
5030.000000 8.48758000e+08
5050.000000 8.35238000e+08
5070.000000 8.26800000e+08
5090.000000 8.14310000e+08
5110.000000 8.02062000e+08
5130.000000 7.89507000e+08
5150.000000 7.78089000e+08
5170.000000 7.66696000e+08
5190.000000 7.56309000e+08
5210.000000 7.45767000e+08
5230.000000 7.35171000e+08
5250.000000 7.22309000e+08
5270.000000 7.11940000e+08
5290.000000 7.04157000e+08
5310.000000 6.93973000e+08
5330.000000 6.84199000e+08
5350.000000 6.74684000e+08
5370.000000 6.65200000e+08
5390.000000 6.55630000e+08
5410.000000 6.38178000e+08
5430.000000 6.37829000e+08
5450.000000 6.28971000e+08
5470.000000 6.20124000e+08
5490.000000 6.11665000e+08
5510.000000 6.02939000e+08
5530.000000 5.94988000e+08
5550.000000 5.87222000e+08
5570.000000 5.78848000e+08
5590.000000 5.69674000e+08
5610.000000 5.63776000e+08
5630.000000 5.56212000e+08
5650.000000 5.48528000e+08
5670.000000 5.40587000e+08
5690.000000 5.26030000e+08
5710.000000 5.08833000e+08
5730.000000 5.02545000e+08
5750.000000 4.95557000e+08
5770.000000 4.90045000e+08
5790.000000 4.83654000e+08
5810.000000 4.76245000e+08
5830.000000 4.70600000e+08
5850.000000 4.66848000e+08
5870.000000 4.53384000e+08
5890.000000 4.56283000e+08
5910.000000 4.52423000e+08
5930.000000 4.47995000e+08
5950.000000 4.43892000e+08
5970.000000 4.40574000e+08
5990.000000 4.36251000e+08
6010.000000 4.32247000e+08
6030.000000 4.27012000e+08
6050.000000 4.22474000e+08
6070.000000 4.17527000e+08
6090.000000 4.12483000e+08
6110.000000 4.07083000e+08
6130.000000 4.02165000e+08
6150.000000 3.96685000e+08
6170.000000 3.91713000e+08
6190.000000 3.87632000e+08
6210.000000 3.83108000e+08
6230.000000 3.77983000e+08
6250.000000 3.73474000e+08
6270.000000 3.69160000e+08
6290.000000 3.64759000e+08
6310.000000 3.59518000e+08
6330.000000 3.56074000e+08
6350.000000 3.51564000e+08
6370.000000 3.47643000e+08
6390.000000 3.43431000e+08
6410.000000 3.38559000e+08
6430.000000 3.35390000e+08
6450.000000 3.31122000e+08
6470.000000 3.26792000e+08
6490.000000 3.23180000e+08
6510.000000 3.19081000e+08
6530.000000 3.13940000e+08
6550.000000 3.05537000e+08
6570.000000 2.77671000e+08
6590.000000 3.03036000e+08
6610.000000 3.01386000e+08
6630.000000 2.98199000e+08
6650.000000 2.94696000e+08
6670.000000 2.88511000e+08
6690.000000 2.84541000e+08
6710.000000 2.84103000e+08
6730.000000 2.80720000e+08
6750.000000 2.77827000e+08
6770.000000 2.75177000e+08
6790.000000 2.71785000e+08
6810.000000 2.69110000e+08
6830.000000 2.66083000e+08
6850.000000 2.63094000e+08
6870.000000 2.60016000e+08
6890.000000 2.55692000e+08
6910.000000 2.53985000e+08
6930.000000 2.51729000e+08
6950.000000 2.48933000e+08
6970.000000 2.46219000e+08
6990.000000 2.43493000e+08
7010.000000 2.40619000e+08
7030.000000 2.37575000e+08
7050.000000 2.35327000e+08
7070.000000 2.30214000e+08
7090.000000 2.30558000e+08
7110.000000 2.27966000e+08
7130.000000 2.25510000e+08
7150.000000 2.23226000e+08
7170.000000 2.19975000e+08
7190.000000 2.18002000e+08
7210.000000 2.16164000e+08
7230.000000 2.12887000e+08
7250.000000 2.11442000e+08
7270.000000 2.09375000e+08
7290.000000 2.05994000e+08
7310.000000 2.04883000e+08
7330.000000 2.02813000e+08
7350.000000 2.00713000e+08
7370.000000 1.98606000e+08
7390.000000 1.96580000e+08
7410.000000 1.94505000e+08
7430.000000 1.92531000e+08
7450.000000 1.90440000e+08
7470.000000 1.88355000e+08
7490.000000 1.86014000e+08
7510.000000 1.84651000e+08
7530.000000 1.82774000e+08
7550.000000 1.80974000e+08
7570.000000 1.79092000e+08
7590.000000 1.75979000e+08
7610.000000 1.75204000e+08
7630.000000 1.73646000e+08
7650.000000 1.71948000e+08
7670.000000 1.70303000e+08
7690.000000 1.68208000e+08
7710.000000 1.66709000e+08
7730.000000 1.64763000e+08
7750.000000 1.63550000e+08
7770.000000 1.61998000e+08
7790.000000 1.60403000e+08
7810.000000 1.58786000e+08
7830.000000 1.57251000e+08
7850.000000 1.55583000e+08
7870.000000 1.54008000e+08
7890.000000 1.52538000e+08
7910.000000 1.51208000e+08
7930.000000 1.49722000e+08
7950.000000 1.48355000e+08
7970.000000 1.46805000e+08
7990.000000 1.45469000e+08
8010.000000 1.44051000e+08
8030.000000 1.42586000e+08
8050.000000 1.41344000e+08
8070.000000 1.39984000e+08
8090.000000 1.38574000e+08
8110.000000 1.36963000e+08
8130.000000 1.36034000e+08
8150.000000 1.34629000e+08
8170.000000 1.33424000e+08
8190.000000 1.31734000e+08
8210.000000 1.28606000e+08
8230.000000 1.26886000e+08
8250.000000 1.26271000e+08
8270.000000 1.24802000e+08
8290.000000 1.24047000e+08
8310.000000 1.23020000e+08
8330.000000 1.21599000e+08
8350.000000 1.20201000e+08
8370.000000 1.19477000e+08
8390.000000 1.18597000e+08
8410.000000 1.17491000e+08
8430.000000 1.16467000e+08
8450.000000 1.15073000e+08
8470.000000 1.14409000e+08
8490.000000 1.13322000e+08
8510.000000 1.11931000e+08
8530.000000 1.11366000e+08
8550.000000 1.10165000e+08
8570.000000 1.09831000e+08
8590.000000 1.07676000e+08
8610.000000 1.07217000e+08
8630.000000 1.07469000e+08
8650.000000 1.05629000e+08
8670.000000 1.02857000e+08
8690.000000 1.04808000e+08
8710.000000 1.04501000e+08
8730.000000 1.02535000e+08
8750.000000 9.76630000e+07
8770.000000 1.00147000e+08
8790.000000 1.01399000e+08
8810.000000 1.00866000e+08
8830.000000 9.96605000e+07
8850.000000 9.56416000e+07
8870.000000 9.13418000e+07
8890.000000 9.65323000e+07
8910.000000 9.67258000e+07
8930.000000 9.60096000e+07
8950.000000 9.52141000e+07
8970.000000 9.43639000e+07
8990.000000 9.22944000e+07
9010.000000 8.53928000e+07
9030.000000 8.76669000e+07
9050.000000 9.07159000e+07
9070.000000 8.99224000e+07
9090.000000 8.96594000e+07
9110.000000 8.91708000e+07
9130.000000 8.84778000e+07
9150.000000 8.77629000e+07
9170.000000 8.67264000e+07
9190.000000 8.57784000e+07
9210.000000 8.28791000e+07
9230.000000 7.58430000e+07
9250.000000 8.14330000e+07
9270.000000 8.28444000e+07
9290.000000 8.24968000e+07
9310.000000 8.17428000e+07
9330.000000 8.12110000e+07
9350.000000 7.97392000e+07
9370.000000 7.98411000e+07
9390.000000 7.92835000e+07
9410.000000 7.85426000e+07
9430.000000 7.79387000e+07
9450.000000 7.73181000e+07
9470.000000 7.64331000e+07
9490.000000 7.58980000e+07
9510.000000 7.45419000e+07
9530.000000 7.19852000e+07
9550.000000 6.60332000e+07
9570.000000 7.18495000e+07
9590.000000 7.26644000e+07
9610.000000 7.21991000e+07
9630.000000 7.15460000e+07
9650.000000 7.12983000e+07
9670.000000 7.07580000e+07
9690.000000 7.01492000e+07
9710.000000 6.82822000e+07
9730.000000 6.88534000e+07
9750.000000 6.84999000e+07
9770.000000 6.78921000e+07
9790.000000 6.74145000e+07
9810.000000 6.68659000e+07
9830.000000 6.63446000e+07
9850.000000 6.58114000e+07
9870.000000 6.52897000e+07
9890.000000 6.47178000e+07
9910.000000 6.40809000e+07
9930.000000 6.37810000e+07
9950.000000 6.32889000e+07
9970.000000 6.27510000e+07
9990.000000 6.21980000e+07
10025.000000 5.94217000e+07
10075.000000 5.75900000e+07
10125.000000 5.83676000e+07
10175.000000 5.79955000e+07
10225.000000 5.68676000e+07
10275.000000 5.57981000e+07
10325.000000 5.45946000e+07
10375.000000 5.37442000e+07
10425.000000 5.26926000e+07
10475.000000 5.17650000e+07
10525.000000 5.08016000e+07
10575.000000 4.98743000e+07
10625.000000 4.89589000e+07
10675.000000 4.80220000e+07
10725.000000 4.72019000e+07
10775.000000 4.63462000e+07
10825.000000 4.51539000e+07
10875.000000 4.45868000e+07
10925.000000 4.11432000e+07
10975.000000 4.23549000e+07
11025.000000 4.21947000e+07
11075.000000 4.15996000e+07
11125.000000 4.08886000e+07
11175.000000 4.01857000e+07
11225.000000 3.94727000e+07
11275.000000 3.88003000e+07
11325.000000 3.81148000e+07
11375.000000 3.74719000e+07
11425.000000 3.68329000e+07
11475.000000 3.62151000e+07
11525.000000 3.56094000e+07
11575.000000 3.49959000e+07
11625.000000 3.42634000e+07
11675.000000 3.37550000e+07
11725.000000 3.32841000e+07
11775.000000 3.27331000e+07
11825.000000 3.21766000e+07
11875.000000 3.16578000e+07
11925.000000 3.11412000e+07
11975.000000 3.03589000e+07
12025.000000 3.01408000e+07
12075.000000 2.96489000e+07
12125.000000 2.91588000e+07
12175.000000 2.87089000e+07
12225.000000 2.82502000e+07
12275.000000 2.78005000e+07
12325.000000 2.73571000e+07
12375.000000 2.69274000e+07
12425.000000 2.65061000e+07
12475.000000 2.60883000e+07
12525.000000 2.56403000e+07
12575.000000 2.52748000e+07
12625.000000 2.48883000e+07
12675.000000 2.45094000e+07
12725.000000 2.41287000e+07
12775.000000 2.34301000e+07
12825.000000 2.19007000e+07
12875.000000 2.29266000e+07
12925.000000 2.26955000e+07
12975.000000 2.22530000e+07
13025.000000 2.20088000e+07
13075.000000 2.16905000e+07
