# Kurucz ODFNEW /NOVER, alpha: 0.0 (2003)
# teff = 8000 K (value for the effective temperature for the model. Temperatures are given in K)
# logg = 3.5 log(cm/s2) (value for Log(G) for the model.)
# lh = 1.25  (l/Hp where l is the  mixing length of the convective element and Hp is the pressure scale height)
# meta = 0.2  (value for the Metallicity for the model.)
# vtur = 2 km/s (Microturbulence velocity)
# alpha = 0  (Alpha)
#
# column 1: WAVELENGTH (ANGSTROM), Wavelength in Angstrom
# column 2: FLUX (ERG/CM2/S/A), Flux in erg/cm2/s/A
338.000000 3.20387000e-24
348.000000 1.23940000e-22
357.000000 7.74747000e-23
366.000000 4.75651000e-22
375.000000 2.66067000e-21
385.000000 1.63125000e-20
395.000000 9.06662000e-20
405.000000 4.60734000e-19
414.000000 1.85353000e-18
422.000000 6.05508000e-18
430.000000 1.88723000e-17
441.000000 8.38610000e-17
451.000000 3.03975000e-16
460.000000 9.20423000e-16
470.000000 2.98877000e-15
480.000000 9.20436000e-15
490.000000 2.69893000e-14
500.000000 7.54815000e-14
506.000000 1.81408000e-13
512.000000 3.65615000e-13
520.000000 7.73326000e-13
530.000000 1.91919000e-12
540.000000 4.50848000e-12
550.000000 1.04027000e-11
560.000000 2.30771000e-11
570.000000 4.96172000e-11
580.000000 1.02370000e-10
590.000000 2.10410000e-10
600.000000 4.16265000e-10
610.000000 8.04739000e-10
620.000000 1.51731000e-09
630.000000 2.79818000e-09
640.000000 5.05136000e-09
650.000000 8.94521000e-09
658.000000 1.39288000e-08
665.000000 2.02819000e-08
675.000000 3.42874000e-08
685.000000 5.69656000e-08
695.000000 9.31012000e-08
705.000000 1.48918000e-07
716.000000 2.48073000e-07
726.000000 3.86839000e-07
735.000000 5.70242000e-07
745.000000 8.66235000e-07
755.000000 1.30032000e-06
765.000000 1.92901000e-06
775.000000 2.82849000e-06
785.000000 4.10607000e-06
795.000000 5.82429000e-06
805.000000 8.31447000e-06
815.000000 1.17421000e-05
825.000000 1.63566000e-05
835.000000 2.25722000e-05
845.000000 3.08833000e-05
855.000000 4.18908000e-05
865.000000 5.63565000e-05
875.000000 7.48858000e-05
885.000000 9.95858000e-05
895.000000 1.30953000e-04
905.000000 1.69873000e-04
915.000000 7.58701000e-02
925.000000 2.24296000e-01
935.000000 2.92916000e-01
945.000000 3.88042000e-01
955.000000 5.31579000e-01
965.000000 6.90935000e-01
975.000000 8.64600000e-01
985.000000 1.10605000e+00
995.000000 1.35494000e+00
1005.000000 1.79852000e+00
1015.000000 2.25941000e+00
1025.000000 2.71435000e+00
1035.000000 3.46497000e+00
1045.000000 4.30676000e+00
1055.000000 5.30997000e+00
1065.000000 6.40878000e+00
1075.000000 7.92236000e+00
1085.000000 9.68589000e+00
1095.000000 1.15574000e+01
1105.000000 3.20136000e+01
1115.000000 9.85259000e+01
1125.000000 1.42143000e+02
1135.000000 1.97921000e+02
1145.000000 2.47637000e+02
1155.000000 2.72935000e+02
1165.000000 3.69561000e+02
1175.000000 4.35771000e+02
1185.000000 4.61017000e+02
1195.000000 2.69009000e+02
1205.000000 2.81660000e+02
1215.000000 7.56075000e+01
1225.000000 3.27342000e+02
1235.000000 7.10716000e+02
1245.000000 1.62069000e+03
1255.000000 3.95548000e+03
1265.000000 3.66553000e+03
1275.000000 5.91504000e+03
1285.000000 8.25543000e+03
1295.000000 9.95813000e+03
1305.000000 7.91164000e+03
1315.000000 1.22128000e+04
1325.000000 1.43962000e+04
1335.000000 1.55866000e+04
1345.000000 1.92902000e+04
1355.000000 1.96473000e+04
1365.000000 2.13677000e+04
1375.000000 2.32180000e+04
1385.000000 2.50993000e+04
1395.000000 2.87190000e+04
1405.000000 3.19586000e+04
1415.000000 3.25471000e+04
1425.000000 3.65927000e+04
1435.000000 3.67687000e+04
1442.000000 4.24820000e+04
1447.000000 4.55427000e+04
1455.000000 5.07395000e+04
1465.000000 5.10813000e+04
1475.000000 5.59079000e+04
1485.000000 6.17859000e+04
1495.000000 6.94287000e+04
1505.000000 7.59871000e+04
1512.000000 7.63793000e+04
1517.000000 8.29044000e+04
1525.000000 9.43919000e+04
1535.000000 1.64204000e+05
1545.000000 4.30812000e+05
1555.000000 4.15972000e+05
1565.000000 3.89308000e+05
1575.000000 7.13753000e+05
1585.000000 1.00849000e+06
1595.000000 1.25624000e+06
1605.000000 1.20418000e+06
1615.000000 1.25317000e+06
1625.000000 1.11500000e+06
1635.000000 1.51468000e+06
1645.000000 2.80693000e+06
1655.000000 1.31835000e+06
1665.000000 2.70878000e+06
1672.000000 1.07052000e+06
1677.000000 4.10791000e+06
1685.000000 6.31473000e+06
1695.000000 5.30655000e+06
1705.000000 6.63087000e+06
1715.000000 1.02800000e+07
1725.000000 1.08321000e+07
1735.000000 1.39555000e+07
1745.000000 1.26305000e+07
1755.000000 1.64341000e+07
1765.000000 1.05833000e+07
1775.000000 1.51343000e+07
1785.000000 1.39709000e+07
1795.000000 1.95262000e+07
1805.000000 1.54842000e+07
1815.000000 1.72787000e+07
1825.000000 1.46614000e+07
1835.000000 1.33172000e+07
1845.000000 1.16637000e+07
1855.000000 1.40399000e+07
1865.000000 1.64795000e+07
1875.000000 1.52712000e+07
1885.000000 1.58751000e+07
1895.000000 1.76110000e+07
1905.000000 1.56722000e+07
1915.000000 1.69153000e+07
1925.000000 1.59979000e+07
1935.000000 1.03091000e+07
1945.000000 1.80397000e+07
1955.000000 1.84312000e+07
1967.000000 2.07201000e+07
1976.000000 2.01256000e+07
1984.000000 1.89903000e+07
1995.000000 1.86631000e+07
2005.000000 1.71448000e+07
2015.000000 1.60639000e+07
2025.000000 1.51009000e+07
2035.000000 1.77920000e+07
2045.000000 1.97651000e+07
2055.000000 1.80683000e+07
2065.000000 1.71410000e+07
2074.000000 2.10099000e+07
2078.000000 2.29157000e+07
2085.000000 2.16372000e+07
2095.000000 1.98741000e+07
2105.000000 1.81298000e+07
2115.000000 1.88507000e+07
2125.000000 1.95338000e+07
2135.000000 1.48717000e+07
2145.000000 1.85015000e+07
2155.000000 1.88039000e+07
2165.000000 1.68536000e+07
2175.000000 1.68455000e+07
2185.000000 1.79707000e+07
2195.000000 1.97238000e+07
2205.000000 1.85396000e+07
2215.000000 1.55492000e+07
2225.000000 1.50749000e+07
2235.000000 1.89050000e+07
2245.000000 1.68690000e+07
2255.000000 1.46624000e+07
2265.000000 1.49239000e+07
2275.000000 1.67495000e+07
2285.000000 1.79099000e+07
2295.000000 1.58137000e+07
2305.000000 1.67326000e+07
2315.000000 1.56288000e+07
2325.000000 1.49859000e+07
2335.000000 1.16890000e+07
2345.000000 9.05407000e+06
2355.000000 1.43307000e+07
2365.000000 9.33063000e+06
2375.000000 1.19799000e+07
2385.000000 7.57668000e+06
2395.000000 9.67302000e+06
2405.000000 9.33092000e+06
2415.000000 1.04385000e+07
2425.000000 1.45160000e+07
2435.000000 1.39516000e+07
2445.000000 1.53962000e+07
2455.000000 1.53198000e+07
2465.000000 1.49657000e+07
2475.000000 1.36851000e+07
2485.000000 1.39376000e+07
2495.000000 1.31198000e+07
2505.000000 1.72706000e+07
2513.000000 1.31902000e+07
2518.000000 1.37214000e+07
2525.000000 1.15856000e+07
2535.000000 1.06226000e+07
2545.000000 1.05678000e+07
2555.000000 1.30764000e+07
2565.000000 1.20075000e+07
2575.000000 1.42456000e+07
2585.000000 1.39890000e+07
2595.000000 1.31172000e+07
2605.000000 1.18625000e+07
2615.000000 1.09792000e+07
2625.000000 1.42160000e+07
2635.000000 1.56726000e+07
2645.000000 2.04976000e+07
2655.000000 2.13274000e+07
2665.000000 1.68329000e+07
2675.000000 1.89280000e+07
2685.000000 1.85103000e+07
2695.000000 1.70101000e+07
2705.000000 1.83591000e+07
2715.000000 1.61502000e+07
2725.000000 1.64677000e+07
2735.000000 1.82421000e+07
2745.000000 1.17903000e+07
2755.000000 1.34039000e+07
2765.000000 1.48657000e+07
2775.000000 1.78658000e+07
2785.000000 1.51426000e+07
2795.000000 6.23926000e+06
2805.000000 8.24177000e+06
2815.000000 1.81009000e+07
2825.000000 2.09635000e+07
2835.000000 1.96187000e+07
2845.000000 1.85520000e+07
2855.000000 1.65209000e+07
2865.000000 1.99288000e+07
2875.000000 1.92895000e+07
2885.000000 1.96185000e+07
2895.000000 1.83051000e+07
2910.000000 2.22120000e+07
2930.000000 2.07671000e+07
2950.000000 2.05566000e+07
2970.000000 2.19382000e+07
2990.000000 2.20915000e+07
3010.000000 2.28305000e+07
3030.000000 2.24752000e+07
3050.000000 2.24134000e+07
3070.000000 2.27603000e+07
3090.000000 2.34143000e+07
3110.000000 2.25019000e+07
3130.000000 2.23071000e+07
3150.000000 2.32993000e+07
3170.000000 2.31337000e+07
3190.000000 2.14174000e+07
3210.000000 2.24321000e+07
3230.000000 2.11686000e+07
3250.000000 2.23905000e+07
3270.000000 2.30482000e+07
3290.000000 2.31698000e+07
3310.000000 2.37424000e+07
3330.000000 2.31193000e+07
3350.000000 2.28297000e+07
3370.000000 2.24039000e+07
3390.000000 2.27117000e+07
3410.000000 2.29528000e+07
3430.000000 2.31768000e+07
3450.000000 2.30557000e+07
3470.000000 2.27056000e+07
3490.000000 2.26156000e+07
3510.000000 2.32693000e+07
3530.000000 2.31376000e+07
3550.000000 2.39726000e+07
3570.000000 2.26303000e+07
3590.000000 2.25083000e+07
3610.000000 2.26472000e+07
3630.000000 2.29004000e+07
3640.000000 2.25137000e+07
3650.000000 2.37394000e+07
3670.000000 2.34195000e+07
3690.000000 2.24379000e+07
3710.000000 2.42852000e+07
3730.000000 2.56269000e+07
3750.000000 3.26003000e+07
3770.000000 3.53645000e+07
3790.000000 4.37128000e+07
3810.000000 5.12640000e+07
3830.000000 4.02414000e+07
3850.000000 5.67108000e+07
3870.000000 6.42560000e+07
3890.000000 3.70677000e+07
3910.000000 6.32930000e+07
3930.000000 5.21644000e+07
3950.000000 6.20900000e+07
3970.000000 3.30217000e+07
3990.000000 6.25551000e+07
4010.000000 7.09784000e+07
4030.000000 7.06839000e+07
4050.000000 6.97303000e+07
4070.000000 6.63653000e+07
4090.000000 5.28517000e+07
4110.000000 4.03936000e+07
4130.000000 6.31943000e+07
4150.000000 6.76921000e+07
4170.000000 6.70876000e+07
4190.000000 6.65238000e+07
4210.000000 6.62865000e+07
4230.000000 6.42968000e+07
4250.000000 6.46108000e+07
4270.000000 6.15130000e+07
4290.000000 6.22100000e+07
4310.000000 5.64544000e+07
4330.000000 4.43743000e+07
4350.000000 3.77775000e+07
4370.000000 5.74477000e+07
4390.000000 5.89761000e+07
4410.000000 5.80840000e+07
4430.000000 5.73131000e+07
4450.000000 5.83172000e+07
4470.000000 5.79869000e+07
4490.000000 5.72043000e+07
4510.000000 5.88669000e+07
4530.000000 5.61416000e+07
4550.000000 5.52379000e+07
4570.000000 5.70499000e+07
4590.000000 5.45422000e+07
4610.000000 5.57380000e+07
4630.000000 5.38868000e+07
4650.000000 5.42797000e+07
4670.000000 5.40783000e+07
4690.000000 5.18078000e+07
4710.000000 4.98098000e+07
4730.000000 5.20803000e+07
4750.000000 5.19281000e+07
4770.000000 5.08528000e+07
4790.000000 5.02928000e+07
4810.000000 4.89994000e+07
4830.000000 4.67018000e+07
4850.000000 3.63557000e+07
4870.000000 2.89859000e+07
4890.000000 4.36092000e+07
4910.000000 4.59596000e+07
4930.000000 4.53844000e+07
4950.000000 4.62992000e+07
4970.000000 4.65068000e+07
4990.000000 4.45522000e+07
5010.000000 4.28509000e+07
5030.000000 4.40222000e+07
5050.000000 4.31438000e+07
5070.000000 4.39019000e+07
5090.000000 4.31809000e+07
5110.000000 4.30629000e+07
5130.000000 4.20478000e+07
5150.000000 4.10088000e+07
5170.000000 4.02707000e+07
5190.000000 3.98043000e+07
5210.000000 3.98421000e+07
5230.000000 3.94443000e+07
5250.000000 4.00054000e+07
5270.000000 3.73340000e+07
5290.000000 3.89908000e+07
5310.000000 3.83181000e+07
5330.000000 3.69066000e+07
5350.000000 3.79961000e+07
5370.000000 3.75372000e+07
5390.000000 3.70659000e+07
5410.000000 3.61887000e+07
5430.000000 3.63225000e+07
5450.000000 3.65181000e+07
5470.000000 3.59758000e+07
5490.000000 3.57454000e+07
5510.000000 3.54132000e+07
5530.000000 3.50343000e+07
5550.000000 3.49682000e+07
5570.000000 3.43872000e+07
5590.000000 3.39897000e+07
5610.000000 3.39130000e+07
5630.000000 3.38210000e+07
5650.000000 3.33578000e+07
5670.000000 3.28018000e+07
5690.000000 3.27973000e+07
5710.000000 3.24790000e+07
5730.000000 3.26520000e+07
5750.000000 3.20424000e+07
5770.000000 3.18715000e+07
5790.000000 3.14832000e+07
5810.000000 3.12891000e+07
5830.000000 3.10892000e+07
5850.000000 3.06965000e+07
5870.000000 3.04658000e+07
5890.000000 2.97206000e+07
5910.000000 2.99124000e+07
5930.000000 2.96456000e+07
5950.000000 2.93573000e+07
5970.000000 2.91577000e+07
5990.000000 2.87460000e+07
6010.000000 2.83089000e+07
6030.000000 2.82457000e+07
6050.000000 2.80418000e+07
6070.000000 2.79401000e+07
6090.000000 2.75822000e+07
6110.000000 2.72304000e+07
6130.000000 2.67261000e+07
6150.000000 2.61890000e+07
6170.000000 2.61650000e+07
6190.000000 2.64259000e+07
6210.000000 2.62198000e+07
6230.000000 2.58110000e+07
6250.000000 2.50500000e+07
6270.000000 2.55852000e+07
6290.000000 2.53733000e+07
6310.000000 2.48702000e+07
6330.000000 2.47828000e+07
6350.000000 2.43691000e+07
6370.000000 2.42293000e+07
6390.000000 2.41785000e+07
6410.000000 2.37491000e+07
6430.000000 2.36927000e+07
6450.000000 2.31720000e+07
6470.000000 2.32323000e+07
6490.000000 2.27307000e+07
6510.000000 2.25993000e+07
6530.000000 2.19451000e+07
6550.000000 1.90830000e+07
6570.000000 1.51835000e+07
6590.000000 2.06868000e+07
6610.000000 2.16266000e+07
6630.000000 2.17397000e+07
6650.000000 2.16356000e+07
6670.000000 2.14256000e+07
6690.000000 2.13701000e+07
6710.000000 2.11985000e+07
6730.000000 2.10236000e+07
6750.000000 2.07297000e+07
6770.000000 2.07488000e+07
6790.000000 2.05557000e+07
6810.000000 2.03937000e+07
6830.000000 2.01686000e+07
6850.000000 2.00093000e+07
6870.000000 1.99145000e+07
6890.000000 1.97625000e+07
6910.000000 1.95891000e+07
6930.000000 1.94127000e+07
6950.000000 1.92746000e+07
6970.000000 1.91006000e+07
6990.000000 1.89852000e+07
7010.000000 1.86340000e+07
7030.000000 1.86067000e+07
7050.000000 1.85028000e+07
7070.000000 1.83749000e+07
7090.000000 1.82354000e+07
7110.000000 1.76910000e+07
7130.000000 1.78061000e+07
7150.000000 1.77073000e+07
7170.000000 1.75662000e+07
7190.000000 1.73892000e+07
7210.000000 1.73095000e+07
7230.000000 1.71584000e+07
7250.000000 1.69850000e+07
7270.000000 1.69665000e+07
7290.000000 1.67190000e+07
7310.000000 1.66347000e+07
7330.000000 1.65230000e+07
7350.000000 1.64541000e+07
7370.000000 1.63490000e+07
7390.000000 1.61330000e+07
7410.000000 1.59212000e+07
7430.000000 1.57578000e+07
7450.000000 1.57079000e+07
7470.000000 1.55044000e+07
7490.000000 1.54654000e+07
7510.000000 1.54105000e+07
7530.000000 1.53274000e+07
7550.000000 1.52807000e+07
7570.000000 1.51238000e+07
7590.000000 1.50363000e+07
7610.000000 1.49164000e+07
7630.000000 1.48150000e+07
7650.000000 1.46636000e+07
7670.000000 1.44662000e+07
7690.000000 1.44127000e+07
7710.000000 1.43026000e+07
7730.000000 1.42602000e+07
7750.000000 1.41177000e+07
7770.000000 1.37406000e+07
7790.000000 1.39799000e+07
7810.000000 1.38540000e+07
7830.000000 1.36764000e+07
7850.000000 1.35267000e+07
7870.000000 1.34629000e+07
7890.000000 1.33312000e+07
7910.000000 1.32290000e+07
7930.000000 1.31156000e+07
7950.000000 1.29990000e+07
7970.000000 1.30780000e+07
7990.000000 1.28297000e+07
8010.000000 1.28473000e+07
8030.000000 1.27203000e+07
8050.000000 1.26653000e+07
8070.000000 1.25667000e+07
8090.000000 1.24673000e+07
8110.000000 1.24293000e+07
8130.000000 1.23580000e+07
8150.000000 1.22651000e+07
8170.000000 1.21808000e+07
8190.000000 1.18838000e+07
8210.000000 1.18372000e+07
8230.000000 1.17553000e+07
8250.000000 1.17127000e+07
8270.000000 1.17905000e+07
8290.000000 1.16921000e+07
8310.000000 1.15857000e+07
8330.000000 1.13916000e+07
8350.000000 1.14409000e+07
8370.000000 1.13739000e+07
8390.000000 1.12352000e+07
8410.000000 1.11717000e+07
8430.000000 1.10694000e+07
8450.000000 1.08293000e+07
8470.000000 1.07052000e+07
8490.000000 1.09156000e+07
8510.000000 1.01585000e+07
8530.000000 1.08834000e+07
8550.000000 9.30248000e+06
8570.000000 1.09959000e+07
8590.000000 1.01907000e+07
8610.000000 9.89287000e+06
8630.000000 1.10024000e+07
8650.000000 1.05770000e+07
8670.000000 8.50498000e+06
8690.000000 1.05407000e+07
8710.000000 1.10614000e+07
8730.000000 1.06366000e+07
8750.000000 8.44809000e+06
8770.000000 1.01915000e+07
8790.000000 1.09639000e+07
8810.000000 1.09938000e+07
8830.000000 1.05884000e+07
8850.000000 9.57618000e+06
8870.000000 8.12768000e+06
8890.000000 1.02138000e+07
8910.000000 1.06383000e+07
8930.000000 1.06592000e+07
8950.000000 1.07207000e+07
8970.000000 1.04903000e+07
8990.000000 1.00125000e+07
9010.000000 7.98333000e+06
9030.000000 8.80273000e+06
9050.000000 1.00049000e+07
9070.000000 9.98690000e+06
9090.000000 9.87370000e+06
9110.000000 1.01087000e+07
9130.000000 1.01440000e+07
9150.000000 1.01217000e+07
9170.000000 9.95351000e+06
9190.000000 9.66624000e+06
9210.000000 8.96166000e+06
9230.000000 7.02093000e+06
9250.000000 8.59460000e+06
9270.000000 9.16606000e+06
9290.000000 9.57275000e+06
9310.000000 9.60208000e+06
9330.000000 9.54191000e+06
9350.000000 9.51967000e+06
9370.000000 9.47821000e+06
9390.000000 9.33619000e+06
9410.000000 8.97958000e+06
9430.000000 9.16692000e+06
9450.000000 9.12267000e+06
9470.000000 9.09132000e+06
9490.000000 8.97649000e+06
9510.000000 8.70426000e+06
9530.000000 7.99287000e+06
9550.000000 6.42736000e+06
9570.000000 8.03520000e+06
9590.000000 8.52646000e+06
9610.000000 8.55220000e+06
9630.000000 8.44115000e+06
9650.000000 8.55305000e+06
9670.000000 8.41054000e+06
9690.000000 8.37786000e+06
9710.000000 8.49003000e+06
9730.000000 8.42134000e+06
9750.000000 8.29726000e+06
9770.000000 8.33003000e+06
9790.000000 8.27126000e+06
9810.000000 8.21917000e+06
9830.000000 8.14482000e+06
9850.000000 8.04228000e+06
9870.000000 7.99502000e+06
9890.000000 7.89609000e+06
9910.000000 7.86310000e+06
9930.000000 7.85285000e+06
9950.000000 7.78859000e+06
9970.000000 7.74524000e+06
9990.000000 7.64443000e+06
10025.000000 6.94452000e+06
10075.000000 6.57997000e+06
10125.000000 7.26407000e+06
10175.000000 7.26381000e+06
10225.000000 7.20664000e+06
10275.000000 7.11241000e+06
10325.000000 6.96877000e+06
10375.000000 6.87622000e+06
10425.000000 6.77159000e+06
10475.000000 6.57526000e+06
10525.000000 6.51668000e+06
10575.000000 6.43869000e+06
10625.000000 6.35254000e+06
10675.000000 6.12953000e+06
10725.000000 6.11541000e+06
10775.000000 6.03121000e+06
10825.000000 5.92643000e+06
10875.000000 5.77363000e+06
10925.000000 4.90025000e+06
10975.000000 5.33080000e+06
11025.000000 5.60768000e+06
11075.000000 5.57866000e+06
11125.000000 5.48875000e+06
11175.000000 5.41682000e+06
11225.000000 5.35402000e+06
11275.000000 5.16380000e+06
11325.000000 5.10391000e+06
11375.000000 5.09204000e+06
11425.000000 4.98349000e+06
11475.000000 4.98565000e+06
11525.000000 4.92150000e+06
11575.000000 4.84195000e+06
11625.000000 4.70617000e+06
11675.000000 4.61398000e+06
11725.000000 4.65090000e+06
11775.000000 4.48704000e+06
11825.000000 4.46911000e+06
11875.000000 4.37732000e+06
11925.000000 4.41037000e+06
11975.000000 4.29165000e+06
12025.000000 4.26437000e+06
12075.000000 4.19270000e+06
12125.000000 4.14179000e+06
12175.000000 4.10479000e+06
12225.000000 4.04028000e+06
12275.000000 3.98093000e+06
12325.000000 3.93158000e+06
12375.000000 3.88634000e+06
12425.000000 3.84756000e+06
12475.000000 3.78289000e+06
12525.000000 3.72898000e+06
12575.000000 3.65435000e+06
12625.000000 3.62594000e+06
12675.000000 3.58613000e+06
12725.000000 3.52823000e+06
12775.000000 3.37578000e+06
12825.000000 2.87928000e+06
12875.000000 3.31582000e+06
12925.000000 3.34569000e+06
12975.000000 3.31950000e+06
13025.000000 3.28629000e+06
13075.000000 3.25107000e+06
13125.000000 3.20142000e+06
13175.000000 3.14743000e+06
13225.000000 3.12777000e+06
13275.000000 3.08565000e+06
13325.000000 3.05066000e+06
13375.000000 3.01126000e+06
13425.000000 2.97319000e+06
13475.000000 2.93623000e+06
13525.000000 2.88985000e+06
13575.000000 2.85040000e+06
13625.000000 2.82708000e+06
13675.000000 2.78651000e+06
13725.000000 2.72584000e+06
13775.000000 2.71383000e+06
13825.000000 2.68399000e+06
13875.000000 2.66370000e+06
13925.000000 2.61488000e+06
13975.000000 2.59080000e+06
14025.000000 2.56145000e+06
14075.000000 2.53567000e+06
14125.000000 2.49774000e+06
14175.000000 2.47227000e+06
14225.000000 2.43761000e+06
14275.000000 2.40503000e+06
14325.000000 2.38368000e+06
14375.000000 2.36075000e+06
14425.000000 2.27779000e+06
14475.000000 2.30002000e+06
14525.000000 2.24492000e+06
14570.000000 2.24687000e+06
14620.000000 2.21408000e+06
14675.000000 2.19507000e+06
14725.000000 2.16212000e+06
14775.000000 2.12835000e+06
14825.000000 2.11248000e+06
14875.000000 2.07787000e+06
14925.000000 2.07970000e+06
