# Kurucz ODFNEW /NOVER, alpha: 0.0 (2003)
# teff = 29000 K (value for the effective temperature for the model. Temperatures are given in K)
# logg = 4.5 log(cm/s2) (value for Log(G) for the model.)
# lh = 1.25  (l/Hp where l is the  mixing length of the convective element and Hp is the pressure scale height)
# meta = -1  (value for the Metallicity for the model.)
# vtur = 2 km/s (Microturbulence velocity)
# alpha = 0  (Alpha)
#
# column 1: WAVELENGTH (ANGSTROM), Wavelength in Angstrom
# column 2: FLUX (ERG/CM2/S/A), Flux in erg/cm2/s/A
147.200000 5.50598000e-10
151.000000 1.95792000e-09
155.200000 7.41712000e-09
158.800000 2.19950000e-08
162.000000 5.55763000e-08
166.000000 1.68445000e-07
170.300000 5.23460000e-07
173.400000 1.14500000e-06
176.800000 2.61689000e-06
180.200000 5.79596000e-06
181.700000 8.15263000e-06
186.100000 2.14954000e-05
191.000000 5.99838000e-05
193.900000 1.07386000e-04
198.400000 2.56161000e-04
201.800000 4.81291000e-04
205.000000 8.54470000e-04
210.500000 2.19940000e-03
216.200000 5.56134000e-03
219.800000 9.74106000e-03
223.000000 1.57869000e-02
226.800000 2.75211000e-02
230.000000 5.85277000e+00
234.000000 1.46121000e+01
240.000000 2.82900000e+01
246.500000 5.67944000e+01
252.400000 1.04339000e+02
256.800000 1.42737000e+02
260.000000 2.19345000e+02
264.000000 3.06795000e+02
268.500000 4.62246000e+02
273.500000 7.05087000e+02
278.500000 1.04754000e+03
284.000000 1.68327000e+03
290.000000 2.60750000e+03
296.000000 3.96551000e+03
301.000000 5.40929000e+03
308.000000 8.03147000e+03
318.000000 1.67823000e+04
328.000000 2.91126000e+04
338.000000 5.12148000e+04
348.000000 8.49060000e+04
357.000000 1.46256000e+05
366.000000 2.27538000e+05
375.000000 3.21449000e+05
385.000000 4.86184000e+05
395.000000 7.15357000e+05
405.000000 1.00659000e+06
414.000000 1.37338000e+06
422.000000 1.72858000e+06
430.000000 2.21372000e+06
441.000000 3.03602000e+06
451.000000 3.99528000e+06
460.000000 4.97635000e+06
470.000000 6.43237000e+06
480.000000 8.10263000e+06
490.000000 1.01547000e+07
500.000000 1.26554000e+07
506.000000 6.31360000e+07
512.000000 2.48246000e+08
520.000000 2.60757000e+08
530.000000 2.87999000e+08
540.000000 2.80583000e+08
550.000000 3.45520000e+08
560.000000 3.80742000e+08
570.000000 4.20606000e+08
580.000000 4.04055000e+08
590.000000 4.71761000e+08
600.000000 4.96153000e+08
610.000000 5.39996000e+08
620.000000 5.80941000e+08
630.000000 6.12990000e+08
640.000000 6.15874000e+08
650.000000 6.66512000e+08
658.000000 6.99827000e+08
665.000000 7.35467000e+08
675.000000 7.51367000e+08
685.000000 7.63366000e+08
695.000000 8.70021000e+08
705.000000 8.75530000e+08
716.000000 9.52964000e+08
726.000000 9.77640000e+08
735.000000 1.01326000e+09
745.000000 1.07943000e+09
755.000000 1.11890000e+09
765.000000 1.16638000e+09
775.000000 1.21695000e+09
785.000000 1.27839000e+09
795.000000 1.30986000e+09
805.000000 1.34879000e+09
815.000000 1.37562000e+09
825.000000 1.44448000e+09
835.000000 1.39529000e+09
845.000000 1.50132000e+09
855.000000 1.53737000e+09
865.000000 1.59558000e+09
875.000000 1.65690000e+09
885.000000 1.71740000e+09
895.000000 1.76413000e+09
905.000000 1.78074000e+09
915.000000 2.12046000e+09
925.000000 1.01894000e+10
935.000000 2.19813000e+10
945.000000 4.50839000e+10
955.000000 5.44756000e+10
965.000000 6.87011000e+10
975.000000 2.67603000e+10
985.000000 6.73529000e+10
995.000000 6.20522000e+10
1005.000000 6.54113000e+10
1015.000000 6.25710000e+10
1025.000000 3.07931000e+10
1035.000000 5.64096000e+10
1045.000000 6.70680000e+10
1055.000000 6.42829000e+10
1065.000000 5.71924000e+10
1075.000000 5.96378000e+10
1085.000000 5.42137000e+10
1095.000000 5.83714000e+10
1105.000000 5.55796000e+10
1115.000000 5.45568000e+10
1125.000000 4.89774000e+10
1135.000000 5.25574000e+10
1145.000000 4.88044000e+10
1155.000000 4.93071000e+10
1165.000000 4.83227000e+10
1175.000000 3.77377000e+10
1185.000000 4.49803000e+10
1195.000000 4.30145000e+10
1205.000000 3.82249000e+10
1215.000000 2.06759000e+10
1225.000000 3.82573000e+10
1235.000000 4.10809000e+10
1245.000000 3.99084000e+10
1255.000000 3.95237000e+10
1265.000000 3.90449000e+10
1275.000000 3.88056000e+10
1285.000000 3.80648000e+10
1295.000000 3.44533000e+10
1305.000000 3.48055000e+10
1315.000000 3.57117000e+10
1325.000000 3.42326000e+10
1335.000000 3.29967000e+10
1345.000000 3.28223000e+10
1355.000000 3.26105000e+10
1365.000000 3.12367000e+10
1375.000000 3.06963000e+10
1385.000000 3.00739000e+10
1395.000000 2.65875000e+10
1405.000000 2.68478000e+10
1415.000000 2.78263000e+10
1425.000000 2.66097000e+10
1435.000000 2.67688000e+10
1442.000000 2.68194000e+10
1447.000000 2.63807000e+10
1455.000000 2.57568000e+10
1465.000000 2.50044000e+10
1475.000000 2.45938000e+10
1485.000000 2.42056000e+10
1495.000000 2.35997000e+10
1505.000000 2.25852000e+10
1512.000000 2.18097000e+10
1517.000000 2.18610000e+10
1525.000000 2.15529000e+10
1535.000000 1.97572000e+10
1545.000000 1.93113000e+10
1555.000000 1.86259000e+10
1565.000000 1.91608000e+10
1575.000000 1.93830000e+10
1585.000000 1.91842000e+10
1595.000000 1.89311000e+10
1605.000000 1.80992000e+10
1615.000000 1.75898000e+10
1625.000000 1.75908000e+10
1635.000000 1.75947000e+10
1645.000000 1.69875000e+10
1655.000000 1.71679000e+10
1665.000000 1.69256000e+10
1672.000000 1.64433000e+10
1677.000000 1.70580000e+10
1685.000000 1.66058000e+10
1695.000000 1.61364000e+10
1705.000000 1.56885000e+10
1715.000000 1.51871000e+10
1725.000000 1.48888000e+10
1735.000000 1.49529000e+10
1745.000000 1.46620000e+10
1755.000000 1.45040000e+10
1765.000000 1.40898000e+10
1775.000000 1.37796000e+10
1785.000000 1.37155000e+10
1795.000000 1.35876000e+10
1805.000000 1.34884000e+10
1815.000000 1.29651000e+10
1825.000000 1.28810000e+10
1835.000000 1.26582000e+10
1845.000000 1.18718000e+10
1855.000000 1.17561000e+10
1865.000000 1.18015000e+10
1875.000000 1.17885000e+10
1885.000000 1.10276000e+10
1895.000000 1.05349000e+10
1905.000000 1.08835000e+10
1915.000000 1.04742000e+10
1925.000000 1.01080000e+10
1935.000000 1.03504000e+10
1945.000000 1.04175000e+10
1955.000000 9.71683000e+09
1967.000000 9.96864000e+09
1976.000000 1.01627000e+10
1984.000000 9.67412000e+09
1995.000000 9.39347000e+09
2005.000000 9.47347000e+09
2015.000000 9.46039000e+09
2025.000000 9.45447000e+09
2035.000000 9.03920000e+09
2045.000000 8.93065000e+09
2055.000000 8.36739000e+09
2065.000000 8.25660000e+09
2074.000000 8.43287000e+09
2078.000000 8.14524000e+09
2085.000000 8.20798000e+09
2095.000000 8.08457000e+09
2105.000000 8.25068000e+09
2115.000000 8.20409000e+09
2125.000000 8.16960000e+09
2135.000000 8.01796000e+09
2145.000000 7.81564000e+09
2155.000000 7.79754000e+09
2165.000000 7.68308000e+09
2175.000000 7.57580000e+09
2185.000000 7.45974000e+09
2195.000000 7.40256000e+09
2205.000000 7.29272000e+09
2215.000000 7.17404000e+09
2225.000000 7.06982000e+09
2235.000000 6.95051000e+09
2245.000000 6.88709000e+09
2255.000000 6.75109000e+09
2265.000000 6.69403000e+09
2275.000000 6.60285000e+09
2285.000000 6.51026000e+09
2295.000000 6.24930000e+09
2305.000000 6.30517000e+09
2315.000000 6.22087000e+09
2325.000000 6.13848000e+09
2335.000000 6.03668000e+09
2345.000000 5.98421000e+09
2355.000000 5.90442000e+09
2365.000000 5.82557000e+09
2375.000000 5.73527000e+09
2385.000000 5.64217000e+09
2395.000000 5.57709000e+09
2405.000000 5.50808000e+09
2415.000000 5.42987000e+09
2425.000000 5.36744000e+09
2435.000000 5.27986000e+09
2445.000000 5.21911000e+09
2455.000000 5.15736000e+09
2465.000000 5.08944000e+09
2475.000000 5.01882000e+09
2485.000000 4.95197000e+09
2495.000000 4.63808000e+09
2505.000000 4.81173000e+09
2513.000000 4.67454000e+09
2518.000000 4.72260000e+09
2525.000000 4.69970000e+09
2535.000000 4.64118000e+09
2545.000000 4.54423000e+09
2555.000000 4.50544000e+09
2565.000000 4.46082000e+09
2575.000000 4.40715000e+09
2585.000000 4.35310000e+09
2595.000000 4.29886000e+09
2605.000000 4.26514000e+09
2615.000000 4.21060000e+09
2625.000000 4.16005000e+09
2635.000000 4.10629000e+09
2645.000000 4.05155000e+09
2655.000000 3.99976000e+09
2665.000000 3.93320000e+09
2675.000000 3.88516000e+09
2685.000000 3.86176000e+09
2695.000000 3.77387000e+09
2705.000000 3.75436000e+09
2715.000000 3.71311000e+09
2725.000000 3.64704000e+09
2735.000000 3.61881000e+09
2745.000000 3.57959000e+09
2755.000000 3.54154000e+09
2765.000000 3.47202000e+09
2775.000000 3.46250000e+09
2785.000000 3.41844000e+09
2795.000000 3.33784000e+09
2805.000000 3.32505000e+09
2815.000000 3.30171000e+09
2825.000000 3.23145000e+09
2835.000000 3.18320000e+09
2845.000000 3.18720000e+09
2855.000000 3.14601000e+09
2865.000000 3.11156000e+09
2875.000000 3.07619000e+09
2885.000000 3.04168000e+09
2895.000000 3.00547000e+09
2910.000000 2.95156000e+09
2930.000000 2.88736000e+09
2950.000000 2.80050000e+09
2970.000000 2.75894000e+09
2990.000000 2.69586000e+09
3010.000000 2.63126000e+09
3030.000000 2.57985000e+09
3050.000000 2.52499000e+09
3070.000000 2.47165000e+09
3090.000000 2.40583000e+09
3110.000000 2.36548000e+09
3130.000000 2.31447000e+09
3150.000000 2.26577000e+09
3170.000000 2.21714000e+09
3190.000000 2.15440000e+09
3210.000000 2.12497000e+09
3230.000000 2.08068000e+09
3250.000000 2.03871000e+09
3270.000000 1.99813000e+09
3290.000000 1.95494000e+09
3310.000000 1.91846000e+09
3330.000000 1.87881000e+09
3350.000000 1.83865000e+09
3370.000000 1.80448000e+09
3390.000000 1.76968000e+09
3410.000000 1.73489000e+09
3430.000000 1.69368000e+09
3450.000000 1.65486000e+09
3470.000000 1.62676000e+09
3490.000000 1.59506000e+09
3510.000000 1.56724000e+09
3530.000000 1.54052000e+09
3550.000000 1.51116000e+09
3570.000000 1.49097000e+09
3590.000000 1.45140000e+09
3610.000000 1.42914000e+09
3630.000000 1.39854000e+09
3640.000000 1.39639000e+09
3650.000000 1.36878000e+09
3670.000000 1.34985000e+09
3690.000000 1.32433000e+09
3710.000000 1.27943000e+09
3730.000000 1.23082000e+09
3750.000000 1.23731000e+09
3770.000000 1.21544000e+09
3790.000000 1.26179000e+09
3810.000000 1.30494000e+09
3830.000000 1.15179000e+09
3850.000000 1.32817000e+09
3870.000000 1.33611000e+09
3890.000000 1.08517000e+09
3910.000000 1.31054000e+09
3930.000000 1.29101000e+09
3950.000000 1.26498000e+09
3970.000000 1.00652000e+09
3990.000000 1.21355000e+09
4010.000000 1.20785000e+09
4030.000000 1.14010000e+09
4050.000000 1.17740000e+09
4070.000000 1.14341000e+09
4090.000000 1.05580000e+09
4110.000000 9.34324000e+08
4130.000000 1.07661000e+09
4150.000000 1.06784000e+09
4170.000000 1.05935000e+09
4190.000000 1.04229000e+09
4210.000000 1.02658000e+09
4230.000000 1.00877000e+09
4250.000000 9.89122000e+08
4270.000000 9.66881000e+08
4290.000000 9.53957000e+08
4310.000000 9.31293000e+08
4330.000000 8.47179000e+08
4350.000000 7.76414000e+08
4370.000000 8.83801000e+08
4390.000000 8.55749000e+08
4410.000000 8.62262000e+08
4430.000000 8.48965000e+08
4450.000000 8.37337000e+08
4470.000000 7.89135000e+08
4490.000000 8.09609000e+08
4510.000000 7.98555000e+08
4530.000000 7.85736000e+08
4550.000000 7.72075000e+08
4570.000000 7.59632000e+08
4590.000000 7.47411000e+08
4610.000000 7.35640000e+08
4630.000000 7.24096000e+08
4650.000000 7.06417000e+08
4670.000000 7.01122000e+08
4690.000000 6.89794000e+08
4710.000000 6.70567000e+08
4730.000000 6.69976000e+08
4750.000000 6.59003000e+08
4770.000000 6.50905000e+08
4790.000000 6.40802000e+08
4810.000000 6.29589000e+08
4830.000000 6.16021000e+08
4850.000000 5.70335000e+08
4870.000000 5.13226000e+08
4890.000000 5.87259000e+08
4910.000000 5.82625000e+08
4930.000000 5.61787000e+08
4950.000000 5.66912000e+08
4970.000000 5.59659000e+08
4990.000000 5.51339000e+08
5010.000000 5.35509000e+08
5030.000000 5.35279000e+08
5050.000000 5.24474000e+08
5070.000000 5.20007000e+08
5090.000000 5.12424000e+08
5110.000000 5.05031000e+08
5130.000000 4.97479000e+08
5150.000000 4.90384000e+08
5170.000000 4.83694000e+08
5190.000000 4.76980000e+08
5210.000000 4.70188000e+08
5230.000000 4.63624000e+08
5250.000000 4.57160000e+08
5270.000000 4.50712000e+08
5290.000000 4.44511000e+08
5310.000000 4.38309000e+08
5330.000000 4.32294000e+08
5350.000000 4.26304000e+08
5370.000000 4.20548000e+08
5390.000000 4.14748000e+08
5410.000000 4.08946000e+08
5430.000000 4.03588000e+08
5450.000000 3.98082000e+08
5470.000000 3.92734000e+08
5490.000000 3.87478000e+08
5510.000000 3.82325000e+08
5530.000000 3.77174000e+08
5550.000000 3.72235000e+08
5570.000000 3.67259000e+08
5590.000000 3.62430000e+08
5610.000000 3.57648000e+08
5630.000000 3.52984000e+08
5650.000000 3.48259000e+08
5670.000000 3.43474000e+08
5690.000000 3.38644000e+08
5710.000000 3.34831000e+08
5730.000000 3.30547000e+08
5750.000000 3.26075000e+08
5770.000000 3.22189000e+08
5790.000000 3.18057000e+08
5810.000000 3.14007000e+08
5830.000000 3.09928000e+08
5850.000000 3.06084000e+08
5870.000000 2.93265000e+08
5890.000000 2.97586000e+08
5910.000000 2.94583000e+08
5930.000000 2.90832000e+08
5950.000000 2.87199000e+08
5970.000000 2.83840000e+08
5990.000000 2.80205000e+08
6010.000000 2.76820000e+08
6030.000000 2.73371000e+08
6050.000000 2.70053000e+08
6070.000000 2.66804000e+08
6090.000000 2.63551000e+08
6110.000000 2.60356000e+08
6130.000000 2.57206000e+08
6150.000000 2.53982000e+08
6170.000000 2.50982000e+08
6190.000000 2.48016000e+08
6210.000000 2.45063000e+08
6230.000000 2.42143000e+08
6250.000000 2.39245000e+08
6270.000000 2.36418000e+08
6290.000000 2.33632000e+08
6310.000000 2.30866000e+08
6330.000000 2.28169000e+08
6350.000000 2.25444000e+08
6370.000000 2.22852000e+08
6390.000000 2.20250000e+08
6410.000000 2.17695000e+08
6430.000000 2.15186000e+08
6450.000000 2.12694000e+08
6470.000000 2.10149000e+08
6490.000000 2.07755000e+08
6510.000000 2.05316000e+08
6530.000000 2.02090000e+08
6550.000000 1.93289000e+08
6570.000000 1.72441000e+08
6590.000000 1.93838000e+08
6610.000000 1.93598000e+08
6630.000000 1.91858000e+08
6650.000000 1.89777000e+08
6670.000000 1.85778000e+08
6690.000000 1.83743000e+08
6710.000000 1.83528000e+08
6730.000000 1.81424000e+08
6750.000000 1.79491000e+08
6770.000000 1.77511000e+08
6790.000000 1.75388000e+08
6810.000000 1.73612000e+08
6830.000000 1.71709000e+08
6850.000000 1.69856000e+08
6870.000000 1.68007000e+08
6890.000000 1.66152000e+08
6910.000000 1.64339000e+08
6930.000000 1.62608000e+08
6950.000000 1.60854000e+08
6970.000000 1.59134000e+08
6990.000000 1.57423000e+08
7010.000000 1.55744000e+08
7030.000000 1.54081000e+08
7050.000000 1.52450000e+08
7070.000000 1.48499000e+08
7090.000000 1.49244000e+08
7110.000000 1.47660000e+08
7130.000000 1.46114000e+08
7150.000000 1.44583000e+08
7170.000000 1.43059000e+08
7190.000000 1.41587000e+08
7210.000000 1.40114000e+08
7230.000000 1.38100000e+08
7250.000000 1.37189000e+08
7270.000000 1.35808000e+08
7290.000000 1.33348000e+08
7310.000000 1.33014000e+08
7330.000000 1.31665000e+08
7350.000000 1.30329000e+08
7370.000000 1.28998000e+08
7390.000000 1.27687000e+08
7410.000000 1.26395000e+08
7430.000000 1.25115000e+08
7450.000000 1.23867000e+08
7470.000000 1.22563000e+08
7490.000000 1.21393000e+08
7510.000000 1.20139000e+08
7530.000000 1.18977000e+08
7550.000000 1.17799000e+08
7570.000000 1.16625000e+08
7590.000000 1.15468000e+08
7610.000000 1.14309000e+08
7630.000000 1.13200000e+08
7650.000000 1.12087000e+08
7670.000000 1.10991000e+08
7690.000000 1.09905000e+08
7710.000000 1.08828000e+08
7730.000000 1.07768000e+08
7750.000000 1.06723000e+08
7770.000000 1.05656000e+08
7790.000000 1.04668000e+08
7810.000000 1.03607000e+08
7830.000000 1.02661000e+08
7850.000000 1.01759000e+08
7870.000000 1.00762000e+08
7890.000000 9.97437000e+07
7910.000000 9.88726000e+07
7930.000000 9.79193000e+07
7950.000000 9.69921000e+07
7970.000000 9.59662000e+07
7990.000000 9.50792000e+07
8010.000000 9.41176000e+07
8030.000000 9.32053000e+07
8050.000000 9.23533000e+07
8070.000000 9.15317000e+07
8090.000000 9.05271000e+07
8110.000000 8.97432000e+07
8130.000000 8.90343000e+07
8150.000000 8.81157000e+07
8170.000000 8.74196000e+07
8190.000000 8.64652000e+07
8210.000000 8.54744000e+07
8230.000000 8.48648000e+07
8250.000000 8.41494000e+07
8270.000000 8.29827000e+07
8290.000000 8.25664000e+07
8310.000000 8.18584000e+07
8330.000000 8.10749000e+07
8350.000000 7.99900000e+07
8370.000000 7.95060000e+07
8390.000000 7.89026000e+07
8410.000000 7.81922000e+07
8430.000000 7.74453000e+07
8450.000000 7.62507000e+07
8470.000000 7.60381000e+07
8490.000000 7.51994000e+07
8510.000000 7.45759000e+07
8530.000000 7.38486000e+07
8550.000000 7.28336000e+07
8570.000000 7.30634000e+07
8590.000000 7.07579000e+07
8610.000000 7.06888000e+07
8630.000000 7.15553000e+07
8650.000000 6.97092000e+07
8670.000000 6.69022000e+07
8690.000000 6.96676000e+07
8710.000000 6.98049000e+07
8730.000000 6.77553000e+07
8750.000000 6.28698000e+07
8770.000000 6.58015000e+07
8790.000000 6.76770000e+07
8810.000000 6.73944000e+07
8830.000000 6.64323000e+07
8850.000000 6.24624000e+07
8870.000000 5.87047000e+07
8890.000000 6.39846000e+07
8910.000000 6.46136000e+07
8930.000000 6.42442000e+07
8950.000000 6.38633000e+07
8970.000000 6.31246000e+07
8990.000000 6.11614000e+07
9010.000000 5.50429000e+07
9030.000000 5.72573000e+07
9050.000000 6.04543000e+07
9070.000000 6.00231000e+07
9090.000000 6.00784000e+07
9110.000000 5.98512000e+07
9130.000000 5.94492000e+07
9150.000000 5.88251000e+07
9170.000000 5.81028000e+07
9190.000000 5.73952000e+07
9210.000000 5.46813000e+07
9230.000000 4.88064000e+07
9250.000000 5.37955000e+07
9270.000000 5.54093000e+07
9290.000000 5.53849000e+07
9310.000000 5.48299000e+07
9330.000000 5.46687000e+07
9350.000000 5.42109000e+07
9370.000000 5.38210000e+07
9390.000000 5.33826000e+07
9410.000000 5.29432000e+07
9430.000000 5.25198000e+07
9450.000000 5.20825000e+07
9470.000000 5.12411000e+07
9490.000000 5.10253000e+07
9510.000000 4.98404000e+07
9530.000000 4.74620000e+07
9550.000000 4.26494000e+07
9570.000000 4.77201000e+07
9590.000000 4.87419000e+07
9610.000000 4.85270000e+07
9630.000000 4.81104000e+07
9650.000000 4.80649000e+07
9670.000000 4.76850000e+07
9690.000000 4.72637000e+07
9710.000000 4.67855000e+07
9730.000000 4.65615000e+07
9750.000000 4.61963000e+07
9770.000000 4.58337000e+07
9790.000000 4.54737000e+07
9810.000000 4.51123000e+07
9830.000000 4.47690000e+07
9850.000000 4.44166000e+07
9870.000000 4.40705000e+07
9890.000000 4.37229000e+07
9910.000000 4.33165000e+07
9930.000000 4.30581000e+07
9950.000000 4.27216000e+07
9970.000000 4.23381000e+07
9990.000000 4.19045000e+07
10025.000000 3.95657000e+07
10075.000000 3.82795000e+07
10125.000000 3.97325000e+07
10175.000000 3.92010000e+07
10225.000000 3.84510000e+07
10275.000000 3.77530000e+07
10325.000000 3.69006000e+07
10375.000000 3.63673000e+07
10425.000000 3.57003000e+07
10475.000000 3.50479000e+07
10525.000000 3.44096000e+07
10575.000000 3.37886000e+07
10625.000000 3.31780000e+07
10675.000000 3.25185000e+07
10725.000000 3.20001000e+07
10775.000000 3.14309000e+07
10825.000000 3.05523000e+07
10875.000000 3.01844000e+07
10925.000000 2.73161000e+07
10975.000000 2.85062000e+07
11025.000000 2.85399000e+07
11075.000000 2.82370000e+07
11125.000000 2.77804000e+07
11175.000000 2.73034000e+07
11225.000000 2.68224000e+07
11275.000000 2.63776000e+07
11325.000000 2.59281000e+07
11375.000000 2.54931000e+07
11425.000000 2.50629000e+07
11475.000000 2.46447000e+07
11525.000000 2.42339000e+07
11575.000000 2.38296000e+07
11625.000000 2.34363000e+07
11675.000000 2.30484000e+07
11725.000000 2.26727000e+07
11775.000000 2.23021000e+07
11825.000000 2.19390000e+07
11875.000000 2.15837000e+07
11925.000000 2.12351000e+07
11975.000000 2.06617000e+07
12025.000000 2.05593000e+07
12075.000000 2.02315000e+07
12125.000000 1.99100000e+07
12175.000000 1.95950000e+07
12225.000000 1.92861000e+07
12275.000000 1.89835000e+07
12325.000000 1.86865000e+07
12375.000000 1.83953000e+07
12425.000000 1.81099000e+07
12475.000000 1.78290000e+07
12525.000000 1.75167000e+07
12575.000000 1.72852000e+07
12625.000000 1.70212000e+07
12675.000000 1.67629000e+07
12725.000000 1.64879000e+07
12775.000000 1.59304000e+07
12825.000000 1.46747000e+07
12875.000000 1.56348000e+07
12925.000000 1.55253000e+07
12975.000000 1.51891000e+07
13025.000000 1.50796000e+07
13075.000000 1.48580000e+07
