# Kurucz ODFNEW /NOVER, alpha: 0.0 (2003)
# teff = 10000 K (value for the effective temperature for the model. Temperatures are given in K)
# logg = 4.5 log(cm/s2) (value for Log(G) for the model.)
# lh = 1.25  (l/Hp where l is the  mixing length of the convective element and Hp is the pressure scale height)
# meta = -0.5  (value for the Metallicity for the model.)
# vtur = 2 km/s (Microturbulence velocity)
# alpha = 0  (Alpha)
#
# column 1: WAVELENGTH (ANGSTROM), Wavelength in Angstrom
# column 2: FLUX (ERG/CM2/S/A), Flux in erg/cm2/s/A
264.000000 6.34963000e-23
268.500000 2.53032000e-22
273.500000 1.04277000e-21
278.500000 4.05283000e-21
284.000000 1.70373000e-20
290.000000 7.68286000e-20
296.000000 3.26074000e-19
301.000000 1.04427000e-18
308.000000 5.00736000e-18
318.000000 4.18104000e-17
328.000000 3.07490000e-16
338.000000 2.01107000e-15
348.000000 1.18210000e-14
357.000000 5.34549000e-14
366.000000 2.24706000e-13
375.000000 8.80442000e-13
385.000000 3.72345000e-12
395.000000 1.46145000e-11
405.000000 5.35701000e-11
414.000000 1.63340000e-10
422.000000 4.22436000e-10
430.000000 1.05307000e-09
441.000000 3.49976000e-09
451.000000 9.89271000e-09
460.000000 2.42257000e-08
470.000000 6.28519000e-08
480.000000 1.56460000e-07
490.000000 3.74878000e-07
500.000000 8.65995000e-07
506.000000 1.53878000e-06
512.000000 2.55820000e-06
520.000000 4.69310000e-06
530.000000 9.78021000e-06
540.000000 1.97150000e-05
550.000000 3.88959000e-05
560.000000 7.46623000e-05
570.000000 1.39908000e-04
580.000000 2.55703000e-04
590.000000 4.59489000e-04
600.000000 8.07206000e-04
610.000000 1.39079000e-03
620.000000 2.35191000e-03
630.000000 3.90796000e-03
640.000000 6.38674000e-03
650.000000 1.02729000e-02
658.000000 1.48599000e-02
665.000000 2.03663000e-02
675.000000 3.15630000e-02
685.000000 4.82352000e-02
695.000000 7.27775000e-02
705.000000 1.08465000e-01
716.000000 1.65960000e-01
726.000000 2.41344000e-01
735.000000 3.34815000e-01
745.000000 4.76911000e-01
755.000000 6.72532000e-01
765.000000 9.39466000e-01
775.000000 1.29999000e+00
785.000000 1.78276000e+00
795.000000 2.42278000e+00
805.000000 3.26649000e+00
815.000000 4.36835000e+00
825.000000 5.79852000e+00
835.000000 7.63860000e+00
845.000000 9.99195000e+00
855.000000 1.29784000e+01
865.000000 1.67448000e+01
875.000000 2.14654000e+01
885.000000 2.73534000e+01
895.000000 3.46458000e+01
905.000000 4.36206000e+01
915.000000 2.98634000e+02
925.000000 2.10189000e+03
935.000000 3.70026000e+03
945.000000 6.67590000e+03
955.000000 9.94712000e+03
965.000000 1.32928000e+04
975.000000 1.02978000e+04
985.000000 1.96161000e+04
995.000000 2.19502000e+04
1005.000000 2.68038000e+04
1015.000000 2.85798000e+04
1025.000000 1.80185000e+04
1035.000000 3.59066000e+04
1045.000000 4.55273000e+04
1055.000000 5.22535000e+04
1065.000000 5.74614000e+04
1075.000000 6.69694000e+04
1085.000000 7.53123000e+04
1095.000000 8.17822000e+04
1105.000000 2.19526000e+05
1115.000000 8.74836000e+06
1125.000000 1.35639000e+07
1135.000000 1.75710000e+07
1145.000000 1.45858000e+07
1155.000000 1.33892000e+07
1165.000000 9.98820000e+06
1175.000000 4.15470000e+06
1185.000000 1.64696000e+06
1195.000000 2.53581000e+05
1205.000000 1.92795000e+05
1215.000000 5.36962000e+04
1225.000000 2.02606000e+05
1235.000000 4.24493000e+05
1245.000000 1.06848000e+06
1255.000000 7.50816000e+06
1265.000000 1.65128000e+07
1275.000000 3.87338000e+07
1285.000000 6.66134000e+07
1295.000000 7.74407000e+07
1305.000000 5.52056000e+07
1315.000000 9.19654000e+07
1325.000000 1.06560000e+08
1335.000000 1.08297000e+08
1345.000000 1.28411000e+08
1355.000000 1.19066000e+08
1365.000000 1.10439000e+08
1375.000000 1.16650000e+08
1385.000000 1.07094000e+08
1395.000000 1.09827000e+08
1405.000000 1.26176000e+08
1415.000000 1.31284000e+08
1425.000000 1.41740000e+08
1435.000000 1.27754000e+08
1442.000000 1.44926000e+08
1447.000000 1.52667000e+08
1455.000000 1.54263000e+08
1465.000000 1.42205000e+08
1475.000000 1.37805000e+08
1485.000000 1.41325000e+08
1495.000000 1.50503000e+08
1505.000000 1.52345000e+08
1512.000000 1.42435000e+08
1517.000000 1.52642000e+08
1525.000000 1.43554000e+08
1535.000000 1.41767000e+08
1545.000000 1.53288000e+08
1555.000000 1.29751000e+08
1565.000000 1.11890000e+08
1575.000000 1.33942000e+08
1585.000000 1.46196000e+08
1595.000000 1.53474000e+08
1605.000000 1.46478000e+08
1615.000000 1.46606000e+08
1625.000000 1.32757000e+08
1635.000000 1.37548000e+08
1645.000000 1.48421000e+08
1655.000000 1.22273000e+08
1665.000000 1.45896000e+08
1672.000000 1.17031000e+08
1677.000000 1.37145000e+08
1685.000000 1.48981000e+08
1695.000000 1.35611000e+08
1705.000000 1.33610000e+08
1715.000000 1.35771000e+08
1725.000000 1.33303000e+08
1735.000000 1.39329000e+08
1745.000000 1.35250000e+08
1755.000000 1.43988000e+08
1765.000000 1.26761000e+08
1775.000000 1.39577000e+08
1785.000000 1.37805000e+08
1795.000000 1.46025000e+08
1805.000000 1.39162000e+08
1815.000000 1.37987000e+08
1825.000000 1.32487000e+08
1835.000000 1.30275000e+08
1845.000000 1.21993000e+08
1855.000000 1.26648000e+08
1865.000000 1.27341000e+08
1875.000000 1.31162000e+08
1885.000000 1.30548000e+08
1895.000000 1.28849000e+08
1905.000000 1.23721000e+08
1915.000000 1.26798000e+08
1925.000000 1.27568000e+08
1935.000000 1.23738000e+08
1945.000000 1.29718000e+08
1955.000000 1.27941000e+08
1967.000000 1.29501000e+08
1976.000000 1.26577000e+08
1984.000000 1.24123000e+08
1995.000000 1.21499000e+08
2005.000000 1.19344000e+08
2015.000000 1.15156000e+08
2025.000000 1.14738000e+08
2035.000000 1.17598000e+08
2045.000000 1.19558000e+08
2055.000000 1.14865000e+08
2065.000000 1.13720000e+08
2074.000000 1.16860000e+08
2078.000000 1.19167000e+08
2085.000000 1.18334000e+08
2095.000000 1.14460000e+08
2105.000000 1.12712000e+08
2115.000000 1.12390000e+08
2125.000000 1.12669000e+08
2135.000000 1.01228000e+08
2145.000000 1.09735000e+08
2155.000000 1.09254000e+08
2165.000000 1.04663000e+08
2175.000000 1.03376000e+08
2185.000000 1.03458000e+08
2195.000000 1.08006000e+08
2205.000000 1.03867000e+08
2215.000000 9.70498000e+07
2225.000000 9.63849000e+07
2235.000000 1.04243000e+08
2245.000000 9.62001000e+07
2255.000000 9.44523000e+07
2265.000000 9.41195000e+07
2275.000000 9.89350000e+07
2285.000000 1.00813000e+08
2295.000000 9.53800000e+07
2305.000000 9.44762000e+07
2315.000000 9.24105000e+07
2325.000000 9.24605000e+07
2335.000000 8.99981000e+07
2345.000000 8.37584000e+07
2355.000000 9.10165000e+07
2365.000000 8.41394000e+07
2375.000000 8.76266000e+07
2385.000000 7.93101000e+07
2395.000000 8.51447000e+07
2405.000000 8.19044000e+07
2415.000000 8.31783000e+07
2425.000000 8.60556000e+07
2435.000000 8.22178000e+07
2445.000000 8.66008000e+07
2455.000000 8.37777000e+07
2465.000000 8.31304000e+07
2475.000000 8.01291000e+07
2485.000000 8.37559000e+07
2495.000000 8.11917000e+07
2505.000000 8.68425000e+07
2513.000000 8.12855000e+07
2518.000000 8.15928000e+07
2525.000000 7.70816000e+07
2535.000000 7.62930000e+07
2545.000000 7.62995000e+07
2555.000000 8.01990000e+07
2565.000000 7.98497000e+07
2575.000000 8.36340000e+07
2585.000000 8.37718000e+07
2595.000000 8.32002000e+07
2605.000000 8.01199000e+07
2615.000000 7.96350000e+07
2625.000000 8.16811000e+07
2635.000000 8.19630000e+07
2645.000000 8.75155000e+07
2655.000000 8.64193000e+07
2665.000000 8.19740000e+07
2675.000000 8.39262000e+07
2685.000000 8.41801000e+07
2695.000000 8.11135000e+07
2705.000000 8.18329000e+07
2715.000000 7.89518000e+07
2725.000000 7.90735000e+07
2735.000000 8.28276000e+07
2745.000000 7.47157000e+07
2755.000000 7.49039000e+07
2765.000000 7.71127000e+07
2775.000000 8.00754000e+07
2785.000000 7.87971000e+07
2795.000000 6.66990000e+07
2805.000000 7.22382000e+07
2815.000000 8.07635000e+07
2825.000000 8.05373000e+07
2835.000000 7.82171000e+07
2845.000000 7.60299000e+07
2855.000000 7.44398000e+07
2865.000000 7.71567000e+07
2875.000000 7.56547000e+07
2885.000000 7.69597000e+07
2895.000000 7.55794000e+07
2910.000000 7.95669000e+07
2930.000000 7.67861000e+07
2950.000000 7.64195000e+07
2970.000000 7.64486000e+07
2990.000000 7.62595000e+07
3010.000000 7.67754000e+07
3030.000000 7.61099000e+07
3050.000000 7.52932000e+07
3070.000000 7.43514000e+07
3090.000000 7.44771000e+07
3110.000000 7.33041000e+07
3130.000000 7.26856000e+07
3150.000000 7.27527000e+07
3170.000000 7.21263000e+07
3190.000000 7.01067000e+07
3210.000000 7.07165000e+07
3230.000000 6.95365000e+07
3250.000000 6.96535000e+07
3270.000000 6.96567000e+07
3290.000000 6.95432000e+07
3310.000000 6.93243000e+07
3330.000000 6.81408000e+07
3350.000000 6.70711000e+07
3370.000000 6.69375000e+07
3390.000000 6.62254000e+07
3410.000000 6.65556000e+07
3430.000000 6.60827000e+07
3450.000000 6.56289000e+07
3470.000000 6.49434000e+07
3490.000000 6.45507000e+07
3510.000000 6.44593000e+07
3530.000000 6.41754000e+07
3550.000000 6.37981000e+07
3570.000000 6.29671000e+07
3590.000000 6.25510000e+07
3610.000000 6.21229000e+07
3630.000000 6.17261000e+07
3640.000000 6.14813000e+07
3650.000000 6.19592000e+07
3670.000000 6.17165000e+07
3690.000000 5.99979000e+07
3710.000000 5.92433000e+07
3730.000000 5.80032000e+07
3750.000000 6.91896000e+07
3770.000000 7.28813000e+07
3790.000000 8.98018000e+07
3810.000000 1.06860000e+08
3830.000000 8.46433000e+07
3850.000000 1.19961000e+08
3870.000000 1.39150000e+08
3890.000000 7.25023000e+07
3910.000000 1.39161000e+08
3930.000000 1.51617000e+08
3950.000000 1.38634000e+08
3970.000000 6.95691000e+07
3990.000000 1.30515000e+08
4010.000000 1.52532000e+08
4030.000000 1.53337000e+08
4050.000000 1.51052000e+08
4070.000000 1.41605000e+08
4090.000000 1.01807000e+08
4110.000000 7.65587000e+07
4130.000000 1.31579000e+08
4150.000000 1.40857000e+08
4170.000000 1.40844000e+08
4190.000000 1.39631000e+08
4210.000000 1.37974000e+08
4230.000000 1.35316000e+08
4250.000000 1.33650000e+08
4270.000000 1.30884000e+08
4290.000000 1.28072000e+08
4310.000000 1.18579000e+08
4330.000000 8.26844000e+07
4350.000000 6.99704000e+07
4370.000000 1.12775000e+08
4390.000000 1.18584000e+08
4410.000000 1.19263000e+08
4430.000000 1.18440000e+08
4450.000000 1.17724000e+08
4470.000000 1.16063000e+08
4490.000000 1.13609000e+08
4510.000000 1.13272000e+08
4530.000000 1.11683000e+08
4550.000000 1.09573000e+08
4570.000000 1.09166000e+08
4590.000000 1.07357000e+08
4610.000000 1.06777000e+08
4630.000000 1.04770000e+08
4650.000000 1.04054000e+08
4670.000000 1.02686000e+08
4690.000000 1.00863000e+08
4710.000000 9.81268000e+07
4730.000000 9.85953000e+07
4750.000000 9.72692000e+07
4770.000000 9.57996000e+07
4790.000000 9.40769000e+07
4810.000000 9.14252000e+07
4830.000000 8.53067000e+07
4850.000000 6.28873000e+07
4870.000000 5.09477000e+07
4890.000000 7.93662000e+07
4910.000000 8.53654000e+07
4930.000000 8.55670000e+07
4950.000000 8.56134000e+07
4970.000000 8.49776000e+07
4990.000000 8.39740000e+07
5010.000000 8.25199000e+07
5030.000000 8.20928000e+07
5050.000000 8.08220000e+07
5070.000000 8.03145000e+07
5090.000000 7.93734000e+07
5110.000000 7.84287000e+07
5130.000000 7.75120000e+07
5150.000000 7.65234000e+07
5170.000000 7.49304000e+07
5190.000000 7.42883000e+07
5210.000000 7.39050000e+07
5230.000000 7.27734000e+07
5250.000000 7.22924000e+07
5270.000000 7.10529000e+07
5290.000000 7.06500000e+07
5310.000000 6.96137000e+07
5330.000000 6.88642000e+07
5350.000000 6.83068000e+07
5370.000000 6.74606000e+07
5390.000000 6.67262000e+07
5410.000000 6.58837000e+07
5430.000000 6.52255000e+07
5450.000000 6.45612000e+07
5470.000000 6.38381000e+07
5490.000000 6.31513000e+07
5510.000000 6.24580000e+07
5530.000000 6.17249000e+07
5550.000000 6.11120000e+07
5570.000000 6.04287000e+07
5590.000000 5.97728000e+07
5610.000000 5.91499000e+07
5630.000000 5.85200000e+07
5650.000000 5.78680000e+07
5670.000000 5.72402000e+07
5690.000000 5.66477000e+07
5710.000000 5.60459000e+07
5730.000000 5.54626000e+07
5750.000000 5.48575000e+07
5770.000000 5.42810000e+07
5790.000000 5.36999000e+07
5810.000000 5.31422000e+07
5830.000000 5.25853000e+07
5850.000000 5.20370000e+07
5870.000000 5.14316000e+07
5890.000000 5.07495000e+07
5910.000000 5.04228000e+07
5930.000000 4.99065000e+07
5950.000000 4.93619000e+07
5970.000000 4.88711000e+07
5990.000000 4.83416000e+07
6010.000000 4.78556000e+07
6030.000000 4.73894000e+07
6050.000000 4.69027000e+07
6070.000000 4.64377000e+07
6090.000000 4.59666000e+07
6110.000000 4.54986000e+07
6130.000000 4.50278000e+07
6150.000000 4.44187000e+07
6170.000000 4.41193000e+07
6190.000000 4.37078000e+07
6210.000000 4.32704000e+07
6230.000000 4.28329000e+07
6250.000000 4.23355000e+07
6270.000000 4.20016000e+07
6290.000000 4.15873000e+07
6310.000000 4.11595000e+07
6330.000000 4.07682000e+07
6350.000000 4.01754000e+07
6370.000000 3.98651000e+07
6390.000000 3.95753000e+07
6410.000000 3.91408000e+07
6430.000000 3.87209000e+07
6450.000000 3.82222000e+07
6470.000000 3.78503000e+07
6490.000000 3.72900000e+07
6510.000000 3.65341000e+07
6530.000000 3.48953000e+07
6550.000000 2.94288000e+07
6570.000000 2.38990000e+07
6590.000000 3.24793000e+07
6610.000000 3.44878000e+07
6630.000000 3.47916000e+07
6650.000000 3.46926000e+07
6670.000000 3.44628000e+07
6690.000000 3.41998000e+07
6710.000000 3.39352000e+07
6730.000000 3.36456000e+07
6750.000000 3.33415000e+07
6770.000000 3.30503000e+07
6790.000000 3.27448000e+07
6810.000000 3.24439000e+07
6830.000000 3.21378000e+07
6850.000000 3.18469000e+07
6870.000000 3.15595000e+07
6890.000000 3.12726000e+07
6910.000000 3.09877000e+07
6930.000000 3.07032000e+07
6950.000000 3.04293000e+07
6970.000000 3.01541000e+07
6990.000000 2.98854000e+07
7010.000000 2.95932000e+07
7030.000000 2.93450000e+07
7050.000000 2.90810000e+07
7070.000000 2.88270000e+07
7090.000000 2.85747000e+07
7110.000000 2.82390000e+07
7130.000000 2.80563000e+07
7150.000000 2.78082000e+07
7170.000000 2.75734000e+07
7190.000000 2.73292000e+07
7210.000000 2.70908000e+07
7230.000000 2.68517000e+07
7250.000000 2.66070000e+07
7270.000000 2.63889000e+07
7290.000000 2.61528000e+07
7310.000000 2.59274000e+07
7330.000000 2.57069000e+07
7350.000000 2.54884000e+07
7370.000000 2.52705000e+07
7390.000000 2.50504000e+07
7410.000000 2.48289000e+07
7430.000000 2.45958000e+07
7450.000000 2.43994000e+07
7470.000000 2.41663000e+07
7490.000000 2.39804000e+07
7510.000000 2.37880000e+07
7530.000000 2.35934000e+07
7550.000000 2.33985000e+07
7570.000000 2.32007000e+07
7590.000000 2.30067000e+07
7610.000000 2.28150000e+07
7630.000000 2.26224000e+07
7650.000000 2.24316000e+07
7670.000000 2.22411000e+07
7690.000000 2.20593000e+07
7710.000000 2.18740000e+07
7730.000000 2.16992000e+07
7750.000000 2.15196000e+07
7770.000000 2.10408000e+07
7790.000000 2.11682000e+07
7810.000000 2.09957000e+07
7830.000000 2.08179000e+07
7850.000000 2.06398000e+07
7870.000000 2.04371000e+07
7890.000000 2.02453000e+07
7910.000000 2.01400000e+07
7930.000000 1.99846000e+07
7950.000000 1.97942000e+07
7970.000000 1.96701000e+07
7990.000000 1.94236000e+07
8010.000000 1.93532000e+07
8030.000000 1.91967000e+07
8050.000000 1.90462000e+07
8070.000000 1.88917000e+07
8090.000000 1.87420000e+07
8110.000000 1.85947000e+07
8130.000000 1.84498000e+07
8150.000000 1.83038000e+07
8170.000000 1.81595000e+07
8190.000000 1.79782000e+07
8210.000000 1.79003000e+07
8230.000000 1.77600000e+07
8250.000000 1.76408000e+07
8270.000000 1.75610000e+07
8290.000000 1.74287000e+07
8310.000000 1.73089000e+07
8330.000000 1.71401000e+07
8350.000000 1.70581000e+07
8370.000000 1.69321000e+07
8390.000000 1.67947000e+07
8410.000000 1.66553000e+07
8430.000000 1.65074000e+07
8450.000000 1.62489000e+07
8470.000000 1.61245000e+07
8490.000000 1.61202000e+07
8510.000000 1.56388000e+07
8530.000000 1.59362000e+07
8550.000000 1.49414000e+07
8570.000000 1.58935000e+07
8590.000000 1.49695000e+07
8610.000000 1.46856000e+07
8630.000000 1.58387000e+07
8650.000000 1.51125000e+07
8670.000000 1.30612000e+07
8690.000000 1.53588000e+07
8710.000000 1.59086000e+07
8730.000000 1.51146000e+07
8750.000000 1.21641000e+07
8770.000000 1.42849000e+07
8790.000000 1.57544000e+07
8810.000000 1.59621000e+07
8830.000000 1.54081000e+07
8850.000000 1.33948000e+07
8870.000000 1.15106000e+07
8890.000000 1.44071000e+07
8910.000000 1.54174000e+07
8930.000000 1.56517000e+07
8950.000000 1.56190000e+07
8970.000000 1.51865000e+07
8990.000000 1.40623000e+07
9010.000000 1.11455000e+07
9030.000000 1.20645000e+07
9050.000000 1.41419000e+07
9070.000000 1.46822000e+07
9090.000000 1.47463000e+07
9110.000000 1.48831000e+07
9130.000000 1.48383000e+07
9150.000000 1.46853000e+07
9170.000000 1.43983000e+07
9190.000000 1.38120000e+07
9210.000000 1.24197000e+07
9230.000000 9.77367000e+06
9250.000000 1.18964000e+07
9270.000000 1.31458000e+07
9290.000000 1.37515000e+07
9310.000000 1.38550000e+07
9330.000000 1.38346000e+07
9350.000000 1.37760000e+07
9370.000000 1.36936000e+07
9390.000000 1.35678000e+07
9410.000000 1.33643000e+07
9430.000000 1.33615000e+07
9450.000000 1.32311000e+07
9470.000000 1.30506000e+07
9490.000000 1.27639000e+07
9510.000000 1.21862000e+07
9530.000000 1.08023000e+07
9550.000000 8.79548000e+06
9570.000000 1.09220000e+07
9590.000000 1.19493000e+07
9610.000000 1.22501000e+07
9630.000000 1.22593000e+07
9650.000000 1.23231000e+07
9670.000000 1.22166000e+07
9690.000000 1.21987000e+07
9710.000000 1.21357000e+07
9730.000000 1.20548000e+07
9750.000000 1.19705000e+07
9770.000000 1.19086000e+07
9790.000000 1.18242000e+07
9810.000000 1.17388000e+07
9830.000000 1.16381000e+07
9850.000000 1.15454000e+07
9870.000000 1.14596000e+07
9890.000000 1.13413000e+07
9910.000000 1.12825000e+07
9930.000000 1.11791000e+07
9950.000000 1.10725000e+07
9970.000000 1.09319000e+07
9990.000000 1.07126000e+07
10025.000000 9.43430000e+06
10075.000000 8.95416000e+06
10125.000000 1.02664000e+07
10175.000000 1.02775000e+07
10225.000000 1.01437000e+07
10275.000000 9.99348000e+06
10325.000000 9.82413000e+06
10375.000000 9.66002000e+06
10425.000000 9.49964000e+06
10475.000000 9.32642000e+06
10525.000000 9.17749000e+06
10575.000000 9.02993000e+06
10625.000000 8.88408000e+06
10675.000000 8.67013000e+06
10725.000000 8.55968000e+06
10775.000000 8.42234000e+06
10825.000000 8.24216000e+06
10875.000000 7.91999000e+06
10925.000000 6.53209000e+06
10975.000000 7.13296000e+06
11025.000000 7.65914000e+06
11075.000000 7.63714000e+06
11125.000000 7.54033000e+06
11175.000000 7.44013000e+06
11225.000000 7.32675000e+06
11275.000000 7.17212000e+06
11325.000000 7.06458000e+06
11375.000000 6.98630000e+06
11425.000000 6.87622000e+06
11475.000000 6.77781000e+06
11525.000000 6.67545000e+06
11575.000000 6.57319000e+06
11625.000000 6.46130000e+06
11675.000000 6.34775000e+06
11725.000000 6.28030000e+06
11775.000000 6.14502000e+06
11825.000000 6.07889000e+06
11875.000000 5.98506000e+06
11925.000000 5.91511000e+06
11975.000000 5.81616000e+06
12025.000000 5.73950000e+06
12075.000000 5.65227000e+06
12125.000000 5.57116000e+06
12175.000000 5.49296000e+06
12225.000000 5.41283000e+06
12275.000000 5.33232000e+06
12325.000000 5.25641000e+06
12375.000000 5.18228000e+06
12425.000000 5.11040000e+06
12475.000000 5.03224000e+06
12525.000000 4.96476000e+06
12575.000000 4.88534000e+06
12625.000000 4.80843000e+06
12675.000000 4.73258000e+06
12725.000000 4.62380000e+06
12775.000000 4.35222000e+06
12825.000000 3.71620000e+06
12875.000000 4.28829000e+06
12925.000000 4.38349000e+06
12975.000000 4.35626000e+06
13025.000000 4.30822000e+06
13075.000000 4.25859000e+06
13125.000000 4.20040000e+06
13175.000000 4.13949000e+06
13225.000000 4.08801000e+06
13275.000000 4.03311000e+06
13325.000000 3.97914000e+06
13375.000000 3.92586000e+06
13425.000000 3.87347000e+06
13475.000000 3.82174000e+06
13525.000000 3.76924000e+06
13575.000000 3.72047000e+06
13625.000000 3.67231000e+06
13675.000000 3.62334000e+06
13725.000000 3.57219000e+06
13775.000000 3.53003000e+06
13825.000000 3.48444000e+06
13875.000000 3.44019000e+06
13925.000000 3.39455000e+06
13975.000000 3.35178000e+06
14025.000000 3.30916000e+06
14075.000000 3.26705000e+06
14125.000000 3.22527000e+06
14175.000000 3.18437000e+06
14225.000000 3.14415000e+06
14275.000000 3.10441000e+06
14325.000000 3.06552000e+06
14375.000000 3.02728000e+06
14425.000000 2.97700000e+06
