# Kurucz ODFNEW /NOVER, alpha: 0.0 (2003)
# teff = 21000 K (value for the effective temperature for the model. Temperatures are given in K)
# logg = 5 log(cm/s2) (value for Log(G) for the model.)
# lh = 1.25  (l/Hp where l is the  mixing length of the convective element and Hp is the pressure scale height)
# meta = 0.2  (value for the Metallicity for the model.)
# vtur = 2 km/s (Microturbulence velocity)
# alpha = 0  (Alpha)
#
# column 1: WAVELENGTH (ANGSTROM), Wavelength in Angstrom
# column 2: FLUX (ERG/CM2/S/A), Flux in erg/cm2/s/A
147.200000 1.57978000e-17
151.000000 8.26059000e-17
155.200000 4.68225000e-16
158.800000 1.92432000e-15
162.000000 6.41965000e-15
166.000000 2.71378000e-14
170.300000 1.18456000e-13
173.400000 3.28697000e-13
176.800000 9.63775000e-13
180.200000 2.71560000e-12
181.700000 4.23481000e-12
186.100000 1.50003000e-11
191.000000 5.73619000e-11
193.900000 1.22727000e-10
198.400000 3.82830000e-10
201.800000 8.76344000e-10
205.000000 1.86639000e-09
210.500000 6.47961000e-09
216.200000 2.20610000e-08
219.800000 4.63386000e-08
223.000000 8.78018000e-08
226.800000 1.83457000e-07
230.000000 1.06125000e-06
234.000000 2.56719000e-06
240.000000 7.28540000e-06
246.500000 2.10858000e-05
252.400000 5.30058000e-05
256.800000 1.00452000e-04
260.000000 1.62924000e-04
264.000000 2.86163000e-04
268.500000 5.27373000e-04
273.500000 1.01402000e-03
278.500000 1.91390000e-03
284.000000 3.76468000e-03
290.000000 7.58162000e-03
296.000000 1.48080000e-02
301.000000 2.53716000e-02
308.000000 5.19282000e-02
318.000000 1.40247000e-01
328.000000 3.46618000e-01
338.000000 8.28420000e-01
348.000000 1.85994000e+00
357.000000 3.82762000e+00
366.000000 7.42851000e+00
375.000000 1.36477000e+01
385.000000 2.61963000e+01
395.000000 4.84430000e+01
405.000000 8.67379000e+01
414.000000 1.43448000e+02
422.000000 2.18062000e+02
430.000000 3.27545000e+02
441.000000 5.61004000e+02
451.000000 8.92496000e+02
460.000000 1.32345000e+03
470.000000 2.02366000e+03
480.000000 3.02528000e+03
490.000000 4.45736000e+03
500.000000 6.45006000e+03
506.000000 4.58868000e+04
512.000000 2.66267000e+05
520.000000 3.33734000e+05
530.000000 4.54315000e+05
540.000000 5.26736000e+05
550.000000 7.58839000e+05
560.000000 9.15767000e+05
570.000000 1.17483000e+06
580.000000 1.22426000e+06
590.000000 1.65605000e+06
600.000000 2.01383000e+06
610.000000 2.48433000e+06
620.000000 2.85654000e+06
630.000000 3.32830000e+06
640.000000 3.54591000e+06
650.000000 3.45129000e+06
658.000000 4.66740000e+06
665.000000 5.32435000e+06
675.000000 6.01709000e+06
685.000000 6.70570000e+06
695.000000 8.14177000e+06
705.000000 8.99557000e+06
716.000000 1.02946000e+07
726.000000 1.13560000e+07
735.000000 1.23934000e+07
745.000000 1.41556000e+07
755.000000 1.57479000e+07
765.000000 1.74761000e+07
775.000000 1.93626000e+07
785.000000 2.13429000e+07
795.000000 2.29408000e+07
805.000000 2.48859000e+07
815.000000 2.68244000e+07
825.000000 2.95848000e+07
835.000000 3.05587000e+07
845.000000 3.34961000e+07
855.000000 3.60014000e+07
865.000000 3.90941000e+07
875.000000 4.24540000e+07
885.000000 4.63239000e+07
895.000000 4.95236000e+07
905.000000 5.06844000e+07
915.000000 7.09249000e+07
925.000000 2.58195000e+08
935.000000 6.09334000e+08
945.000000 1.92582000e+09
955.000000 4.39464000e+09
965.000000 6.22080000e+09
975.000000 1.19206000e+09
985.000000 8.92525000e+09
995.000000 8.96631000e+09
1005.000000 1.09969000e+10
1015.000000 8.69506000e+09
1025.000000 1.49193000e+09
1035.000000 5.63112000e+09
1045.000000 1.36092000e+10
1055.000000 1.35660000e+10
1065.000000 1.03527000e+10
1075.000000 1.29880000e+10
1085.000000 1.14629000e+10
1095.000000 1.31708000e+10
1105.000000 1.14661000e+10
1115.000000 1.07538000e+10
1125.000000 9.71899000e+09
1135.000000 1.24080000e+10
1145.000000 1.03169000e+10
1155.000000 1.13553000e+10
1165.000000 1.16656000e+10
1175.000000 8.00160000e+09
1185.000000 1.15557000e+10
1195.000000 8.21166000e+09
1205.000000 4.61460000e+09
1215.000000 1.59463000e+09
1225.000000 5.17687000e+09
1235.000000 1.01586000e+10
1245.000000 1.08703000e+10
1255.000000 1.06726000e+10
1265.000000 1.00445000e+10
1275.000000 1.07965000e+10
1285.000000 1.11488000e+10
1295.000000 7.20942000e+09
1305.000000 6.75072000e+09
1315.000000 1.04283000e+10
1325.000000 9.62646000e+09
1335.000000 8.69053000e+09
1345.000000 9.71632000e+09
1355.000000 9.45053000e+09
1365.000000 8.35721000e+09
1375.000000 8.39909000e+09
1385.000000 8.52432000e+09
1395.000000 7.15486000e+09
1405.000000 7.54633000e+09
1415.000000 7.55820000e+09
1425.000000 7.72095000e+09
1435.000000 7.72330000e+09
1442.000000 8.07988000e+09
1447.000000 7.95072000e+09
1455.000000 7.74039000e+09
1465.000000 7.14939000e+09
1475.000000 7.13762000e+09
1485.000000 6.91335000e+09
1495.000000 6.95399000e+09
1505.000000 6.28092000e+09
1512.000000 5.68074000e+09
1517.000000 5.96913000e+09
1525.000000 6.12810000e+09
1535.000000 5.40210000e+09
1545.000000 5.49937000e+09
1555.000000 5.23147000e+09
1565.000000 5.38586000e+09
1575.000000 5.70616000e+09
1585.000000 5.71582000e+09
1595.000000 5.74433000e+09
1605.000000 5.69856000e+09
1615.000000 5.66331000e+09
1625.000000 5.45230000e+09
1635.000000 5.71515000e+09
1645.000000 5.67191000e+09
1655.000000 5.35077000e+09
1665.000000 5.73080000e+09
1672.000000 5.48118000e+09
1677.000000 5.64412000e+09
1685.000000 5.68632000e+09
1695.000000 5.37566000e+09
1705.000000 5.10246000e+09
1715.000000 4.80847000e+09
1725.000000 4.72098000e+09
1735.000000 4.96044000e+09
1745.000000 4.76778000e+09
1755.000000 4.90808000e+09
1765.000000 4.57170000e+09
1775.000000 4.54485000e+09
1785.000000 4.58795000e+09
1795.000000 4.77947000e+09
1805.000000 4.77580000e+09
1815.000000 4.30739000e+09
1825.000000 4.47941000e+09
1835.000000 4.25115000e+09
1845.000000 3.90173000e+09
1855.000000 3.80493000e+09
1865.000000 3.86995000e+09
1875.000000 4.18486000e+09
1885.000000 3.74787000e+09
1895.000000 3.51098000e+09
1905.000000 3.79395000e+09
1915.000000 3.54527000e+09
1925.000000 3.43554000e+09
1935.000000 3.57932000e+09
1945.000000 3.63970000e+09
1955.000000 3.34008000e+09
1967.000000 3.61891000e+09
1976.000000 3.75998000e+09
1984.000000 3.46232000e+09
1995.000000 3.38486000e+09
2005.000000 3.49119000e+09
2015.000000 3.34909000e+09
2025.000000 3.55854000e+09
2035.000000 3.26193000e+09
2045.000000 3.30911000e+09
2055.000000 3.18902000e+09
2065.000000 3.23419000e+09
2074.000000 3.34640000e+09
2078.000000 3.09579000e+09
2085.000000 3.22227000e+09
2095.000000 3.02927000e+09
2105.000000 3.11006000e+09
2115.000000 3.09908000e+09
2125.000000 3.14457000e+09
2135.000000 3.03402000e+09
2145.000000 2.93538000e+09
2155.000000 3.03361000e+09
2165.000000 2.97969000e+09
2175.000000 2.93914000e+09
2185.000000 2.85311000e+09
2195.000000 2.89630000e+09
2205.000000 2.83258000e+09
2215.000000 2.76990000e+09
2225.000000 2.67064000e+09
2235.000000 2.71806000e+09
2245.000000 2.69024000e+09
2255.000000 2.58553000e+09
2265.000000 2.63919000e+09
2275.000000 2.61946000e+09
2285.000000 2.62451000e+09
2295.000000 2.49976000e+09
2305.000000 2.49883000e+09
2315.000000 2.41901000e+09
2325.000000 2.38709000e+09
2335.000000 2.28778000e+09
2345.000000 2.26030000e+09
2355.000000 2.27728000e+09
2365.000000 2.21246000e+09
2375.000000 2.21050000e+09
2385.000000 2.15306000e+09
2395.000000 2.20113000e+09
2405.000000 2.11421000e+09
2415.000000 2.12464000e+09
2425.000000 2.13560000e+09
2435.000000 2.04973000e+09
2445.000000 2.07975000e+09
2455.000000 2.06772000e+09
2465.000000 2.02568000e+09
2475.000000 1.98813000e+09
2485.000000 2.01200000e+09
2495.000000 1.92891000e+09
2505.000000 1.97453000e+09
2513.000000 1.87208000e+09
2518.000000 1.94136000e+09
2525.000000 1.87401000e+09
2535.000000 1.85263000e+09
2545.000000 1.80454000e+09
2555.000000 1.84561000e+09
2565.000000 1.82008000e+09
2575.000000 1.83983000e+09
2585.000000 1.83459000e+09
2595.000000 1.81791000e+09
2605.000000 1.78665000e+09
2615.000000 1.77208000e+09
2625.000000 1.75521000e+09
2635.000000 1.74609000e+09
2645.000000 1.75957000e+09
2655.000000 1.74629000e+09
2665.000000 1.68356000e+09
2675.000000 1.69695000e+09
2685.000000 1.68256000e+09
2695.000000 1.63690000e+09
2705.000000 1.63182000e+09
2715.000000 1.60653000e+09
2725.000000 1.58046000e+09
2735.000000 1.59722000e+09
2745.000000 1.52246000e+09
2755.000000 1.52101000e+09
2765.000000 1.51500000e+09
2775.000000 1.53493000e+09
2785.000000 1.51431000e+09
2795.000000 1.44263000e+09
2805.000000 1.47277000e+09
2815.000000 1.47963000e+09
2825.000000 1.44860000e+09
2835.000000 1.38955000e+09
2845.000000 1.40056000e+09
2855.000000 1.39839000e+09
2865.000000 1.40673000e+09
2875.000000 1.38320000e+09
2885.000000 1.37195000e+09
2895.000000 1.35993000e+09
2910.000000 1.34247000e+09
2930.000000 1.31087000e+09
2950.000000 1.27380000e+09
2970.000000 1.26367000e+09
2990.000000 1.23219000e+09
3010.000000 1.21263000e+09
3030.000000 1.19897000e+09
3050.000000 1.17326000e+09
3070.000000 1.15043000e+09
3090.000000 1.12434000e+09
3110.000000 1.10443000e+09
3130.000000 1.08629000e+09
3150.000000 1.06566000e+09
3170.000000 1.04176000e+09
3190.000000 1.01112000e+09
3210.000000 1.00466000e+09
3230.000000 9.87096000e+08
3250.000000 9.70027000e+08
3270.000000 9.53089000e+08
3290.000000 9.34854000e+08
3310.000000 9.20118000e+08
3330.000000 9.02508000e+08
3350.000000 8.84345000e+08
3370.000000 8.69733000e+08
3390.000000 8.55042000e+08
3410.000000 8.40344000e+08
3430.000000 8.22023000e+08
3450.000000 8.04924000e+08
3470.000000 7.92668000e+08
3490.000000 7.78939000e+08
3510.000000 7.66296000e+08
3530.000000 7.54432000e+08
3550.000000 7.42159000e+08
3570.000000 7.34015000e+08
3590.000000 7.13758000e+08
3610.000000 7.04368000e+08
3630.000000 6.91996000e+08
3640.000000 6.92066000e+08
3650.000000 6.81605000e+08
3670.000000 6.73693000e+08
3690.000000 6.63062000e+08
3710.000000 6.40441000e+08
3730.000000 6.13310000e+08
3750.000000 6.16430000e+08
3770.000000 6.05931000e+08
3790.000000 6.48283000e+08
3810.000000 6.86859000e+08
3830.000000 5.85477000e+08
3850.000000 7.19325000e+08
3870.000000 7.47905000e+08
3890.000000 5.45124000e+08
3910.000000 7.47022000e+08
3930.000000 7.42756000e+08
3950.000000 7.24846000e+08
3970.000000 5.09344000e+08
3990.000000 6.88142000e+08
4010.000000 7.08917000e+08
4030.000000 6.50912000e+08
4050.000000 6.97969000e+08
4070.000000 6.69316000e+08
4090.000000 5.82026000e+08
4110.000000 4.94148000e+08
4130.000000 6.24058000e+08
4150.000000 6.30154000e+08
4170.000000 6.29973000e+08
4190.000000 6.24982000e+08
4210.000000 6.17953000e+08
4230.000000 6.05828000e+08
4250.000000 5.93131000e+08
4270.000000 5.72753000e+08
4290.000000 5.71109000e+08
4310.000000 5.51442000e+08
4330.000000 4.66509000e+08
4350.000000 4.19982000e+08
4370.000000 5.19557000e+08
4390.000000 5.04766000e+08
4410.000000 5.18736000e+08
4430.000000 5.10205000e+08
4450.000000 5.06219000e+08
4470.000000 4.63782000e+08
4490.000000 4.85261000e+08
4510.000000 4.85708000e+08
4530.000000 4.76142000e+08
4550.000000 4.69654000e+08
4570.000000 4.62900000e+08
4590.000000 4.55835000e+08
4610.000000 4.47227000e+08
4630.000000 4.38925000e+08
4650.000000 4.31899000e+08
4670.000000 4.28001000e+08
4690.000000 4.23159000e+08
4710.000000 4.05359000e+08
4730.000000 4.06249000e+08
4750.000000 4.00197000e+08
4770.000000 3.98819000e+08
4790.000000 3.91144000e+08
4810.000000 3.81596000e+08
4830.000000 3.70643000e+08
4850.000000 3.22813000e+08
4870.000000 2.82933000e+08
4890.000000 3.52182000e+08
4910.000000 3.54616000e+08
4930.000000 3.38802000e+08
4950.000000 3.48093000e+08
4970.000000 3.44763000e+08
4990.000000 3.39282000e+08
5010.000000 3.24391000e+08
5030.000000 3.28368000e+08
5050.000000 3.18253000e+08
5070.000000 3.20643000e+08
5090.000000 3.15903000e+08
5110.000000 3.10550000e+08
5130.000000 3.04511000e+08
5150.000000 3.00134000e+08
5170.000000 2.98718000e+08
5190.000000 2.94644000e+08
5210.000000 2.87737000e+08
5230.000000 2.86697000e+08
5250.000000 2.82972000e+08
5270.000000 2.78713000e+08
5290.000000 2.75828000e+08
5310.000000 2.71844000e+08
5330.000000 2.67792000e+08
5350.000000 2.63372000e+08
5370.000000 2.61414000e+08
5390.000000 2.57895000e+08
5410.000000 2.54254000e+08
5430.000000 2.50213000e+08
5450.000000 2.47263000e+08
5470.000000 2.43809000e+08
5490.000000 2.41386000e+08
5510.000000 2.38160000e+08
5530.000000 2.35061000e+08
5550.000000 2.32294000e+08
5570.000000 2.29147000e+08
5590.000000 2.26425000e+08
5610.000000 2.23233000e+08
5630.000000 2.20985000e+08
5650.000000 2.16060000e+08
5670.000000 2.13378000e+08
5690.000000 2.11438000e+08
5710.000000 2.09636000e+08
5730.000000 2.07189000e+08
5750.000000 2.04474000e+08
5770.000000 2.02244000e+08
5790.000000 1.99680000e+08
5810.000000 1.97136000e+08
5830.000000 1.94622000e+08
5850.000000 1.92325000e+08
5870.000000 1.82062000e+08
5890.000000 1.85541000e+08
5910.000000 1.85172000e+08
5930.000000 1.83025000e+08
5950.000000 1.80168000e+08
5970.000000 1.78826000e+08
5990.000000 1.76248000e+08
6010.000000 1.74670000e+08
6030.000000 1.72467000e+08
6050.000000 1.70494000e+08
6070.000000 1.68493000e+08
6090.000000 1.66383000e+08
6110.000000 1.64559000e+08
6130.000000 1.62685000e+08
6150.000000 1.59816000e+08
6170.000000 1.58722000e+08
6190.000000 1.57039000e+08
6210.000000 1.55209000e+08
6230.000000 1.53350000e+08
6250.000000 1.51126000e+08
6270.000000 1.49770000e+08
6290.000000 1.48067000e+08
6310.000000 1.46212000e+08
6330.000000 1.44782000e+08
6350.000000 1.42152000e+08
6370.000000 1.40945000e+08
6390.000000 1.39788000e+08
6410.000000 1.38147000e+08
6430.000000 1.36869000e+08
6450.000000 1.35171000e+08
6470.000000 1.33346000e+08
6490.000000 1.31801000e+08
6510.000000 1.29935000e+08
6530.000000 1.27214000e+08
6550.000000 1.17201000e+08
6570.000000 1.01747000e+08
6590.000000 1.20501000e+08
6610.000000 1.22670000e+08
6630.000000 1.22000000e+08
6650.000000 1.20892000e+08
6670.000000 1.17958000e+08
6690.000000 1.16850000e+08
6710.000000 1.17234000e+08
6730.000000 1.15939000e+08
6750.000000 1.14799000e+08
6770.000000 1.13595000e+08
6790.000000 1.11734000e+08
6810.000000 1.11054000e+08
6830.000000 1.09856000e+08
6850.000000 1.08814000e+08
6870.000000 1.07678000e+08
6890.000000 1.06530000e+08
6910.000000 1.05410000e+08
6930.000000 1.04174000e+08
6950.000000 1.03240000e+08
6970.000000 1.02183000e+08
6990.000000 1.01091000e+08
7010.000000 1.00024000e+08
7030.000000 9.89907000e+07
7050.000000 9.78538000e+07
7070.000000 9.51605000e+07
7090.000000 9.60183000e+07
7110.000000 9.49050000e+07
7130.000000 9.39806000e+07
7150.000000 9.30429000e+07
7170.000000 9.21362000e+07
7190.000000 9.12454000e+07
7210.000000 9.03195000e+07
7230.000000 8.82566000e+07
7250.000000 8.84297000e+07
7270.000000 8.76302000e+07
7290.000000 8.59946000e+07
7310.000000 8.58842000e+07
7330.000000 8.50376000e+07
7350.000000 8.42058000e+07
7370.000000 8.33679000e+07
7390.000000 8.25448000e+07
7410.000000 8.17362000e+07
7430.000000 8.08259000e+07
7450.000000 8.01142000e+07
7470.000000 7.92132000e+07
7490.000000 7.85221000e+07
7510.000000 7.77704000e+07
7530.000000 7.70257000e+07
7550.000000 7.63207000e+07
7570.000000 7.55958000e+07
7590.000000 7.48448000e+07
7610.000000 7.41527000e+07
7630.000000 7.34409000e+07
7650.000000 7.27420000e+07
7670.000000 7.20493000e+07
7690.000000 7.13565000e+07
7710.000000 7.06889000e+07
7730.000000 7.00021000e+07
7750.000000 6.93590000e+07
7770.000000 6.81288000e+07
7790.000000 6.80588000e+07
7810.000000 6.74018000e+07
7830.000000 6.67999000e+07
7850.000000 6.60075000e+07
7870.000000 6.54291000e+07
7890.000000 6.46803000e+07
7910.000000 6.43596000e+07
7930.000000 6.37958000e+07
7950.000000 6.30103000e+07
7970.000000 6.25758000e+07
7990.000000 6.17731000e+07
8010.000000 6.14709000e+07
8030.000000 6.08613000e+07
8050.000000 6.02686000e+07
8070.000000 5.97562000e+07
8090.000000 5.91272000e+07
8110.000000 5.86240000e+07
8130.000000 5.81308000e+07
8150.000000 5.75963000e+07
8170.000000 5.71396000e+07
8190.000000 5.65183000e+07
8210.000000 5.58688000e+07
8230.000000 5.53507000e+07
8250.000000 5.50832000e+07
8270.000000 5.43841000e+07
8290.000000 5.40930000e+07
8310.000000 5.36436000e+07
8330.000000 5.31692000e+07
8350.000000 5.25014000e+07
8370.000000 5.21583000e+07
8390.000000 5.18281000e+07
8410.000000 5.13736000e+07
8430.000000 5.08841000e+07
8450.000000 4.99233000e+07
8470.000000 5.00113000e+07
8490.000000 4.94305000e+07
8510.000000 4.90507000e+07
8530.000000 4.85957000e+07
8550.000000 4.79177000e+07
8570.000000 4.80144000e+07
8590.000000 4.65453000e+07
8610.000000 4.65219000e+07
8630.000000 4.70309000e+07
8650.000000 4.57100000e+07
8670.000000 4.39372000e+07
8690.000000 4.57212000e+07
8710.000000 4.60528000e+07
8730.000000 4.44614000e+07
8750.000000 4.09970000e+07
8770.000000 4.29860000e+07
8790.000000 4.47507000e+07
8810.000000 4.48414000e+07
8830.000000 4.38577000e+07
8850.000000 4.05553000e+07
8870.000000 3.79354000e+07
8890.000000 4.19387000e+07
8910.000000 4.30589000e+07
8930.000000 4.30420000e+07
8950.000000 4.28800000e+07
8970.000000 4.21608000e+07
8990.000000 4.02091000e+07
9010.000000 3.54820000e+07
9030.000000 3.69259000e+07
9050.000000 3.99661000e+07
9070.000000 4.01390000e+07
9090.000000 4.03807000e+07
9110.000000 4.03697000e+07
9130.000000 4.00909000e+07
9150.000000 3.97228000e+07
9170.000000 3.90842000e+07
9190.000000 3.82416000e+07
9210.000000 3.57196000e+07
9230.000000 3.13118000e+07
9250.000000 3.48636000e+07
9270.000000 3.65748000e+07
9290.000000 3.72669000e+07
9310.000000 3.70492000e+07
9330.000000 3.69740000e+07
9350.000000 3.67501000e+07
9370.000000 3.65024000e+07
9390.000000 3.62022000e+07
9410.000000 3.56894000e+07
9430.000000 3.56149000e+07
9450.000000 3.52888000e+07
9470.000000 3.46572000e+07
9490.000000 3.44072000e+07
9510.000000 3.32779000e+07
9530.000000 3.09602000e+07
9550.000000 2.74902000e+07
9570.000000 3.11923000e+07
9590.000000 3.26291000e+07
9610.000000 3.27904000e+07
9630.000000 3.24516000e+07
9650.000000 3.26401000e+07
9670.000000 3.24057000e+07
9690.000000 3.21858000e+07
9710.000000 3.18796000e+07
9730.000000 3.17490000e+07
9750.000000 3.14850000e+07
9770.000000 3.12642000e+07
9790.000000 3.10187000e+07
9810.000000 3.07773000e+07
9830.000000 3.05258000e+07
9850.000000 3.03049000e+07
9870.000000 3.00654000e+07
9890.000000 2.98042000e+07
9910.000000 2.94101000e+07
9930.000000 2.93273000e+07
9950.000000 2.90660000e+07
9970.000000 2.87665000e+07
9990.000000 2.84011000e+07
10025.000000 2.62045000e+07
10075.000000 2.51946000e+07
10125.000000 2.69469000e+07
10175.000000 2.67457000e+07
10225.000000 2.63028000e+07
10275.000000 2.58365000e+07
10325.000000 2.52392000e+07
10375.000000 2.49080000e+07
10425.000000 2.44616000e+07
10475.000000 2.40182000e+07
10525.000000 2.35807000e+07
10575.000000 2.31679000e+07
10625.000000 2.27628000e+07
10675.000000 2.22631000e+07
10725.000000 2.19604000e+07
10775.000000 2.15731000e+07
10825.000000 2.08914000e+07
10875.000000 2.05605000e+07
10925.000000 1.80926000e+07
10975.000000 1.90866000e+07
11025.000000 1.95235000e+07
11075.000000 1.93817000e+07
11125.000000 1.91196000e+07
11175.000000 1.87944000e+07
11225.000000 1.84719000e+07
11275.000000 1.81179000e+07
11325.000000 1.78340000e+07
11375.000000 1.75713000e+07
11425.000000 1.72741000e+07
11475.000000 1.69989000e+07
11525.000000 1.67195000e+07
11575.000000 1.64410000e+07
11625.000000 1.61641000e+07
11675.000000 1.59077000e+07
11725.000000 1.56575000e+07
11775.000000 1.53770000e+07
11825.000000 1.51621000e+07
11875.000000 1.49166000e+07
11925.000000 1.46863000e+07
11975.000000 1.42505000e+07
12025.000000 1.42268000e+07
12075.000000 1.40033000e+07
12125.000000 1.37838000e+07
12175.000000 1.35699000e+07
12225.000000 1.33595000e+07
12275.000000 1.31522000e+07
12325.000000 1.29504000e+07
12375.000000 1.27525000e+07
12425.000000 1.25593000e+07
12475.000000 1.23559000e+07
12525.000000 1.21518000e+07
12575.000000 1.19875000e+07
12625.000000 1.18114000e+07
12675.000000 1.16230000e+07
12725.000000 1.14013000e+07
12775.000000 1.09108000e+07
12825.000000 9.85292000e+06
12875.000000 1.07311000e+07
12925.000000 1.07517000e+07
12975.000000 1.05406000e+07
13025.000000 1.04906000e+07
13075.000000 1.03389000e+07
