# Kurucz ODFNEW /NOVER, alpha: 0.0 (2003)
# teff = 20000 K (value for the effective temperature for the model. Temperatures are given in K)
# logg = 3.5 log(cm/s2) (value for Log(G) for the model.)
# lh = 1.25  (l/Hp where l is the  mixing length of the convective element and Hp is the pressure scale height)
# meta = -2.5  (value for the Metallicity for the model.)
# vtur = 2 km/s (Microturbulence velocity)
# alpha = 0  (Alpha)
#
# column 1: WAVELENGTH (ANGSTROM), Wavelength in Angstrom
# column 2: FLUX (ERG/CM2/S/A), Flux in erg/cm2/s/A
147.200000 1.56973000e-20
151.000000 1.13088000e-19
155.200000 8.94909000e-19
158.800000 4.82463000e-18
162.000000 2.02432000e-17
166.000000 1.12312000e-16
170.300000 6.46473000e-16
173.400000 2.16108000e-15
176.800000 7.72375000e-15
180.200000 2.62731000e-14
181.700000 4.44203000e-14
186.100000 1.97136000e-13
191.000000 9.53374000e-13
193.900000 2.33079000e-12
198.400000 8.84548000e-12
201.800000 2.32579000e-11
205.000000 5.60401000e-11
210.500000 2.38092000e-10
216.200000 9.83282000e-10
219.800000 2.31502000e-09
223.000000 4.83667000e-09
226.800000 1.12788000e-08
230.000000 2.60321000e-08
234.000000 6.12024000e-08
240.000000 1.99948000e-07
246.500000 6.73636000e-07
252.400000 1.92026000e-06
256.800000 4.04383000e-06
260.000000 6.86918000e-06
264.000000 1.30285000e-05
268.500000 2.61257000e-05
273.500000 5.50270000e-05
278.500000 1.12739000e-04
284.000000 2.40631000e-04
290.000000 5.31498000e-04
296.000000 1.13454000e-03
301.000000 2.08338000e-03
308.000000 4.70237000e-03
318.000000 1.41350000e-02
328.000000 3.95029000e-02
338.000000 1.03475000e-01
348.000000 2.55474000e-01
357.000000 5.50009000e-01
366.000000 1.13717000e+00
375.000000 2.26410000e+00
385.000000 4.67172000e+00
395.000000 9.26413000e+00
405.000000 1.77073000e+01
414.000000 3.08116000e+01
422.000000 4.93262000e+01
430.000000 7.74669000e+01
441.000000 1.39942000e+02
451.000000 2.33038000e+02
460.000000 3.61151000e+02
470.000000 5.74900000e+02
480.000000 8.95664000e+02
490.000000 1.36760000e+03
500.000000 2.04911000e+03
506.000000 1.27760000e+04
512.000000 3.71449000e+04
520.000000 4.85987000e+04
530.000000 7.44983000e+04
540.000000 8.35742000e+04
550.000000 1.26905000e+05
560.000000 1.60867000e+05
570.000000 2.03705000e+05
580.000000 2.09206000e+05
590.000000 2.88462000e+05
600.000000 3.85310000e+05
610.000000 4.72091000e+05
620.000000 5.69828000e+05
630.000000 6.85013000e+05
640.000000 8.10355000e+05
650.000000 9.66211000e+05
658.000000 1.10505000e+06
665.000000 1.23491000e+06
675.000000 1.43209000e+06
685.000000 1.65874000e+06
695.000000 1.94119000e+06
705.000000 2.23070000e+06
716.000000 2.58707000e+06
726.000000 2.94421000e+06
735.000000 3.31209000e+06
745.000000 3.75321000e+06
755.000000 4.23227000e+06
765.000000 4.74986000e+06
775.000000 5.32078000e+06
785.000000 5.93493000e+06
795.000000 6.59370000e+06
805.000000 7.30583000e+06
815.000000 8.06348000e+06
825.000000 8.89095000e+06
835.000000 9.66699000e+06
845.000000 1.06852000e+07
855.000000 1.16411000e+07
865.000000 1.27304000e+07
875.000000 1.38523000e+07
885.000000 1.50403000e+07
895.000000 1.62779000e+07
905.000000 1.74127000e+07
915.000000 3.43420000e+07
925.000000 3.09798000e+08
935.000000 1.31580000e+09
945.000000 4.77838000e+09
955.000000 6.96269000e+09
965.000000 9.04944000e+09
975.000000 3.55724000e+09
985.000000 1.04629000e+10
995.000000 1.03039000e+10
1005.000000 1.05922000e+10
1015.000000 9.48602000e+09
1025.000000 2.78668000e+09
1035.000000 8.46848000e+09
1045.000000 1.04920000e+10
1055.000000 1.03079000e+10
1065.000000 9.65252000e+09
1075.000000 9.97060000e+09
1085.000000 9.40491000e+09
1095.000000 9.80293000e+09
1105.000000 9.40508000e+09
1115.000000 9.35380000e+09
1125.000000 8.92393000e+09
1135.000000 9.08642000e+09
1145.000000 8.76720000e+09
1155.000000 8.88489000e+09
1165.000000 8.76576000e+09
1175.000000 7.92957000e+09
1185.000000 8.43749000e+09
1195.000000 7.81225000e+09
1205.000000 6.60277000e+09
1215.000000 1.78822000e+09
1225.000000 6.39998000e+09
1235.000000 7.57201000e+09
1245.000000 7.59158000e+09
1255.000000 7.46367000e+09
1265.000000 7.33342000e+09
1275.000000 7.35510000e+09
1285.000000 7.23468000e+09
1295.000000 6.79293000e+09
1305.000000 6.77351000e+09
1315.000000 6.89245000e+09
1325.000000 6.69181000e+09
1335.000000 6.44037000e+09
1345.000000 6.54655000e+09
1355.000000 6.48003000e+09
1365.000000 6.35085000e+09
1375.000000 6.24825000e+09
1385.000000 6.16483000e+09
1395.000000 5.96739000e+09
1405.000000 5.91786000e+09
1415.000000 5.87252000e+09
1425.000000 5.79762000e+09
1435.000000 5.71765000e+09
1442.000000 5.66553000e+09
1447.000000 5.61889000e+09
1455.000000 5.54713000e+09
1465.000000 5.45516000e+09
1475.000000 5.37521000e+09
1485.000000 5.28888000e+09
1495.000000 5.20960000e+09
1505.000000 5.10833000e+09
1512.000000 5.04697000e+09
1517.000000 5.02276000e+09
1525.000000 4.95594000e+09
1535.000000 4.82155000e+09
1545.000000 4.79390000e+09
1555.000000 4.69271000e+09
1565.000000 4.67185000e+09
1575.000000 4.61711000e+09
1585.000000 4.54989000e+09
1595.000000 4.49020000e+09
1605.000000 4.38251000e+09
1615.000000 4.31772000e+09
1625.000000 4.28942000e+09
1635.000000 4.23725000e+09
1645.000000 4.15234000e+09
1655.000000 4.11208000e+09
1665.000000 4.06745000e+09
1672.000000 3.97161000e+09
1677.000000 4.00195000e+09
1685.000000 3.95528000e+09
1695.000000 3.88947000e+09
1705.000000 3.82687000e+09
1715.000000 3.76099000e+09
1725.000000 3.71421000e+09
1735.000000 3.67240000e+09
1745.000000 3.61633000e+09
1755.000000 3.58122000e+09
1765.000000 3.47751000e+09
1775.000000 3.46690000e+09
1785.000000 3.43017000e+09
1795.000000 3.39054000e+09
1805.000000 3.34949000e+09
1815.000000 3.29450000e+09
1825.000000 3.25533000e+09
1835.000000 3.21166000e+09
1845.000000 3.13931000e+09
1855.000000 3.05750000e+09
1865.000000 3.03574000e+09
1875.000000 3.03677000e+09
1885.000000 2.95512000e+09
1895.000000 2.88708000e+09
1905.000000 2.90461000e+09
1915.000000 2.82853000e+09
1925.000000 2.79170000e+09
1935.000000 2.77992000e+09
1945.000000 2.76476000e+09
1955.000000 2.68756000e+09
1967.000000 2.68855000e+09
1976.000000 2.67232000e+09
1984.000000 2.62296000e+09
1995.000000 2.56127000e+09
2005.000000 2.56671000e+09
2015.000000 2.54594000e+09
2025.000000 2.52067000e+09
2035.000000 2.47895000e+09
2045.000000 2.44810000e+09
2055.000000 2.39275000e+09
2065.000000 2.37184000e+09
2074.000000 2.37626000e+09
2078.000000 2.33240000e+09
2085.000000 2.33227000e+09
2095.000000 2.28938000e+09
2105.000000 2.27856000e+09
2115.000000 2.25647000e+09
2125.000000 2.23495000e+09
2135.000000 2.20679000e+09
2145.000000 2.17644000e+09
2155.000000 2.15491000e+09
2165.000000 2.12942000e+09
2175.000000 2.10343000e+09
2185.000000 2.08028000e+09
2195.000000 2.05730000e+09
2205.000000 2.03256000e+09
2215.000000 2.00888000e+09
2225.000000 1.98431000e+09
2235.000000 1.96230000e+09
2245.000000 1.94089000e+09
2255.000000 1.91750000e+09
2265.000000 1.89700000e+09
2275.000000 1.87519000e+09
2285.000000 1.85485000e+09
2295.000000 1.82549000e+09
2305.000000 1.81280000e+09
2315.000000 1.79127000e+09
2325.000000 1.77192000e+09
2335.000000 1.74980000e+09
2345.000000 1.72771000e+09
2355.000000 1.71328000e+09
2365.000000 1.69215000e+09
2375.000000 1.67492000e+09
2385.000000 1.65303000e+09
2395.000000 1.63630000e+09
2405.000000 1.61927000e+09
2415.000000 1.60097000e+09
2425.000000 1.58664000e+09
2435.000000 1.56856000e+09
2445.000000 1.55178000e+09
2455.000000 1.53616000e+09
2465.000000 1.51883000e+09
2475.000000 1.50307000e+09
2485.000000 1.48691000e+09
2495.000000 1.46237000e+09
2505.000000 1.45558000e+09
2513.000000 1.43977000e+09
2518.000000 1.43548000e+09
2525.000000 1.42440000e+09
2535.000000 1.40849000e+09
2545.000000 1.39349000e+09
2555.000000 1.38128000e+09
2565.000000 1.36589000e+09
2575.000000 1.35309000e+09
2585.000000 1.33886000e+09
2595.000000 1.32481000e+09
2605.000000 1.32127000e+09
2615.000000 1.30843000e+09
2625.000000 1.29454000e+09
2635.000000 1.27746000e+09
2645.000000 1.26701000e+09
2655.000000 1.25257000e+09
2665.000000 1.23826000e+09
2675.000000 1.22559000e+09
2685.000000 1.22024000e+09
2695.000000 1.19990000e+09
2705.000000 1.19583000e+09
2715.000000 1.18366000e+09
2725.000000 1.16327000e+09
2735.000000 1.16032000e+09
2745.000000 1.14598000e+09
2755.000000 1.13520000e+09
2765.000000 1.11720000e+09
2775.000000 1.11537000e+09
2785.000000 1.10427000e+09
2795.000000 1.08432000e+09
2805.000000 1.07924000e+09
2815.000000 1.07249000e+09
2825.000000 1.05245000e+09
2835.000000 1.04686000e+09
2845.000000 1.04152000e+09
2855.000000 1.03165000e+09
2865.000000 1.02184000e+09
2875.000000 1.01201000e+09
2885.000000 1.00238000e+09
2895.000000 9.92907000e+08
2910.000000 9.78827000e+08
2930.000000 9.60287000e+08
2950.000000 9.36878000e+08
2970.000000 9.25028000e+08
2990.000000 9.07849000e+08
3010.000000 8.91250000e+08
3030.000000 8.75051000e+08
3050.000000 8.59117000e+08
3070.000000 8.43603000e+08
3090.000000 8.28378000e+08
3110.000000 8.13590000e+08
3130.000000 8.00034000e+08
3150.000000 7.85769000e+08
3170.000000 7.71611000e+08
3190.000000 7.52711000e+08
3210.000000 7.44787000e+08
3230.000000 7.31764000e+08
3250.000000 7.19005000e+08
3270.000000 7.07348000e+08
3290.000000 6.94423000e+08
3310.000000 6.83443000e+08
3330.000000 6.71861000e+08
3350.000000 6.59499000e+08
3370.000000 6.49439000e+08
3390.000000 6.38618000e+08
3410.000000 6.27974000e+08
3430.000000 6.15389000e+08
3450.000000 6.03463000e+08
3470.000000 5.95119000e+08
3490.000000 5.85534000e+08
3510.000000 5.78483000e+08
3530.000000 5.69528000e+08
3550.000000 5.60528000e+08
3570.000000 5.53556000e+08
3590.000000 5.42348000e+08
3610.000000 5.34419000e+08
3630.000000 5.25201000e+08
3640.000000 5.23655000e+08
3650.000000 5.19178000e+08
3670.000000 5.12836000e+08
3690.000000 4.96833000e+08
3710.000000 4.89876000e+08
3730.000000 4.85828000e+08
3750.000000 5.45919000e+08
3770.000000 5.54403000e+08
3790.000000 5.84184000e+08
3810.000000 6.12661000e+08
3830.000000 5.32417000e+08
3850.000000 6.30242000e+08
3870.000000 6.30536000e+08
3890.000000 5.07008000e+08
3910.000000 6.20387000e+08
3930.000000 6.09869000e+08
3950.000000 6.00980000e+08
3970.000000 4.71769000e+08
3990.000000 5.78603000e+08
4010.000000 5.72236000e+08
4030.000000 5.43490000e+08
4050.000000 5.59794000e+08
4070.000000 5.48802000e+08
4090.000000 5.11559000e+08
4110.000000 4.43656000e+08
4130.000000 5.16496000e+08
4150.000000 5.11245000e+08
4170.000000 5.06353000e+08
4190.000000 4.99857000e+08
4210.000000 4.91973000e+08
4230.000000 4.84216000e+08
4250.000000 4.76603000e+08
4270.000000 4.68802000e+08
4290.000000 4.61841000e+08
4310.000000 4.52799000e+08
4330.000000 4.14467000e+08
4350.000000 3.76222000e+08
4370.000000 4.31553000e+08
4390.000000 4.17289000e+08
4410.000000 4.20893000e+08
4430.000000 4.12629000e+08
4450.000000 4.08300000e+08
4470.000000 3.87365000e+08
4490.000000 3.95919000e+08
4510.000000 3.90248000e+08
4530.000000 3.84442000e+08
4550.000000 3.78722000e+08
4570.000000 3.73142000e+08
4590.000000 3.67680000e+08
4610.000000 3.62280000e+08
4630.000000 3.56996000e+08
4650.000000 3.51771000e+08
4670.000000 3.46709000e+08
4690.000000 3.41703000e+08
4710.000000 3.32829000e+08
4730.000000 3.31907000e+08
4750.000000 3.27097000e+08
4770.000000 3.22588000e+08
4790.000000 3.18012000e+08
4810.000000 3.13451000e+08
4830.000000 3.07680000e+08
4850.000000 2.86329000e+08
4870.000000 2.54230000e+08
4890.000000 2.94189000e+08
4910.000000 2.91703000e+08
4930.000000 2.82273000e+08
4950.000000 2.84210000e+08
4970.000000 2.80310000e+08
4990.000000 2.76479000e+08
5010.000000 2.69683000e+08
5030.000000 2.69002000e+08
5050.000000 2.63788000e+08
5070.000000 2.61784000e+08
5090.000000 2.58263000e+08
5110.000000 2.54802000e+08
5130.000000 2.51402000e+08
5150.000000 2.48047000e+08
5170.000000 2.44764000e+08
5190.000000 2.41525000e+08
5210.000000 2.38328000e+08
5230.000000 2.35214000e+08
5250.000000 2.32127000e+08
5270.000000 2.29093000e+08
5290.000000 2.26126000e+08
5310.000000 2.23183000e+08
5330.000000 2.20304000e+08
5350.000000 2.17463000e+08
5370.000000 2.14683000e+08
5390.000000 2.11926000e+08
5410.000000 2.09229000e+08
5430.000000 2.06566000e+08
5450.000000 2.03949000e+08
5470.000000 2.01378000e+08
5490.000000 1.98838000e+08
5510.000000 1.96343000e+08
5530.000000 1.93890000e+08
5550.000000 1.91468000e+08
5570.000000 1.89088000e+08
5590.000000 1.86749000e+08
5610.000000 1.84438000e+08
5630.000000 1.82167000e+08
5650.000000 1.79924000e+08
5670.000000 1.77731000e+08
5690.000000 1.75553000e+08
5710.000000 1.73436000e+08
5730.000000 1.71332000e+08
5750.000000 1.69253000e+08
5770.000000 1.67222000e+08
5790.000000 1.65215000e+08
5810.000000 1.63231000e+08
5830.000000 1.61282000e+08
5850.000000 1.59366000e+08
5870.000000 1.53307000e+08
5890.000000 1.55515000e+08
5910.000000 1.53785000e+08
5930.000000 1.51978000e+08
5950.000000 1.50192000e+08
5970.000000 1.48437000e+08
5990.000000 1.46701000e+08
6010.000000 1.45007000e+08
6030.000000 1.43321000e+08
6050.000000 1.41665000e+08
6070.000000 1.40038000e+08
6090.000000 1.38429000e+08
6110.000000 1.36848000e+08
6130.000000 1.35285000e+08
6150.000000 1.33749000e+08
6170.000000 1.32230000e+08
6190.000000 1.30728000e+08
6210.000000 1.29262000e+08
6230.000000 1.27803000e+08
6250.000000 1.26369000e+08
6270.000000 1.24960000e+08
6290.000000 1.23567000e+08
6310.000000 1.22189000e+08
6330.000000 1.20835000e+08
6350.000000 1.19486000e+08
6370.000000 1.18180000e+08
6390.000000 1.16879000e+08
6410.000000 1.15600000e+08
6430.000000 1.14336000e+08
6450.000000 1.13094000e+08
6470.000000 1.11855000e+08
6490.000000 1.10648000e+08
6510.000000 1.09445000e+08
6530.000000 1.07875000e+08
6550.000000 1.03546000e+08
6570.000000 9.17803000e+07
6590.000000 1.03967000e+08
6610.000000 1.03589000e+08
6630.000000 1.02605000e+08
6650.000000 1.01589000e+08
6670.000000 9.96846000e+07
6690.000000 9.86518000e+07
6710.000000 9.83993000e+07
6730.000000 9.73745000e+07
6750.000000 9.63518000e+07
6770.000000 9.53477000e+07
6790.000000 9.43537000e+07
6810.000000 9.33698000e+07
6830.000000 9.24039000e+07
6850.000000 9.14476000e+07
6870.000000 9.05088000e+07
6890.000000 8.95794000e+07
6910.000000 8.86592000e+07
6930.000000 8.77481000e+07
6950.000000 8.68617000e+07
6970.000000 8.59762000e+07
6990.000000 8.50993000e+07
7010.000000 8.42465000e+07
7030.000000 8.33943000e+07
7050.000000 8.25580000e+07
7070.000000 8.05163000e+07
7090.000000 8.09096000e+07
7110.000000 8.00973000e+07
7130.000000 7.93003000e+07
7150.000000 7.85109000e+07
7170.000000 7.77218000e+07
7190.000000 7.69694000e+07
7210.000000 7.62096000e+07
7230.000000 7.54354000e+07
7250.000000 7.47187000e+07
7270.000000 7.39875000e+07
7290.000000 7.27243000e+07
7310.000000 7.25384000e+07
7330.000000 7.18486000e+07
7350.000000 7.11513000e+07
7370.000000 7.04605000e+07
7390.000000 6.97830000e+07
7410.000000 6.91118000e+07
7430.000000 6.84468000e+07
7450.000000 6.78021000e+07
7470.000000 6.71540000e+07
7490.000000 6.65144000e+07
7510.000000 6.58594000e+07
7530.000000 6.52575000e+07
7550.000000 6.46406000e+07
7570.000000 6.40306000e+07
7590.000000 6.34275000e+07
7610.000000 6.28317000e+07
7630.000000 6.22433000e+07
7650.000000 6.16614000e+07
7670.000000 6.10866000e+07
7690.000000 6.05177000e+07
7710.000000 5.99557000e+07
7730.000000 5.94018000e+07
7750.000000 5.88485000e+07
7770.000000 5.83057000e+07
7790.000000 5.77751000e+07
7810.000000 5.72060000e+07
7830.000000 5.67218000e+07
7850.000000 5.62620000e+07
7870.000000 5.57465000e+07
7890.000000 5.52131000e+07
7910.000000 5.47421000e+07
7930.000000 5.42465000e+07
7950.000000 5.37128000e+07
7970.000000 5.31470000e+07
7990.000000 5.26860000e+07
8010.000000 5.22071000e+07
8030.000000 5.17610000e+07
8050.000000 5.13164000e+07
8070.000000 5.08778000e+07
8090.000000 5.03468000e+07
8110.000000 4.99390000e+07
8130.000000 4.95545000e+07
8150.000000 4.90342000e+07
8170.000000 4.86974000e+07
8190.000000 4.82234000e+07
8210.000000 4.77216000e+07
8230.000000 4.74460000e+07
8250.000000 4.70457000e+07
8270.000000 4.64202000e+07
8290.000000 4.61839000e+07
8310.000000 4.58004000e+07
8330.000000 4.53966000e+07
8350.000000 4.48044000e+07
8370.000000 4.45045000e+07
8390.000000 4.41658000e+07
8410.000000 4.37397000e+07
8430.000000 4.32992000e+07
8450.000000 4.27441000e+07
8470.000000 4.22594000e+07
8490.000000 4.23245000e+07
8510.000000 4.12904000e+07
8530.000000 4.18596000e+07
8550.000000 3.98273000e+07
8570.000000 4.18842000e+07
8590.000000 3.95645000e+07
8610.000000 3.92290000e+07
8630.000000 4.14212000e+07
8650.000000 4.00885000e+07
8670.000000 3.64005000e+07
8690.000000 4.05479000e+07
8710.000000 4.08163000e+07
8730.000000 3.94990000e+07
8750.000000 3.47843000e+07
8770.000000 3.82735000e+07
8790.000000 3.96418000e+07
8810.000000 3.93838000e+07
8830.000000 3.89418000e+07
8850.000000 3.64014000e+07
8870.000000 3.32299000e+07
8890.000000 3.76057000e+07
8910.000000 3.78020000e+07
8930.000000 3.75180000e+07
8950.000000 3.73200000e+07
8970.000000 3.69604000e+07
8990.000000 3.59878000e+07
9010.000000 3.17412000e+07
9030.000000 3.35472000e+07
9050.000000 3.55582000e+07
9070.000000 3.52175000e+07
9090.000000 3.51716000e+07
9110.000000 3.50269000e+07
9130.000000 3.47710000e+07
9150.000000 3.44905000e+07
9170.000000 3.40723000e+07
9190.000000 3.37457000e+07
9210.000000 3.23433000e+07
9230.000000 2.83433000e+07
9250.000000 3.18744000e+07
9270.000000 3.26437000e+07
9290.000000 3.25469000e+07
9310.000000 3.21947000e+07
9330.000000 3.20897000e+07
9350.000000 3.18117000e+07
9370.000000 3.15855000e+07
9390.000000 3.13370000e+07
9410.000000 3.10890000e+07
9430.000000 3.08467000e+07
9450.000000 3.06049000e+07
9470.000000 3.01813000e+07
9490.000000 3.00668000e+07
9510.000000 2.94664000e+07
9530.000000 2.82316000e+07
9550.000000 2.50758000e+07
9570.000000 2.83968000e+07
9590.000000 2.88134000e+07
9610.000000 2.86271000e+07
9630.000000 2.83978000e+07
9650.000000 2.83162000e+07
9670.000000 2.80993000e+07
9690.000000 2.78583000e+07
9710.000000 2.75914000e+07
9730.000000 2.74610000e+07
9750.000000 2.72521000e+07
9770.000000 2.70455000e+07
9790.000000 2.68404000e+07
9810.000000 2.66375000e+07
9830.000000 2.64365000e+07
9850.000000 2.62376000e+07
9870.000000 2.60401000e+07
9890.000000 2.58448000e+07
9910.000000 2.56492000e+07
9930.000000 2.54593000e+07
9950.000000 2.52695000e+07
9970.000000 2.50811000e+07
9990.000000 2.48520000e+07
10025.000000 2.36000000e+07
10075.000000 2.28293000e+07
10125.000000 2.36098000e+07
10175.000000 2.32499000e+07
10225.000000 2.28187000e+07
10275.000000 2.24177000e+07
10325.000000 2.19414000e+07
10375.000000 2.16219000e+07
10425.000000 2.12375000e+07
10475.000000 2.08615000e+07
10525.000000 2.04941000e+07
10575.000000 2.01343000e+07
10625.000000 1.97828000e+07
10675.000000 1.94042000e+07
10725.000000 1.91021000e+07
10775.000000 1.87728000e+07
10825.000000 1.82532000e+07
10875.000000 1.80915000e+07
10925.000000 1.64926000e+07
10975.000000 1.71818000e+07
11025.000000 1.71221000e+07
11075.000000 1.69310000e+07
11125.000000 1.66562000e+07
11175.000000 1.63787000e+07
11225.000000 1.60985000e+07
11275.000000 1.58411000e+07
11325.000000 1.55805000e+07
11375.000000 1.53253000e+07
11425.000000 1.50752000e+07
11475.000000 1.48302000e+07
11525.000000 1.45903000e+07
11575.000000 1.43552000e+07
11625.000000 1.41246000e+07
11675.000000 1.38989000e+07
11725.000000 1.36776000e+07
11775.000000 1.34606000e+07
11825.000000 1.32481000e+07
11875.000000 1.30395000e+07
11925.000000 1.28353000e+07
11975.000000 1.25429000e+07
12025.000000 1.24385000e+07
12075.000000 1.22458000e+07
12125.000000 1.20569000e+07
12175.000000 1.18716000e+07
12225.000000 1.16900000e+07
12275.000000 1.15117000e+07
12325.000000 1.13369000e+07
12375.000000 1.11653000e+07
12425.000000 1.09970000e+07
12475.000000 1.08319000e+07
12525.000000 1.06509000e+07
12575.000000 1.05109000e+07
12625.000000 1.03548000e+07
12675.000000 1.02015000e+07
12725.000000 1.00503000e+07
12775.000000 9.75684000e+06
12825.000000 9.04967000e+06
12875.000000 9.56337000e+06
12925.000000 9.47689000e+06
12975.000000 9.28942000e+06
13025.000000 9.20535000e+06
13075.000000 9.07316000e+06
