# Kurucz ODFNEW /NOVER, alpha: 0.0 (2003)
# teff = 21000 K (value for the effective temperature for the model. Temperatures are given in K)
# logg = 4.5 log(cm/s2) (value for Log(G) for the model.)
# lh = 1.25  (l/Hp where l is the  mixing length of the convective element and Hp is the pressure scale height)
# meta = -1  (value for the Metallicity for the model.)
# vtur = 2 km/s (Microturbulence velocity)
# alpha = 0  (Alpha)
#
# column 1: WAVELENGTH (ANGSTROM), Wavelength in Angstrom
# column 2: FLUX (ERG/CM2/S/A), Flux in erg/cm2/s/A
147.200000 1.38988000e-18
151.000000 8.04067000e-18
155.200000 5.07748000e-17
158.800000 2.28421000e-16
162.000000 8.24114000e-16
166.000000 3.83128000e-15
170.300000 1.84883000e-14
173.400000 5.48764000e-14
176.800000 1.73431000e-13
180.200000 5.25578000e-13
181.700000 8.46232000e-13
186.100000 3.28060000e-12
191.000000 1.38141000e-11
193.900000 3.12679000e-11
198.400000 1.06101000e-10
201.800000 2.57945000e-10
205.000000 5.79863000e-10
210.500000 2.20365000e-09
216.200000 8.19348000e-09
219.800000 1.81393000e-08
223.000000 3.59790000e-08
226.800000 7.91496000e-08
230.000000 3.79136000e-07
234.000000 9.23041000e-07
240.000000 2.75019000e-06
246.500000 8.38868000e-06
252.400000 2.20417000e-05
256.800000 4.32489000e-05
260.000000 7.12554000e-05
264.000000 1.28517000e-04
268.500000 2.43834000e-04
273.500000 4.84113000e-04
278.500000 9.38882000e-04
284.000000 1.89135000e-03
290.000000 3.93178000e-03
296.000000 7.91546000e-03
301.000000 1.38914000e-02
308.000000 2.92364000e-02
318.000000 8.18363000e-02
328.000000 2.12012000e-01
338.000000 5.18776000e-01
348.000000 1.20151000e+00
357.000000 2.45280000e+00
366.000000 4.83075000e+00
375.000000 9.16313000e+00
385.000000 1.80017000e+01
395.000000 3.40596000e+01
405.000000 6.23346000e+01
414.000000 1.04590000e+02
422.000000 1.62184000e+02
430.000000 2.46800000e+02
441.000000 4.29707000e+02
451.000000 6.92538000e+02
460.000000 1.04291000e+03
470.000000 1.61180000e+03
480.000000 2.44040000e+03
490.000000 3.62890000e+03
500.000000 5.29953000e+03
506.000000 3.82871000e+04
512.000000 1.18156000e+05
520.000000 1.52071000e+05
530.000000 2.15845000e+05
540.000000 2.48853000e+05
550.000000 3.59929000e+05
560.000000 4.45204000e+05
570.000000 5.63482000e+05
580.000000 5.93438000e+05
590.000000 8.03091000e+05
600.000000 1.01284000e+06
610.000000 1.23629000e+06
620.000000 1.46017000e+06
630.000000 1.74336000e+06
640.000000 1.99806000e+06
650.000000 2.32796000e+06
658.000000 2.71120000e+06
665.000000 2.99100000e+06
675.000000 3.38914000e+06
685.000000 3.88841000e+06
695.000000 4.56716000e+06
705.000000 5.16639000e+06
716.000000 5.93354000e+06
726.000000 6.65478000e+06
735.000000 7.42127000e+06
745.000000 8.39492000e+06
755.000000 9.40196000e+06
765.000000 1.04446000e+07
775.000000 1.16476000e+07
785.000000 1.29081000e+07
795.000000 1.41512000e+07
805.000000 1.55494000e+07
815.000000 1.69590000e+07
825.000000 1.86559000e+07
835.000000 2.00088000e+07
845.000000 2.19107000e+07
855.000000 2.36759000e+07
865.000000 2.57901000e+07
875.000000 2.79694000e+07
885.000000 3.03144000e+07
895.000000 3.25760000e+07
905.000000 3.42956000e+07
915.000000 5.17470000e+07
925.000000 2.04906000e+08
935.000000 6.16617000e+08
945.000000 2.79852000e+09
955.000000 6.25882000e+09
965.000000 8.80509000e+09
975.000000 2.18490000e+09
985.000000 1.30804000e+10
995.000000 1.33633000e+10
1005.000000 1.42631000e+10
1015.000000 1.10785000e+10
1025.000000 1.65092000e+09
1035.000000 8.28771000e+09
1045.000000 1.49346000e+10
1055.000000 1.47226000e+10
1065.000000 1.29654000e+10
1075.000000 1.43256000e+10
1085.000000 1.30796000e+10
1095.000000 1.40760000e+10
1105.000000 1.30174000e+10
1115.000000 1.29153000e+10
1125.000000 1.19205000e+10
1135.000000 1.27893000e+10
1145.000000 1.17520000e+10
1155.000000 1.21986000e+10
1165.000000 1.22390000e+10
1175.000000 1.00664000e+10
1185.000000 1.17223000e+10
1195.000000 9.91588000e+09
1205.000000 6.59343000e+09
1215.000000 1.39039000e+09
1225.000000 6.43412000e+09
1235.000000 9.85280000e+09
1245.000000 1.03273000e+10
1255.000000 1.00809000e+10
1265.000000 9.80136000e+09
1275.000000 1.00417000e+10
1285.000000 9.90269000e+09
1295.000000 8.46045000e+09
1305.000000 8.28793000e+09
1315.000000 9.36799000e+09
1325.000000 8.94280000e+09
1335.000000 8.47365000e+09
1345.000000 8.70922000e+09
1355.000000 8.63183000e+09
1365.000000 8.24378000e+09
1375.000000 8.11972000e+09
1385.000000 8.08498000e+09
1395.000000 7.50003000e+09
1405.000000 7.61427000e+09
1415.000000 7.56592000e+09
1425.000000 7.47884000e+09
1435.000000 7.41595000e+09
1442.000000 7.44594000e+09
1447.000000 7.33574000e+09
1455.000000 7.19514000e+09
1465.000000 6.95560000e+09
1475.000000 6.86195000e+09
1485.000000 6.67691000e+09
1495.000000 6.59766000e+09
1505.000000 6.31817000e+09
1512.000000 6.02103000e+09
1517.000000 6.11286000e+09
1525.000000 6.07724000e+09
1535.000000 5.71484000e+09
1545.000000 5.79166000e+09
1555.000000 5.53481000e+09
1565.000000 5.58520000e+09
1575.000000 5.65635000e+09
1585.000000 5.56796000e+09
1595.000000 5.55226000e+09
1605.000000 5.37946000e+09
1615.000000 5.29903000e+09
1625.000000 5.22574000e+09
1635.000000 5.23966000e+09
1645.000000 5.14622000e+09
1655.000000 4.99110000e+09
1665.000000 5.08639000e+09
1672.000000 4.90171000e+09
1677.000000 4.99430000e+09
1685.000000 4.94433000e+09
1695.000000 4.80395000e+09
1705.000000 4.64979000e+09
1715.000000 4.50619000e+09
1725.000000 4.43371000e+09
1735.000000 4.46510000e+09
1745.000000 4.35765000e+09
1755.000000 4.38348000e+09
1765.000000 4.13091000e+09
1775.000000 4.16604000e+09
1785.000000 4.13132000e+09
1795.000000 4.14539000e+09
1805.000000 4.10271000e+09
1815.000000 3.94327000e+09
1825.000000 3.95412000e+09
1835.000000 3.86606000e+09
1845.000000 3.65980000e+09
1855.000000 3.57907000e+09
1865.000000 3.58996000e+09
1875.000000 3.65529000e+09
1885.000000 3.42735000e+09
1895.000000 3.28437000e+09
1905.000000 3.40871000e+09
1915.000000 3.27664000e+09
1925.000000 3.20283000e+09
1935.000000 3.24547000e+09
1945.000000 3.27383000e+09
1955.000000 3.08814000e+09
1967.000000 3.17812000e+09
1976.000000 3.22710000e+09
1984.000000 3.08197000e+09
1995.000000 2.99593000e+09
2005.000000 3.02759000e+09
2015.000000 3.01172000e+09
2025.000000 3.03203000e+09
2035.000000 2.91124000e+09
2045.000000 2.88563000e+09
2055.000000 2.79775000e+09
2065.000000 2.81198000e+09
2074.000000 2.85235000e+09
2078.000000 2.75649000e+09
2085.000000 2.76739000e+09
2095.000000 2.67821000e+09
2105.000000 2.70086000e+09
2115.000000 2.67546000e+09
2125.000000 2.68546000e+09
2135.000000 2.63309000e+09
2145.000000 2.56872000e+09
2155.000000 2.57722000e+09
2165.000000 2.53756000e+09
2175.000000 2.50337000e+09
2185.000000 2.47340000e+09
2195.000000 2.46155000e+09
2205.000000 2.41959000e+09
2215.000000 2.38451000e+09
2225.000000 2.33954000e+09
2235.000000 2.32898000e+09
2245.000000 2.30708000e+09
2255.000000 2.26333000e+09
2265.000000 2.25558000e+09
2275.000000 2.22531000e+09
2285.000000 2.21121000e+09
2295.000000 2.15386000e+09
2305.000000 2.14762000e+09
2315.000000 2.11069000e+09
2325.000000 2.09160000e+09
2335.000000 2.04277000e+09
2345.000000 2.00230000e+09
2355.000000 2.01046000e+09
2365.000000 1.96662000e+09
2375.000000 1.95630000e+09
2385.000000 1.91854000e+09
2395.000000 1.91326000e+09
2405.000000 1.88403000e+09
2415.000000 1.86064000e+09
2425.000000 1.86083000e+09
2435.000000 1.82372000e+09
2445.000000 1.80972000e+09
2455.000000 1.80132000e+09
2465.000000 1.76795000e+09
2475.000000 1.75264000e+09
2485.000000 1.73728000e+09
2495.000000 1.69210000e+09
2505.000000 1.69969000e+09
2513.000000 1.65667000e+09
2518.000000 1.67505000e+09
2525.000000 1.64982000e+09
2535.000000 1.62165000e+09
2545.000000 1.60620000e+09
2555.000000 1.61085000e+09
2565.000000 1.58514000e+09
2575.000000 1.57961000e+09
2585.000000 1.56347000e+09
2595.000000 1.54563000e+09
2605.000000 1.53478000e+09
2615.000000 1.52015000e+09
2625.000000 1.50476000e+09
2635.000000 1.48690000e+09
2645.000000 1.48747000e+09
2655.000000 1.47009000e+09
2665.000000 1.44433000e+09
2675.000000 1.43445000e+09
2685.000000 1.42812000e+09
2695.000000 1.39902000e+09
2705.000000 1.39637000e+09
2715.000000 1.37859000e+09
2725.000000 1.35256000e+09
2735.000000 1.35357000e+09
2745.000000 1.31697000e+09
2755.000000 1.30956000e+09
2765.000000 1.29701000e+09
2775.000000 1.30108000e+09
2785.000000 1.28490000e+09
2795.000000 1.24414000e+09
2805.000000 1.25152000e+09
2815.000000 1.25025000e+09
2825.000000 1.22385000e+09
2835.000000 1.20342000e+09
2845.000000 1.20829000e+09
2855.000000 1.19854000e+09
2865.000000 1.18936000e+09
2875.000000 1.17609000e+09
2885.000000 1.16537000e+09
2895.000000 1.15410000e+09
2910.000000 1.13734000e+09
2930.000000 1.11225000e+09
2950.000000 1.08424000e+09
2970.000000 1.07259000e+09
2990.000000 1.05028000e+09
3010.000000 1.03179000e+09
3030.000000 1.01350000e+09
3050.000000 9.94298000e+08
3070.000000 9.75630000e+08
3090.000000 9.56807000e+08
3110.000000 9.39555000e+08
3130.000000 9.23318000e+08
3150.000000 9.06429000e+08
3170.000000 8.89516000e+08
3190.000000 8.65884000e+08
3210.000000 8.57431000e+08
3230.000000 8.42007000e+08
3250.000000 8.27004000e+08
3270.000000 8.13219000e+08
3290.000000 7.97932000e+08
3310.000000 7.85052000e+08
3330.000000 7.71302000e+08
3350.000000 7.56648000e+08
3370.000000 7.44774000e+08
3390.000000 7.32013000e+08
3410.000000 7.19499000e+08
3430.000000 7.04921000e+08
3450.000000 6.90916000e+08
3470.000000 6.80941000e+08
3490.000000 6.69478000e+08
3510.000000 6.59393000e+08
3530.000000 6.49615000e+08
3550.000000 6.38938000e+08
3570.000000 6.31444000e+08
3590.000000 6.17384000e+08
3610.000000 6.08827000e+08
3630.000000 5.97620000e+08
3640.000000 5.96388000e+08
3650.000000 5.88600000e+08
3670.000000 5.81671000e+08
3690.000000 5.70790000e+08
3710.000000 5.51487000e+08
3730.000000 5.27636000e+08
3750.000000 5.52456000e+08
3770.000000 5.55119000e+08
3790.000000 5.98713000e+08
3810.000000 6.34176000e+08
3830.000000 5.41843000e+08
3850.000000 6.64299000e+08
3870.000000 6.84466000e+08
3890.000000 5.07929000e+08
3910.000000 6.77359000e+08
3930.000000 6.74337000e+08
3950.000000 6.57770000e+08
3970.000000 4.74805000e+08
3990.000000 6.27989000e+08
4010.000000 6.35914000e+08
4030.000000 5.91669000e+08
4050.000000 6.24655000e+08
4070.000000 6.08570000e+08
4090.000000 5.37593000e+08
4110.000000 4.57862000e+08
4130.000000 5.67759000e+08
4150.000000 5.68359000e+08
4170.000000 5.65542000e+08
4190.000000 5.59190000e+08
4210.000000 5.50531000e+08
4230.000000 5.41358000e+08
4250.000000 5.32333000e+08
4270.000000 5.20250000e+08
4290.000000 5.13446000e+08
4310.000000 4.99910000e+08
4330.000000 4.32471000e+08
4350.000000 3.90178000e+08
4370.000000 4.74006000e+08
4390.000000 4.57128000e+08
4410.000000 4.67442000e+08
4430.000000 4.58854000e+08
4450.000000 4.54111000e+08
4470.000000 4.21511000e+08
4490.000000 4.38151000e+08
4510.000000 4.34181000e+08
4530.000000 4.27308000e+08
4550.000000 4.20794000e+08
4570.000000 4.14486000e+08
4590.000000 4.08396000e+08
4610.000000 4.02165000e+08
4630.000000 3.96010000e+08
4650.000000 3.89805000e+08
4670.000000 3.84574000e+08
4690.000000 3.79091000e+08
4710.000000 3.67574000e+08
4730.000000 3.66965000e+08
4750.000000 3.61276000e+08
4770.000000 3.57458000e+08
4790.000000 3.51737000e+08
4810.000000 3.45269000e+08
4830.000000 3.36812000e+08
4850.000000 2.98949000e+08
4870.000000 2.63221000e+08
4890.000000 3.20279000e+08
4910.000000 3.20550000e+08
4930.000000 3.08034000e+08
4950.000000 3.13884000e+08
4970.000000 3.09746000e+08
4990.000000 3.05346000e+08
5010.000000 2.96264000e+08
5030.000000 2.96787000e+08
5050.000000 2.89950000e+08
5070.000000 2.88839000e+08
5090.000000 2.84873000e+08
5110.000000 2.80930000e+08
5130.000000 2.76983000e+08
5150.000000 2.73188000e+08
5170.000000 2.69740000e+08
5190.000000 2.66098000e+08
5210.000000 2.62102000e+08
5230.000000 2.59027000e+08
5250.000000 2.55568000e+08
5270.000000 2.52167000e+08
5290.000000 2.48877000e+08
5310.000000 2.45589000e+08
5330.000000 2.42318000e+08
5350.000000 2.39022000e+08
5370.000000 2.36095000e+08
5390.000000 2.33011000e+08
5410.000000 2.29978000e+08
5430.000000 2.26856000e+08
5450.000000 2.24027000e+08
5470.000000 2.21146000e+08
5490.000000 2.18387000e+08
5510.000000 2.15576000e+08
5530.000000 2.12850000e+08
5550.000000 2.10169000e+08
5570.000000 2.07496000e+08
5590.000000 2.04905000e+08
5610.000000 2.02286000e+08
5630.000000 1.99829000e+08
5650.000000 1.97071000e+08
5670.000000 1.94676000e+08
5690.000000 1.92320000e+08
5710.000000 1.90074000e+08
5730.000000 1.87740000e+08
5750.000000 1.85422000e+08
5770.000000 1.83188000e+08
5790.000000 1.80947000e+08
5810.000000 1.78744000e+08
5830.000000 1.76578000e+08
5850.000000 1.74459000e+08
5870.000000 1.66482000e+08
5890.000000 1.69719000e+08
5910.000000 1.68249000e+08
5930.000000 1.66237000e+08
5950.000000 1.64196000e+08
5970.000000 1.62326000e+08
5990.000000 1.60362000e+08
6010.000000 1.58524000e+08
6030.000000 1.56656000e+08
6050.000000 1.54829000e+08
6070.000000 1.53023000e+08
6090.000000 1.51238000e+08
6110.000000 1.49493000e+08
6130.000000 1.47767000e+08
6150.000000 1.46000000e+08
6170.000000 1.44382000e+08
6190.000000 1.42733000e+08
6210.000000 1.41102000e+08
6230.000000 1.39489000e+08
6250.000000 1.37875000e+08
6270.000000 1.36345000e+08
6290.000000 1.34803000e+08
6310.000000 1.33269000e+08
6330.000000 1.31788000e+08
6350.000000 1.30091000e+08
6370.000000 1.28746000e+08
6390.000000 1.27415000e+08
6410.000000 1.25989000e+08
6430.000000 1.24623000e+08
6450.000000 1.23236000e+08
6470.000000 1.21845000e+08
6490.000000 1.20469000e+08
6510.000000 1.18805000e+08
6530.000000 1.16727000e+08
6550.000000 1.09157000e+08
6570.000000 9.56990000e+07
6590.000000 1.11532000e+08
6610.000000 1.12306000e+08
6630.000000 1.11476000e+08
6650.000000 1.10550000e+08
6670.000000 1.08127000e+08
6690.000000 1.07010000e+08
6710.000000 1.07051000e+08
6730.000000 1.05917000e+08
6750.000000 1.04802000e+08
6770.000000 1.03699000e+08
6790.000000 1.02541000e+08
6810.000000 1.01518000e+08
6830.000000 1.00455000e+08
6850.000000 9.94121000e+07
6870.000000 9.83791000e+07
6890.000000 9.73565000e+07
6910.000000 9.63440000e+07
6930.000000 9.53337000e+07
6950.000000 9.43647000e+07
6970.000000 9.33974000e+07
6990.000000 9.24396000e+07
7010.000000 9.14989000e+07
7030.000000 9.05598000e+07
7050.000000 8.96298000e+07
7070.000000 8.73221000e+07
7090.000000 8.78344000e+07
7110.000000 8.69460000e+07
7130.000000 8.60735000e+07
7150.000000 8.52095000e+07
7170.000000 8.43464000e+07
7190.000000 8.35134000e+07
7210.000000 8.26812000e+07
7230.000000 8.15685000e+07
7250.000000 8.10474000e+07
7270.000000 8.02529000e+07
7290.000000 7.88490000e+07
7310.000000 7.86649000e+07
7330.000000 7.79067000e+07
7350.000000 7.71416000e+07
7370.000000 7.63905000e+07
7390.000000 7.56465000e+07
7410.000000 7.49094000e+07
7430.000000 7.41791000e+07
7450.000000 7.34759000e+07
7470.000000 7.27589000e+07
7490.000000 7.20620000e+07
7510.000000 7.13514000e+07
7530.000000 7.06938000e+07
7550.000000 7.00157000e+07
7570.000000 6.93504000e+07
7590.000000 6.86911000e+07
7610.000000 6.80443000e+07
7630.000000 6.73969000e+07
7650.000000 6.67617000e+07
7670.000000 6.61322000e+07
7690.000000 6.55147000e+07
7710.000000 6.49028000e+07
7730.000000 6.42962000e+07
7750.000000 6.36951000e+07
7770.000000 6.29995000e+07
7790.000000 6.25150000e+07
7810.000000 6.19111000e+07
7830.000000 6.13673000e+07
7850.000000 6.08336000e+07
7870.000000 6.02767000e+07
7890.000000 5.96840000e+07
7910.000000 5.91984000e+07
7930.000000 5.86587000e+07
7950.000000 5.80945000e+07
7970.000000 5.75524000e+07
7990.000000 5.70310000e+07
8010.000000 5.65252000e+07
8030.000000 5.59997000e+07
8050.000000 5.54934000e+07
8070.000000 5.49971000e+07
8090.000000 5.44365000e+07
8110.000000 5.39954000e+07
8130.000000 5.35425000e+07
8150.000000 5.30095000e+07
8170.000000 5.25996000e+07
8190.000000 5.20791000e+07
8210.000000 5.15177000e+07
8230.000000 5.11736000e+07
8250.000000 5.07597000e+07
8270.000000 5.01245000e+07
8290.000000 4.98583000e+07
8310.000000 4.94478000e+07
8330.000000 4.90017000e+07
8350.000000 4.83841000e+07
8370.000000 4.80962000e+07
8390.000000 4.77494000e+07
8410.000000 4.73249000e+07
8430.000000 4.68738000e+07
8450.000000 4.61847000e+07
8470.000000 4.60052000e+07
8490.000000 4.55514000e+07
8510.000000 4.50790000e+07
8530.000000 4.47865000e+07
8550.000000 4.38486000e+07
8570.000000 4.44469000e+07
8590.000000 4.27381000e+07
8610.000000 4.25703000e+07
8630.000000 4.37410000e+07
8650.000000 4.23552000e+07
8670.000000 3.98055000e+07
8690.000000 4.25883000e+07
8710.000000 4.30147000e+07
8730.000000 4.14930000e+07
8750.000000 3.73268000e+07
8770.000000 4.00074000e+07
8790.000000 4.18978000e+07
8810.000000 4.18937000e+07
8830.000000 4.11369000e+07
8850.000000 3.79416000e+07
8870.000000 3.50744000e+07
8890.000000 3.93527000e+07
8910.000000 4.02231000e+07
8930.000000 4.01126000e+07
8950.000000 3.99053000e+07
8970.000000 3.93576000e+07
8990.000000 3.77960000e+07
9010.000000 3.31928000e+07
9030.000000 3.47226000e+07
9050.000000 3.75126000e+07
9070.000000 3.75196000e+07
9090.000000 3.76296000e+07
9110.000000 3.75177000e+07
9130.000000 3.72432000e+07
9150.000000 3.69082000e+07
9170.000000 3.64065000e+07
9190.000000 3.58222000e+07
9210.000000 3.37210000e+07
9230.000000 2.95240000e+07
9250.000000 3.29932000e+07
9270.000000 3.45371000e+07
9290.000000 3.47504000e+07
9310.000000 3.44518000e+07
9330.000000 3.43813000e+07
9350.000000 3.41426000e+07
9370.000000 3.39167000e+07
9390.000000 3.36468000e+07
9410.000000 3.33397000e+07
9430.000000 3.31141000e+07
9450.000000 3.27792000e+07
9470.000000 3.22573000e+07
9490.000000 3.20876000e+07
9510.000000 3.12172000e+07
9530.000000 2.92997000e+07
9550.000000 2.60399000e+07
9570.000000 2.95049000e+07
9590.000000 3.05662000e+07
9610.000000 3.05664000e+07
9630.000000 3.03404000e+07
9650.000000 3.03511000e+07
9670.000000 3.01435000e+07
9690.000000 2.98864000e+07
9710.000000 2.95976000e+07
9730.000000 2.94602000e+07
9750.000000 2.92340000e+07
9770.000000 2.90114000e+07
9790.000000 2.87900000e+07
9810.000000 2.85706000e+07
9830.000000 2.83535000e+07
9850.000000 2.81387000e+07
9870.000000 2.79253000e+07
9890.000000 2.77120000e+07
9910.000000 2.74775000e+07
9930.000000 2.72966000e+07
9950.000000 2.70512000e+07
9970.000000 2.67934000e+07
9990.000000 2.65013000e+07
10025.000000 2.47290000e+07
10075.000000 2.38629000e+07
10125.000000 2.51859000e+07
10175.000000 2.49048000e+07
10225.000000 2.44496000e+07
10275.000000 2.40170000e+07
10325.000000 2.34906000e+07
10375.000000 2.31598000e+07
10425.000000 2.27454000e+07
10475.000000 2.23403000e+07
10525.000000 2.19439000e+07
10575.000000 2.15566000e+07
10625.000000 2.11780000e+07
10675.000000 2.07609000e+07
10725.000000 2.04443000e+07
10775.000000 2.00905000e+07
10825.000000 1.95070000e+07
10875.000000 1.92411000e+07
10925.000000 1.71949000e+07
10975.000000 1.80204000e+07
11025.000000 1.82497000e+07
11075.000000 1.80889000e+07
11125.000000 1.78129000e+07
11175.000000 1.75145000e+07
11225.000000 1.72141000e+07
11275.000000 1.69307000e+07
11325.000000 1.66538000e+07
11375.000000 1.63819000e+07
11425.000000 1.61127000e+07
11475.000000 1.58499000e+07
11525.000000 1.55921000e+07
11575.000000 1.53390000e+07
11625.000000 1.50909000e+07
11675.000000 1.48486000e+07
11725.000000 1.46115000e+07
11775.000000 1.43760000e+07
11825.000000 1.41501000e+07
11875.000000 1.39265000e+07
11925.000000 1.37072000e+07
11975.000000 1.33523000e+07
12025.000000 1.32813000e+07
12075.000000 1.30747000e+07
12125.000000 1.28720000e+07
12175.000000 1.26732000e+07
12225.000000 1.24783000e+07
12275.000000 1.22871000e+07
12325.000000 1.20995000e+07
12375.000000 1.19156000e+07
12425.000000 1.17352000e+07
12475.000000 1.15573000e+07
12525.000000 1.13620000e+07
12575.000000 1.12132000e+07
12625.000000 1.10466000e+07
12675.000000 1.08822000e+07
12725.000000 1.06847000e+07
12775.000000 1.02975000e+07
12825.000000 9.40606000e+06
12875.000000 1.01099000e+07
12925.000000 1.00788000e+07
12975.000000 9.88489000e+06
13025.000000 9.81469000e+06
13075.000000 9.67322000e+06
