# Kurucz ODFNEW /NOVER, alpha: 0.0 (2003)
# teff = 18000 K (value for the effective temperature for the model. Temperatures are given in K)
# logg = 4.5 log(cm/s2) (value for Log(G) for the model.)
# lh = 1.25  (l/Hp where l is the  mixing length of the convective element and Hp is the pressure scale height)
# meta = 0  (value for the Metallicity for the model.)
# vtur = 2 km/s (Microturbulence velocity)
# alpha = 0  (Alpha)
#
# column 1: WAVELENGTH (ANGSTROM), Wavelength in Angstrom
# column 2: FLUX (ERG/CM2/S/A), Flux in erg/cm2/s/A
147.200000 1.10648000e-22
151.000000 9.59180000e-22
155.200000 7.81923000e-21
158.800000 4.27621000e-20
162.000000 1.81747000e-19
166.000000 1.02570000e-18
170.300000 6.01503000e-18
173.400000 2.04079000e-17
176.800000 7.41304000e-17
180.200000 2.56536000e-16
181.700000 4.36935000e-16
186.100000 1.98572000e-15
191.000000 9.86729000e-15
193.900000 2.44431000e-14
198.400000 9.48692000e-14
201.800000 2.54762000e-13
205.000000 6.27957000e-13
210.500000 2.75876000e-12
216.200000 1.18252000e-11
219.800000 2.85315000e-11
223.000000 6.07870000e-11
226.800000 1.45431000e-10
230.000000 3.60549000e-10
234.000000 9.37695000e-10
240.000000 3.27323000e-09
246.500000 1.17293000e-08
252.400000 3.53295000e-08
256.800000 7.70411000e-08
260.000000 1.35745000e-07
264.000000 2.67153000e-07
268.500000 5.57316000e-07
273.500000 1.22519000e-06
278.500000 2.62484000e-06
284.000000 5.88103000e-06
290.000000 1.36550000e-05
296.000000 3.05676000e-05
301.000000 5.84589000e-05
308.000000 1.38883000e-04
318.000000 4.53309000e-04
328.000000 1.35972000e-03
338.000000 3.83806000e-03
348.000000 1.01561000e-02
357.000000 2.33317000e-02
366.000000 5.13308000e-02
375.000000 1.07858000e-01
385.000000 2.36555000e-01
395.000000 4.96696000e-01
405.000000 1.00470000e+00
414.000000 1.83799000e+00
422.000000 3.06530000e+00
430.000000 5.00160000e+00
441.000000 9.57277000e+00
451.000000 1.67364000e+01
460.000000 2.70262000e+01
470.000000 4.50336000e+01
480.000000 7.32742000e+01
490.000000 1.16805000e+02
500.000000 1.82322000e+02
506.000000 1.71138000e+03
512.000000 6.48811000e+03
520.000000 8.50651000e+03
530.000000 1.22947000e+04
540.000000 1.51622000e+04
550.000000 2.27843000e+04
560.000000 2.95281000e+04
570.000000 3.94018000e+04
580.000000 4.45266000e+04
590.000000 6.32053000e+04
600.000000 8.17262000e+04
610.000000 1.05122000e+05
620.000000 1.28063000e+05
630.000000 1.58238000e+05
640.000000 1.85670000e+05
650.000000 2.17487000e+05
658.000000 2.70285000e+05
665.000000 3.01528000e+05
675.000000 3.53441000e+05
685.000000 4.18531000e+05
695.000000 5.07186000e+05
705.000000 5.89503000e+05
716.000000 6.97108000e+05
726.000000 8.02883000e+05
735.000000 9.09702000e+05
745.000000 1.06409000e+06
755.000000 1.22537000e+06
765.000000 1.39935000e+06
775.000000 1.60075000e+06
785.000000 1.82017000e+06
795.000000 2.03152000e+06
805.000000 2.28162000e+06
815.000000 2.53310000e+06
825.000000 2.85974000e+06
835.000000 3.10558000e+06
845.000000 3.47033000e+06
855.000000 3.84184000e+06
865.000000 4.26744000e+06
875.000000 4.73194000e+06
885.000000 5.25971000e+06
895.000000 5.75894000e+06
905.000000 6.10292000e+06
915.000000 1.12363000e+07
925.000000 4.26604000e+07
935.000000 9.61533000e+07
945.000000 3.97445000e+08
955.000000 1.25511000e+09
965.000000 1.85799000e+09
975.000000 3.70153000e+08
985.000000 3.22666000e+09
995.000000 3.38184000e+09
1005.000000 4.05217000e+09
1015.000000 2.98016000e+09
1025.000000 3.19900000e+08
1035.000000 1.73516000e+09
1045.000000 4.92980000e+09
1055.000000 5.19354000e+09
1065.000000 4.16313000e+09
1075.000000 5.15759000e+09
1085.000000 4.58293000e+09
1095.000000 5.21849000e+09
1105.000000 4.56787000e+09
1115.000000 4.45175000e+09
1125.000000 4.34647000e+09
1135.000000 5.28353000e+09
1145.000000 4.54222000e+09
1155.000000 4.90586000e+09
1165.000000 5.22393000e+09
1175.000000 4.15361000e+09
1185.000000 5.13171000e+09
1195.000000 2.94572000e+09
1205.000000 1.72374000e+09
1215.000000 3.61871000e+08
1225.000000 1.75769000e+09
1235.000000 4.43487000e+09
1245.000000 5.07556000e+09
1255.000000 5.02609000e+09
1265.000000 4.37204000e+09
1275.000000 4.92665000e+09
1285.000000 5.23927000e+09
1295.000000 3.56708000e+09
1305.000000 3.02397000e+09
1315.000000 4.82735000e+09
1325.000000 4.61571000e+09
1335.000000 4.02407000e+09
1345.000000 4.72603000e+09
1355.000000 4.52110000e+09
1365.000000 4.04708000e+09
1375.000000 4.17115000e+09
1385.000000 4.24782000e+09
1395.000000 3.88321000e+09
1405.000000 4.02679000e+09
1415.000000 3.85323000e+09
1425.000000 3.96316000e+09
1435.000000 3.90556000e+09
1442.000000 4.10326000e+09
1447.000000 4.07081000e+09
1455.000000 3.97189000e+09
1465.000000 3.73197000e+09
1475.000000 3.65556000e+09
1485.000000 3.57660000e+09
1495.000000 3.61993000e+09
1505.000000 3.38886000e+09
1512.000000 3.09093000e+09
1517.000000 3.27096000e+09
1525.000000 3.26848000e+09
1535.000000 2.97310000e+09
1545.000000 3.10124000e+09
1555.000000 2.90661000e+09
1565.000000 2.90204000e+09
1575.000000 3.04451000e+09
1585.000000 3.08135000e+09
1595.000000 3.12413000e+09
1605.000000 3.00810000e+09
1615.000000 3.01459000e+09
1625.000000 2.86346000e+09
1635.000000 2.97342000e+09
1645.000000 2.95645000e+09
1655.000000 2.73006000e+09
1665.000000 2.95733000e+09
1672.000000 2.81174000e+09
1677.000000 2.87069000e+09
1685.000000 2.93558000e+09
1695.000000 2.78630000e+09
1705.000000 2.64291000e+09
1715.000000 2.48871000e+09
1725.000000 2.45462000e+09
1735.000000 2.56758000e+09
1745.000000 2.47377000e+09
1755.000000 2.57568000e+09
1765.000000 2.35817000e+09
1775.000000 2.41226000e+09
1785.000000 2.43142000e+09
1795.000000 2.51408000e+09
1805.000000 2.49266000e+09
1815.000000 2.30562000e+09
1825.000000 2.35881000e+09
1835.000000 2.24971000e+09
1845.000000 2.09491000e+09
1855.000000 2.02454000e+09
1865.000000 2.06213000e+09
1875.000000 2.22493000e+09
1885.000000 2.03313000e+09
1895.000000 1.92350000e+09
1905.000000 2.05471000e+09
1915.000000 1.94394000e+09
1925.000000 1.89949000e+09
1935.000000 1.95688000e+09
1945.000000 1.98292000e+09
1955.000000 1.84450000e+09
1967.000000 1.97903000e+09
1976.000000 2.03938000e+09
1984.000000 1.90630000e+09
1995.000000 1.84653000e+09
2005.000000 1.89066000e+09
2015.000000 1.80996000e+09
2025.000000 1.92130000e+09
2035.000000 1.79148000e+09
2045.000000 1.81022000e+09
2055.000000 1.73189000e+09
2065.000000 1.76357000e+09
2074.000000 1.81539000e+09
2078.000000 1.72003000e+09
2085.000000 1.76847000e+09
2095.000000 1.67094000e+09
2105.000000 1.69991000e+09
2115.000000 1.69128000e+09
2125.000000 1.71453000e+09
2135.000000 1.64040000e+09
2145.000000 1.62105000e+09
2155.000000 1.65982000e+09
2165.000000 1.61350000e+09
2175.000000 1.59392000e+09
2185.000000 1.55253000e+09
2195.000000 1.58221000e+09
2205.000000 1.53961000e+09
2215.000000 1.49679000e+09
2225.000000 1.43748000e+09
2235.000000 1.49433000e+09
2245.000000 1.45249000e+09
2255.000000 1.40089000e+09
2265.000000 1.42505000e+09
2275.000000 1.43336000e+09
2285.000000 1.43852000e+09
2295.000000 1.38489000e+09
2305.000000 1.35680000e+09
2315.000000 1.31481000e+09
2325.000000 1.30296000e+09
2335.000000 1.24995000e+09
2345.000000 1.22144000e+09
2355.000000 1.24355000e+09
2365.000000 1.19682000e+09
2375.000000 1.20734000e+09
2385.000000 1.15690000e+09
2395.000000 1.20506000e+09
2405.000000 1.15357000e+09
2415.000000 1.16154000e+09
2425.000000 1.17414000e+09
2435.000000 1.12252000e+09
2445.000000 1.15312000e+09
2455.000000 1.13462000e+09
2465.000000 1.11992000e+09
2475.000000 1.09200000e+09
2485.000000 1.12447000e+09
2495.000000 1.08794000e+09
2505.000000 1.11319000e+09
2513.000000 1.06114000e+09
2518.000000 1.08937000e+09
2525.000000 1.04257000e+09
2535.000000 1.03682000e+09
2545.000000 1.01275000e+09
2555.000000 1.03929000e+09
2565.000000 1.02422000e+09
2575.000000 1.04781000e+09
2585.000000 1.04355000e+09
2595.000000 1.03849000e+09
2605.000000 1.01255000e+09
2615.000000 1.00460000e+09
2625.000000 9.98652000e+08
2635.000000 9.96730000e+08
2645.000000 1.01624000e+09
2655.000000 1.00512000e+09
2665.000000 9.71870000e+08
2675.000000 9.82780000e+08
2685.000000 9.71763000e+08
2695.000000 9.52116000e+08
2705.000000 9.50444000e+08
2715.000000 9.29759000e+08
2725.000000 9.18026000e+08
2735.000000 9.31823000e+08
2745.000000 8.83399000e+08
2755.000000 8.78338000e+08
2765.000000 8.83231000e+08
2775.000000 8.94293000e+08
2785.000000 8.86862000e+08
2795.000000 8.43009000e+08
2805.000000 8.63966000e+08
2815.000000 8.70389000e+08
2825.000000 8.55883000e+08
2835.000000 8.25341000e+08
2845.000000 8.18246000e+08
2855.000000 8.20751000e+08
2865.000000 8.29259000e+08
2875.000000 8.14431000e+08
2885.000000 8.11601000e+08
2895.000000 8.06183000e+08
2910.000000 8.02965000e+08
2930.000000 7.82211000e+08
2950.000000 7.65277000e+08
2970.000000 7.57610000e+08
2990.000000 7.42326000e+08
3010.000000 7.35529000e+08
3030.000000 7.26097000e+08
3050.000000 7.11260000e+08
3070.000000 6.98466000e+08
3090.000000 6.87915000e+08
3110.000000 6.73993000e+08
3130.000000 6.64061000e+08
3150.000000 6.52770000e+08
3170.000000 6.41185000e+08
3190.000000 6.22915000e+08
3210.000000 6.18907000e+08
3230.000000 6.09605000e+08
3250.000000 5.99985000e+08
3270.000000 5.91189000e+08
3290.000000 5.81517000e+08
3310.000000 5.73204000e+08
3330.000000 5.63316000e+08
3350.000000 5.52984000e+08
3370.000000 5.44682000e+08
3390.000000 5.36110000e+08
3410.000000 5.28091000e+08
3430.000000 5.18684000e+08
3450.000000 5.09712000e+08
3470.000000 5.02101000e+08
3490.000000 4.94446000e+08
3510.000000 4.87634000e+08
3530.000000 4.80522000e+08
3550.000000 4.73060000e+08
3570.000000 4.66888000e+08
3590.000000 4.57491000e+08
3610.000000 4.51424000e+08
3630.000000 4.44291000e+08
3640.000000 4.42678000e+08
3650.000000 4.38219000e+08
3670.000000 4.33120000e+08
3690.000000 4.24869000e+08
3710.000000 4.11460000e+08
3730.000000 3.93466000e+08
3750.000000 4.19767000e+08
3770.000000 4.24841000e+08
3790.000000 4.65820000e+08
3810.000000 4.99820000e+08
3830.000000 4.23602000e+08
3850.000000 5.23545000e+08
3870.000000 5.47779000e+08
3890.000000 3.92461000e+08
3910.000000 5.43972000e+08
3930.000000 5.41718000e+08
3950.000000 5.28930000e+08
3970.000000 3.68294000e+08
3990.000000 5.03423000e+08
4010.000000 5.16407000e+08
4030.000000 4.83273000e+08
4050.000000 5.07772000e+08
4070.000000 4.91673000e+08
4090.000000 4.28322000e+08
4110.000000 3.59934000e+08
4130.000000 4.57767000e+08
4150.000000 4.61547000e+08
4170.000000 4.59427000e+08
4190.000000 4.55395000e+08
4210.000000 4.49378000e+08
4230.000000 4.41601000e+08
4250.000000 4.33951000e+08
4270.000000 4.21589000e+08
4290.000000 4.18834000e+08
4310.000000 4.06722000e+08
4330.000000 3.45024000e+08
4350.000000 3.08969000e+08
4370.000000 3.85135000e+08
4390.000000 3.74949000e+08
4410.000000 3.82132000e+08
4430.000000 3.75042000e+08
4450.000000 3.72287000e+08
4470.000000 3.48073000e+08
4490.000000 3.57144000e+08
4510.000000 3.56317000e+08
4530.000000 3.49855000e+08
4550.000000 3.44839000e+08
4570.000000 3.40546000e+08
4590.000000 3.35368000e+08
4610.000000 3.30319000e+08
4630.000000 3.24502000e+08
4650.000000 3.20113000e+08
4670.000000 3.16030000e+08
4690.000000 3.11919000e+08
4710.000000 3.01481000e+08
4730.000000 3.01109000e+08
4750.000000 2.96475000e+08
4770.000000 2.94706000e+08
4790.000000 2.89491000e+08
4810.000000 2.83425000e+08
4830.000000 2.76061000e+08
4850.000000 2.41421000e+08
4870.000000 2.10564000e+08
4890.000000 2.62774000e+08
4910.000000 2.63966000e+08
4930.000000 2.54745000e+08
4950.000000 2.58964000e+08
4970.000000 2.55984000e+08
4990.000000 2.52120000e+08
5010.000000 2.43462000e+08
5030.000000 2.44374000e+08
5050.000000 2.37715000e+08
5070.000000 2.38613000e+08
5090.000000 2.35244000e+08
5110.000000 2.31560000e+08
5130.000000 2.28455000e+08
5150.000000 2.24937000e+08
5170.000000 2.22805000e+08
5190.000000 2.19944000e+08
5210.000000 2.15192000e+08
5230.000000 2.14114000e+08
5250.000000 2.11529000e+08
5270.000000 2.08380000e+08
5290.000000 2.06403000e+08
5310.000000 2.03449000e+08
5330.000000 2.00744000e+08
5350.000000 1.97746000e+08
5370.000000 1.95962000e+08
5390.000000 1.93434000e+08
5410.000000 1.90745000e+08
5430.000000 1.87899000e+08
5450.000000 1.85812000e+08
5470.000000 1.83285000e+08
5490.000000 1.81489000e+08
5510.000000 1.79045000e+08
5530.000000 1.76952000e+08
5550.000000 1.74835000e+08
5570.000000 1.72598000e+08
5590.000000 1.70533000e+08
5610.000000 1.68302000e+08
5630.000000 1.66609000e+08
5650.000000 1.63343000e+08
5670.000000 1.61595000e+08
5690.000000 1.60158000e+08
5710.000000 1.58518000e+08
5730.000000 1.56645000e+08
5750.000000 1.54748000e+08
5770.000000 1.52942000e+08
5790.000000 1.51055000e+08
5810.000000 1.49214000e+08
5830.000000 1.47460000e+08
5850.000000 1.45727000e+08
5870.000000 1.39881000e+08
5890.000000 1.41604000e+08
5910.000000 1.40594000e+08
5930.000000 1.39047000e+08
5950.000000 1.36901000e+08
5970.000000 1.35752000e+08
5990.000000 1.33944000e+08
6010.000000 1.32731000e+08
6030.000000 1.31158000e+08
6050.000000 1.29675000e+08
6070.000000 1.28167000e+08
6090.000000 1.26636000e+08
6110.000000 1.25314000e+08
6130.000000 1.23886000e+08
6150.000000 1.22016000e+08
6170.000000 1.21028000e+08
6190.000000 1.19736000e+08
6210.000000 1.18380000e+08
6230.000000 1.16980000e+08
6250.000000 1.15403000e+08
6270.000000 1.14419000e+08
6290.000000 1.13121000e+08
6310.000000 1.11762000e+08
6330.000000 1.10662000e+08
6350.000000 1.08705000e+08
6370.000000 1.07763000e+08
6390.000000 1.06997000e+08
6410.000000 1.05753000e+08
6430.000000 1.04796000e+08
6450.000000 1.03540000e+08
6470.000000 1.02406000e+08
6490.000000 1.01168000e+08
6510.000000 9.97291000e+07
6530.000000 9.78645000e+07
6550.000000 9.06293000e+07
6570.000000 7.86792000e+07
6590.000000 9.32539000e+07
6610.000000 9.44149000e+07
6630.000000 9.38119000e+07
6650.000000 9.30525000e+07
6670.000000 9.12590000e+07
6690.000000 9.03691000e+07
6710.000000 9.01742000e+07
6730.000000 8.92564000e+07
6750.000000 8.83480000e+07
6770.000000 8.74486000e+07
6790.000000 8.63786000e+07
6810.000000 8.56039000e+07
6830.000000 8.46753000e+07
6850.000000 8.38684000e+07
6870.000000 8.30216000e+07
6890.000000 8.21753000e+07
6910.000000 8.13295000e+07
6930.000000 8.03979000e+07
6950.000000 7.97018000e+07
6970.000000 7.89116000e+07
6990.000000 7.80983000e+07
7010.000000 7.72930000e+07
7030.000000 7.65261000e+07
7050.000000 7.56468000e+07
7070.000000 7.40648000e+07
7090.000000 7.42913000e+07
7110.000000 7.34968000e+07
7130.000000 7.27864000e+07
7150.000000 7.20666000e+07
7170.000000 7.13742000e+07
7190.000000 7.06935000e+07
7210.000000 7.00047000e+07
7230.000000 6.88482000e+07
7250.000000 6.85972000e+07
7270.000000 6.79779000e+07
7290.000000 6.69646000e+07
7310.000000 6.66621000e+07
7330.000000 6.60219000e+07
7350.000000 6.53960000e+07
7370.000000 6.47648000e+07
7390.000000 6.41450000e+07
7410.000000 6.35337000e+07
7430.000000 6.28570000e+07
7450.000000 6.23035000e+07
7470.000000 6.16564000e+07
7490.000000 6.11039000e+07
7510.000000 6.05398000e+07
7530.000000 5.99901000e+07
7550.000000 5.94308000e+07
7570.000000 5.88811000e+07
7590.000000 5.83188000e+07
7610.000000 5.77954000e+07
7630.000000 5.72527000e+07
7650.000000 5.67181000e+07
7670.000000 5.61941000e+07
7690.000000 5.56710000e+07
7710.000000 5.51626000e+07
7730.000000 5.46468000e+07
7750.000000 5.41493000e+07
7770.000000 5.32157000e+07
7790.000000 5.31650000e+07
7810.000000 5.26782000e+07
7830.000000 5.22097000e+07
7850.000000 5.16078000e+07
7870.000000 5.11560000e+07
7890.000000 5.06089000e+07
7910.000000 5.03443000e+07
7930.000000 4.99116000e+07
7950.000000 4.93395000e+07
7970.000000 4.90050000e+07
7990.000000 4.83911000e+07
8010.000000 4.81504000e+07
8030.000000 4.77122000e+07
8050.000000 4.72835000e+07
8070.000000 4.68800000e+07
8090.000000 4.64453000e+07
8110.000000 4.60303000e+07
8130.000000 4.56326000e+07
8150.000000 4.52268000e+07
8170.000000 4.48589000e+07
8190.000000 4.44261000e+07
8210.000000 4.39238000e+07
8230.000000 4.35220000e+07
8250.000000 4.33007000e+07
8270.000000 4.28629000e+07
8290.000000 4.25434000e+07
8310.000000 4.22091000e+07
8330.000000 4.18535000e+07
8350.000000 4.14193000e+07
8370.000000 4.11108000e+07
8390.000000 4.08251000e+07
8410.000000 4.04565000e+07
8430.000000 4.00723000e+07
8450.000000 3.94433000e+07
8470.000000 3.93030000e+07
8490.000000 3.89706000e+07
8510.000000 3.84454000e+07
8530.000000 3.83880000e+07
8550.000000 3.72882000e+07
8570.000000 3.80777000e+07
8590.000000 3.66017000e+07
8610.000000 3.62744000e+07
8630.000000 3.75309000e+07
8650.000000 3.63238000e+07
8670.000000 3.37057000e+07
8690.000000 3.65015000e+07
8710.000000 3.70129000e+07
8730.000000 3.57323000e+07
8750.000000 3.16071000e+07
8770.000000 3.43413000e+07
8790.000000 3.61170000e+07
8810.000000 3.61988000e+07
8830.000000 3.54291000e+07
8850.000000 3.25813000e+07
8870.000000 2.97617000e+07
8890.000000 3.38390000e+07
8910.000000 3.47549000e+07
8930.000000 3.46968000e+07
8950.000000 3.45414000e+07
8970.000000 3.40256000e+07
8990.000000 3.26303000e+07
9010.000000 2.82964000e+07
9030.000000 2.96903000e+07
9050.000000 3.23628000e+07
9070.000000 3.25238000e+07
9090.000000 3.25500000e+07
9110.000000 3.24858000e+07
9130.000000 3.22474000e+07
9150.000000 3.19828000e+07
9170.000000 3.15460000e+07
9190.000000 3.09355000e+07
9210.000000 2.91101000e+07
9230.000000 2.50652000e+07
9250.000000 2.82997000e+07
9270.000000 2.96266000e+07
9290.000000 3.00806000e+07
9310.000000 2.99315000e+07
9330.000000 2.98020000e+07
9350.000000 2.96294000e+07
9370.000000 2.94344000e+07
9390.000000 2.91917000e+07
9410.000000 2.87763000e+07
9430.000000 2.87145000e+07
9450.000000 2.84577000e+07
9470.000000 2.80704000e+07
9490.000000 2.78230000e+07
9510.000000 2.70917000e+07
9530.000000 2.53205000e+07
9550.000000 2.22008000e+07
9570.000000 2.54264000e+07
9590.000000 2.64826000e+07
9610.000000 2.65569000e+07
9630.000000 2.62899000e+07
9650.000000 2.63505000e+07
9670.000000 2.61740000e+07
9690.000000 2.59886000e+07
9710.000000 2.57734000e+07
9730.000000 2.56198000e+07
9750.000000 2.54161000e+07
9770.000000 2.52360000e+07
9790.000000 2.50433000e+07
9810.000000 2.48536000e+07
9830.000000 2.46516000e+07
9850.000000 2.44786000e+07
9870.000000 2.42921000e+07
9890.000000 2.40892000e+07
9910.000000 2.38774000e+07
9930.000000 2.37423000e+07
9950.000000 2.35172000e+07
9970.000000 2.32986000e+07
9990.000000 2.30352000e+07
10025.000000 2.14056000e+07
10075.000000 2.05520000e+07
10125.000000 2.18819000e+07
10175.000000 2.16710000e+07
10225.000000 2.13057000e+07
10275.000000 2.09265000e+07
10325.000000 2.04971000e+07
10375.000000 2.01870000e+07
10425.000000 1.98312000e+07
10475.000000 1.94775000e+07
10525.000000 1.91317000e+07
10575.000000 1.88003000e+07
10625.000000 1.84770000e+07
10675.000000 1.80980000e+07
10725.000000 1.78350000e+07
10775.000000 1.75313000e+07
10825.000000 1.70466000e+07
10875.000000 1.67730000e+07
10925.000000 1.48772000e+07
10975.000000 1.56533000e+07
11025.000000 1.59630000e+07
11075.000000 1.58062000e+07
11125.000000 1.55650000e+07
11175.000000 1.53044000e+07
11225.000000 1.50503000e+07
11275.000000 1.47627000e+07
11325.000000 1.45351000e+07
11375.000000 1.43246000e+07
11425.000000 1.40901000e+07
11475.000000 1.38649000e+07
11525.000000 1.36410000e+07
11575.000000 1.34217000e+07
11625.000000 1.31952000e+07
11675.000000 1.29876000e+07
11725.000000 1.27878000e+07
11775.000000 1.25612000e+07
11825.000000 1.23887000e+07
11875.000000 1.21908000e+07
11925.000000 1.20064000e+07
11975.000000 1.17463000e+07
12025.000000 1.16364000e+07
12075.000000 1.14565000e+07
12125.000000 1.12794000e+07
12175.000000 1.11072000e+07
12225.000000 1.09376000e+07
12275.000000 1.07709000e+07
12325.000000 1.06078000e+07
12375.000000 1.04482000e+07
12425.000000 1.02923000e+07
12475.000000 1.01296000e+07
12525.000000 9.97660000e+06
12575.000000 9.83190000e+06
12625.000000 9.69013000e+06
12675.000000 9.54442000e+06
12725.000000 9.37091000e+06
12775.000000 9.03201000e+06
12825.000000 8.17748000e+06
12875.000000 8.85611000e+06
12925.000000 8.84365000e+06
12975.000000 8.70916000e+06
13025.000000 8.62067000e+06
13075.000000 8.49712000e+06
