# Kurucz ODFNEW /NOVER, alpha: 0.0 (2003)
# teff = 27000 K (value for the effective temperature for the model. Temperatures are given in K)
# logg = 4.5 log(cm/s2) (value for Log(G) for the model.)
# lh = 1.25  (l/Hp where l is the  mixing length of the convective element and Hp is the pressure scale height)
# meta = -2.5  (value for the Metallicity for the model.)
# vtur = 2 km/s (Microturbulence velocity)
# alpha = 0  (Alpha)
#
# column 1: WAVELENGTH (ANGSTROM), Wavelength in Angstrom
# column 2: FLUX (ERG/CM2/S/A), Flux in erg/cm2/s/A
147.200000 1.28367000e-11
151.000000 5.51339000e-11
155.200000 2.53764000e-10
158.800000 8.79130000e-10
162.000000 2.52976000e-09
166.000000 8.93974000e-09
170.300000 3.23847000e-08
173.400000 7.86623000e-08
176.800000 2.00512000e-07
180.200000 4.92746000e-07
181.700000 7.24580000e-07
186.100000 2.16357000e-06
191.000000 6.87543000e-06
193.900000 1.32326000e-05
198.400000 3.51189000e-05
201.800000 7.12500000e-05
205.000000 1.35596000e-04
210.500000 3.90594000e-04
216.200000 1.10095000e-03
219.800000 2.05637000e-03
223.000000 3.51934000e-03
226.800000 6.52268000e-03
230.000000 4.78055000e-02
234.000000 1.05879000e-01
240.000000 2.36529000e-01
246.500000 5.41048000e-01
252.400000 1.11341000e+00
256.800000 1.75516000e+00
260.000000 2.63582000e+00
264.000000 4.06059000e+00
268.500000 6.49497000e+00
273.500000 1.07339000e+01
278.500000 1.74317000e+01
284.000000 2.90884000e+01
290.000000 4.96378000e+01
296.000000 8.26847000e+01
301.000000 1.23783000e+02
308.000000 2.06636000e+02
318.000000 4.52564000e+02
328.000000 9.03094000e+02
338.000000 1.72639000e+03
348.000000 3.16865000e+03
357.000000 5.29997000e+03
366.000000 8.63866000e+03
375.000000 1.36825000e+04
385.000000 2.22403000e+04
395.000000 3.51244000e+04
405.000000 5.41236000e+04
414.000000 7.83457000e+04
422.000000 1.07104000e+05
430.000000 1.44406000e+05
441.000000 2.14205000e+05
451.000000 3.00567000e+05
460.000000 4.01548000e+05
470.000000 5.46420000e+05
480.000000 7.32137000e+05
490.000000 9.68121000e+05
500.000000 1.26328000e+06
506.000000 6.99235000e+06
512.000000 2.25612000e+07
520.000000 2.56981000e+07
530.000000 3.21018000e+07
540.000000 3.31447000e+07
550.000000 4.18251000e+07
560.000000 4.65554000e+07
570.000000 5.27607000e+07
580.000000 5.26111000e+07
590.000000 6.36598000e+07
600.000000 7.19302000e+07
610.000000 7.99069000e+07
620.000000 8.75298000e+07
630.000000 9.64556000e+07
640.000000 1.04198000e+08
650.000000 1.15034000e+08
658.000000 1.23287000e+08
665.000000 1.30510000e+08
675.000000 1.39571000e+08
685.000000 1.49407000e+08
695.000000 1.65105000e+08
705.000000 1.75902000e+08
716.000000 1.90607000e+08
726.000000 2.03748000e+08
735.000000 2.17736000e+08
745.000000 2.32659000e+08
755.000000 2.47738000e+08
765.000000 2.62721000e+08
775.000000 2.79255000e+08
785.000000 2.95832000e+08
795.000000 3.11910000e+08
805.000000 3.29207000e+08
815.000000 3.46139000e+08
825.000000 3.64522000e+08
835.000000 3.76694000e+08
845.000000 4.00079000e+08
855.000000 4.17717000e+08
865.000000 4.37796000e+08
875.000000 4.57768000e+08
885.000000 4.77395000e+08
895.000000 4.96882000e+08
905.000000 5.12916000e+08
915.000000 6.95165000e+08
925.000000 4.09864000e+09
935.000000 1.05664000e+10
945.000000 2.79071000e+10
955.000000 3.70036000e+10
965.000000 4.87890000e+10
975.000000 2.20056000e+10
985.000000 5.33861000e+10
995.000000 5.05223000e+10
1005.000000 5.27072000e+10
1015.000000 4.75563000e+10
1025.000000 1.76183000e+10
1035.000000 4.34045000e+10
1045.000000 4.90289000e+10
1055.000000 4.80497000e+10
1065.000000 4.52318000e+10
1075.000000 4.51505000e+10
1085.000000 4.16691000e+10
1095.000000 4.35916000e+10
1105.000000 4.18436000e+10
1115.000000 4.08843000e+10
1125.000000 3.88837000e+10
1135.000000 3.92543000e+10
1145.000000 3.78389000e+10
1155.000000 3.74265000e+10
1165.000000 3.66008000e+10
1175.000000 3.25669000e+10
1185.000000 3.45629000e+10
1195.000000 3.29501000e+10
1205.000000 2.94581000e+10
1215.000000 1.17016000e+10
1225.000000 2.80145000e+10
1235.000000 3.04822000e+10
1245.000000 2.98316000e+10
1255.000000 2.95327000e+10
1265.000000 2.88464000e+10
1275.000000 2.83215000e+10
1285.000000 2.76885000e+10
1295.000000 2.62696000e+10
1305.000000 2.59791000e+10
1315.000000 2.58665000e+10
1325.000000 2.50806000e+10
1335.000000 2.42412000e+10
1345.000000 2.41528000e+10
1355.000000 2.36971000e+10
1365.000000 2.31288000e+10
1375.000000 2.26541000e+10
1385.000000 2.21808000e+10
1395.000000 2.12600000e+10
1405.000000 2.09202000e+10
1415.000000 2.07686000e+10
1425.000000 2.03427000e+10
1435.000000 1.99595000e+10
1442.000000 1.96974000e+10
1447.000000 1.94859000e+10
1455.000000 1.91637000e+10
1465.000000 1.87625000e+10
1475.000000 1.83860000e+10
1485.000000 1.80180000e+10
1495.000000 1.76547000e+10
1505.000000 1.72429000e+10
1512.000000 1.70111000e+10
1517.000000 1.68566000e+10
1525.000000 1.65797000e+10
1535.000000 1.61070000e+10
1545.000000 1.57402000e+10
1555.000000 1.54051000e+10
1565.000000 1.52964000e+10
1575.000000 1.50476000e+10
1585.000000 1.47742000e+10
1595.000000 1.45020000e+10
1605.000000 1.41258000e+10
1615.000000 1.38582000e+10
1625.000000 1.36670000e+10
1635.000000 1.33978000e+10
1645.000000 1.28850000e+10
1655.000000 1.29642000e+10
1665.000000 1.27424000e+10
1672.000000 1.25633000e+10
1677.000000 1.24948000e+10
1685.000000 1.23060000e+10
1695.000000 1.20714000e+10
1705.000000 1.18422000e+10
1715.000000 1.16001000e+10
1725.000000 1.14090000e+10
1735.000000 1.12387000e+10
1745.000000 1.10355000e+10
1755.000000 1.08572000e+10
1765.000000 1.06085000e+10
1775.000000 1.04623000e+10
1785.000000 1.03069000e+10
1795.000000 1.01407000e+10
1805.000000 9.97990000e+09
1815.000000 9.79590000e+09
1825.000000 9.63669000e+09
1835.000000 9.47746000e+09
1845.000000 9.26245000e+09
1855.000000 9.01429000e+09
1865.000000 8.90857000e+09
1875.000000 8.85376000e+09
1885.000000 8.63083000e+09
1895.000000 8.41871000e+09
1905.000000 8.39876000e+09
1915.000000 8.17341000e+09
1925.000000 8.04144000e+09
1935.000000 7.96678000e+09
1945.000000 7.89025000e+09
1955.000000 7.67056000e+09
1967.000000 7.61991000e+09
1976.000000 7.54496000e+09
1984.000000 7.40528000e+09
1995.000000 7.21906000e+09
2005.000000 7.19811000e+09
2015.000000 7.10764000e+09
2025.000000 7.00996000e+09
2035.000000 6.88456000e+09
2045.000000 6.77974000e+09
2055.000000 6.56708000e+09
2065.000000 6.44214000e+09
2074.000000 6.42585000e+09
2078.000000 6.32122000e+09
2085.000000 6.32443000e+09
2095.000000 6.23639000e+09
2105.000000 6.20516000e+09
2115.000000 6.12936000e+09
2125.000000 6.04711000e+09
2135.000000 5.95720000e+09
2145.000000 5.86560000e+09
2155.000000 5.78760000e+09
2165.000000 5.70516000e+09
2175.000000 5.62391000e+09
2185.000000 5.54336000e+09
2195.000000 5.46927000e+09
2205.000000 5.39204000e+09
2215.000000 5.31436000e+09
2225.000000 5.24189000e+09
2235.000000 5.16824000e+09
2245.000000 5.09860000e+09
2255.000000 5.02437000e+09
2265.000000 4.95954000e+09
2275.000000 4.89187000e+09
2285.000000 4.82555000e+09
2295.000000 4.72186000e+09
2305.000000 4.69211000e+09
2315.000000 4.63135000e+09
2325.000000 4.56943000e+09
2335.000000 4.50751000e+09
2345.000000 4.44852000e+09
2355.000000 4.39024000e+09
2365.000000 4.33211000e+09
2375.000000 4.27467000e+09
2385.000000 4.21559000e+09
2395.000000 4.16345000e+09
2405.000000 4.10962000e+09
2415.000000 4.05576000e+09
2425.000000 4.00425000e+09
2435.000000 3.95211000e+09
2445.000000 3.90176000e+09
2455.000000 3.85223000e+09
2465.000000 3.80312000e+09
2475.000000 3.75479000e+09
2485.000000 3.70719000e+09
2495.000000 3.61707000e+09
2505.000000 3.61407000e+09
2513.000000 3.56723000e+09
2518.000000 3.55528000e+09
2525.000000 3.52472000e+09
2535.000000 3.48102000e+09
2545.000000 3.43516000e+09
2555.000000 3.39500000e+09
2565.000000 3.35380000e+09
2575.000000 3.31297000e+09
2585.000000 3.27256000e+09
2595.000000 3.23279000e+09
2605.000000 3.21429000e+09
2615.000000 3.17538000e+09
2625.000000 3.13674000e+09
2635.000000 3.09572000e+09
2645.000000 3.05723000e+09
2655.000000 3.01682000e+09
2665.000000 2.97534000e+09
2675.000000 2.93602000e+09
2685.000000 2.91905000e+09
2695.000000 2.86314000e+09
2705.000000 2.85051000e+09
2715.000000 2.81708000e+09
2725.000000 2.76149000e+09
2735.000000 2.75024000e+09
2745.000000 2.71924000e+09
2755.000000 2.68807000e+09
2765.000000 2.63392000e+09
2775.000000 2.62677000e+09
2785.000000 2.59652000e+09
2795.000000 2.56163000e+09
2805.000000 2.53636000e+09
2815.000000 2.50886000e+09
2825.000000 2.45289000e+09
2835.000000 2.43745000e+09
2845.000000 2.42486000e+09
2855.000000 2.39764000e+09
2865.000000 2.37083000e+09
2875.000000 2.34439000e+09
2885.000000 2.31834000e+09
2895.000000 2.29264000e+09
2910.000000 2.25474000e+09
2930.000000 2.20542000e+09
2950.000000 2.14081000e+09
2970.000000 2.11096000e+09
2990.000000 2.06554000e+09
3010.000000 2.02143000e+09
3030.000000 1.97870000e+09
3050.000000 1.93700000e+09
3070.000000 1.89638000e+09
3090.000000 1.85644000e+09
3110.000000 1.81831000e+09
3130.000000 1.78261000e+09
3150.000000 1.74604000e+09
3170.000000 1.70990000e+09
3190.000000 1.66017000e+09
3210.000000 1.64064000e+09
3230.000000 1.60775000e+09
3250.000000 1.57529000e+09
3270.000000 1.54586000e+09
3290.000000 1.51310000e+09
3310.000000 1.48565000e+09
3330.000000 1.45665000e+09
3350.000000 1.42561000e+09
3370.000000 1.40075000e+09
3390.000000 1.37381000e+09
3410.000000 1.34757000e+09
3430.000000 1.31595000e+09
3450.000000 1.28624000e+09
3470.000000 1.26589000e+09
3490.000000 1.24208000e+09
3510.000000 1.22146000e+09
3530.000000 1.20121000e+09
3550.000000 1.17932000e+09
3570.000000 1.16475000e+09
3590.000000 1.13527000e+09
3610.000000 1.11836000e+09
3630.000000 1.09460000e+09
3640.000000 1.09309000e+09
3650.000000 1.08080000e+09
3670.000000 1.06612000e+09
3690.000000 1.04579000e+09
3710.000000 1.00986000e+09
3730.000000 9.68163000e+08
3750.000000 9.83448000e+08
3770.000000 9.71875000e+08
3790.000000 1.01984000e+09
3810.000000 1.06333000e+09
3830.000000 9.25740000e+08
3850.000000 1.09187000e+09
3870.000000 1.10625000e+09
3890.000000 8.72532000e+08
3910.000000 1.08595000e+09
3930.000000 1.07609000e+09
3950.000000 1.05098000e+09
3970.000000 8.10281000e+08
3990.000000 1.00623000e+09
4010.000000 1.00374000e+09
4030.000000 9.41563000e+08
4050.000000 9.81001000e+08
4070.000000 9.59580000e+08
4090.000000 8.74616000e+08
4110.000000 7.61126000e+08
4130.000000 8.98042000e+08
4150.000000 8.90895000e+08
4170.000000 8.84059000e+08
4190.000000 8.71370000e+08
4210.000000 8.56691000e+08
4230.000000 8.42209000e+08
4250.000000 8.27981000e+08
4270.000000 8.13548000e+08
4290.000000 7.98918000e+08
4310.000000 7.80630000e+08
4330.000000 7.00155000e+08
4350.000000 6.37727000e+08
4370.000000 7.40403000e+08
4390.000000 7.12580000e+08
4410.000000 7.24282000e+08
4430.000000 7.09791000e+08
4450.000000 7.01541000e+08
4470.000000 6.56079000e+08
4490.000000 6.78502000e+08
4510.000000 6.68571000e+08
4530.000000 6.57962000e+08
4550.000000 6.47496000e+08
4570.000000 6.37313000e+08
4590.000000 6.27337000e+08
4610.000000 6.17580000e+08
4630.000000 6.07968000e+08
4650.000000 5.98272000e+08
4670.000000 5.89306000e+08
4690.000000 5.79650000e+08
4710.000000 5.63852000e+08
4730.000000 5.62647000e+08
4750.000000 5.54045000e+08
4770.000000 5.45799000e+08
4790.000000 5.37556000e+08
4810.000000 5.28194000e+08
4830.000000 5.16998000e+08
4850.000000 4.72880000e+08
4870.000000 4.21700000e+08
4890.000000 4.92005000e+08
4910.000000 4.89006000e+08
4930.000000 4.70522000e+08
4950.000000 4.77045000e+08
4970.000000 4.70147000e+08
4990.000000 4.63330000e+08
5010.000000 4.50663000e+08
5030.000000 4.50049000e+08
5050.000000 4.40863000e+08
5070.000000 4.37260000e+08
5090.000000 4.31039000e+08
5110.000000 4.24915000e+08
5130.000000 4.18903000e+08
5150.000000 4.13000000e+08
5170.000000 4.07217000e+08
5190.000000 4.01511000e+08
5210.000000 3.95923000e+08
5230.000000 3.90421000e+08
5250.000000 3.85019000e+08
5270.000000 3.79701000e+08
5290.000000 3.74480000e+08
5310.000000 3.69353000e+08
5330.000000 3.64318000e+08
5350.000000 3.59349000e+08
5370.000000 3.54482000e+08
5390.000000 3.49691000e+08
5410.000000 3.44961000e+08
5430.000000 3.40354000e+08
5450.000000 3.35806000e+08
5470.000000 3.31328000e+08
5490.000000 3.26931000e+08
5510.000000 3.22601000e+08
5530.000000 3.18350000e+08
5550.000000 3.14164000e+08
5570.000000 3.10054000e+08
5590.000000 3.06007000e+08
5610.000000 3.02022000e+08
5630.000000 2.98097000e+08
5650.000000 2.94244000e+08
5670.000000 2.90449000e+08
5690.000000 2.86700000e+08
5710.000000 2.83055000e+08
5730.000000 2.79441000e+08
5750.000000 2.75883000e+08
5770.000000 2.72389000e+08
5790.000000 2.68949000e+08
5810.000000 2.65560000e+08
5830.000000 2.62223000e+08
5850.000000 2.58947000e+08
5870.000000 2.47323000e+08
5890.000000 2.52075000e+08
5910.000000 2.49401000e+08
5930.000000 2.46318000e+08
5950.000000 2.43282000e+08
5970.000000 2.40302000e+08
5990.000000 2.37356000e+08
6010.000000 2.34464000e+08
6030.000000 2.31606000e+08
6050.000000 2.28801000e+08
6070.000000 2.26038000e+08
6090.000000 2.23307000e+08
6110.000000 2.20626000e+08
6130.000000 2.17986000e+08
6150.000000 2.15375000e+08
6170.000000 2.12813000e+08
6190.000000 2.10290000e+08
6210.000000 2.07795000e+08
6230.000000 2.05346000e+08
6250.000000 2.02925000e+08
6270.000000 2.00550000e+08
6290.000000 1.98200000e+08
6310.000000 1.95896000e+08
6330.000000 1.93616000e+08
6350.000000 1.91371000e+08
6370.000000 1.89159000e+08
6390.000000 1.86980000e+08
6410.000000 1.84825000e+08
6430.000000 1.82711000e+08
6450.000000 1.80620000e+08
6470.000000 1.78560000e+08
6490.000000 1.76531000e+08
6510.000000 1.74328000e+08
6530.000000 1.71539000e+08
6550.000000 1.63117000e+08
6570.000000 1.44644000e+08
6590.000000 1.64717000e+08
6610.000000 1.64454000e+08
6630.000000 1.63112000e+08
6650.000000 1.61409000e+08
6670.000000 1.57783000e+08
6690.000000 1.56100000e+08
6710.000000 1.56117000e+08
6730.000000 1.54408000e+08
6750.000000 1.52718000e+08
6770.000000 1.51044000e+08
6790.000000 1.49404000e+08
6810.000000 1.47780000e+08
6830.000000 1.46181000e+08
6850.000000 1.44598000e+08
6870.000000 1.43047000e+08
6890.000000 1.41503000e+08
6910.000000 1.39991000e+08
6930.000000 1.38494000e+08
6950.000000 1.37019000e+08
6970.000000 1.35567000e+08
6990.000000 1.34130000e+08
7010.000000 1.32714000e+08
7030.000000 1.31312000e+08
7050.000000 1.29931000e+08
7070.000000 1.26371000e+08
7090.000000 1.27225000e+08
7110.000000 1.25899000e+08
7130.000000 1.24586000e+08
7150.000000 1.23293000e+08
7170.000000 1.21998000e+08
7190.000000 1.20759000e+08
7210.000000 1.19518000e+08
7230.000000 1.18252000e+08
7250.000000 1.17077000e+08
7270.000000 1.15885000e+08
7290.000000 1.13698000e+08
7310.000000 1.13521000e+08
7330.000000 1.12383000e+08
7350.000000 1.11249000e+08
7370.000000 1.10126000e+08
7390.000000 1.09020000e+08
7410.000000 1.07925000e+08
7430.000000 1.06847000e+08
7450.000000 1.05792000e+08
7470.000000 1.04740000e+08
7490.000000 1.03698000e+08
7510.000000 1.02632000e+08
7530.000000 1.01656000e+08
7550.000000 1.00655000e+08
7570.000000 9.96637000e+07
7590.000000 9.86879000e+07
7610.000000 9.77210000e+07
7630.000000 9.67629000e+07
7650.000000 9.58263000e+07
7670.000000 9.48917000e+07
7690.000000 9.39720000e+07
7710.000000 9.30605000e+07
7730.000000 9.21697000e+07
7750.000000 9.12806000e+07
7770.000000 9.04057000e+07
7790.000000 8.95386000e+07
7810.000000 8.86297000e+07
7830.000000 8.78396000e+07
7850.000000 8.70930000e+07
7870.000000 8.62677000e+07
7890.000000 8.53952000e+07
7910.000000 8.46448000e+07
7930.000000 8.38469000e+07
7950.000000 8.30560000e+07
7970.000000 8.21119000e+07
7990.000000 8.13295000e+07
8010.000000 8.05481000e+07
8030.000000 7.97910000e+07
8050.000000 7.90520000e+07
8070.000000 7.83714000e+07
8090.000000 7.75239000e+07
8110.000000 7.69244000e+07
8130.000000 7.62557000e+07
8150.000000 7.54905000e+07
8170.000000 7.49013000e+07
8190.000000 7.41203000e+07
8210.000000 7.33516000e+07
8230.000000 7.28898000e+07
8250.000000 7.22490000e+07
8270.000000 7.12445000e+07
8290.000000 7.09012000e+07
8310.000000 7.02984000e+07
8330.000000 6.96247000e+07
8350.000000 6.86485000e+07
8370.000000 6.82778000e+07
8390.000000 6.77761000e+07
8410.000000 6.71665000e+07
8430.000000 6.65195000e+07
8450.000000 6.54558000e+07
8470.000000 6.53151000e+07
8490.000000 6.45791000e+07
8510.000000 6.40470000e+07
8530.000000 6.34416000e+07
8550.000000 6.24649000e+07
8570.000000 6.28712000e+07
8590.000000 6.06336000e+07
8610.000000 6.06216000e+07
8630.000000 6.16561000e+07
8650.000000 5.98961000e+07
8670.000000 5.70991000e+07
8690.000000 6.00493000e+07
8710.000000 6.03003000e+07
8730.000000 5.83288000e+07
8750.000000 5.35405000e+07
8770.000000 5.65538000e+07
8790.000000 5.85299000e+07
8810.000000 5.83276000e+07
8830.000000 5.74500000e+07
8850.000000 5.36024000e+07
8870.000000 5.00283000e+07
8890.000000 5.52280000e+07
8910.000000 5.59484000e+07
8930.000000 5.56556000e+07
8950.000000 5.53554000e+07
8970.000000 5.46874000e+07
8990.000000 5.28082000e+07
9010.000000 4.69774000e+07
9030.000000 4.91489000e+07
9050.000000 5.23035000e+07
9070.000000 5.19724000e+07
9090.000000 5.20813000e+07
9110.000000 5.18937000e+07
9130.000000 5.15039000e+07
9150.000000 5.10405000e+07
9170.000000 5.03791000e+07
9190.000000 4.97318000e+07
9210.000000 4.71311000e+07
9230.000000 4.16347000e+07
9250.000000 4.63765000e+07
9270.000000 4.80311000e+07
9290.000000 4.80558000e+07
9310.000000 4.75497000e+07
9330.000000 4.75148000e+07
9350.000000 4.70791000e+07
9370.000000 4.67496000e+07
9390.000000 4.63712000e+07
9410.000000 4.59956000e+07
9430.000000 4.56228000e+07
9450.000000 4.52358000e+07
9470.000000 4.44568000e+07
9490.000000 4.42989000e+07
9510.000000 4.31797000e+07
9530.000000 4.09060000e+07
9550.000000 3.64339000e+07
9570.000000 4.12249000e+07
9590.000000 4.22780000e+07
9610.000000 4.21307000e+07
9630.000000 4.17772000e+07
9650.000000 4.17781000e+07
9670.000000 4.14484000e+07
9690.000000 4.10768000e+07
9710.000000 4.06641000e+07
9730.000000 4.04812000e+07
9750.000000 4.01647000e+07
9770.000000 3.98504000e+07
9790.000000 3.95384000e+07
9810.000000 3.92325000e+07
9830.000000 3.89280000e+07
9850.000000 3.86264000e+07
9870.000000 3.83281000e+07
9890.000000 3.80326000e+07
9910.000000 3.77350000e+07
9930.000000 3.74495000e+07
9950.000000 3.71621000e+07
9970.000000 3.67979000e+07
9990.000000 3.64249000e+07
10025.000000 3.42263000e+07
10075.000000 3.30683000e+07
10125.000000 3.45542000e+07
10175.000000 3.41143000e+07
10225.000000 3.34633000e+07
10275.000000 3.28612000e+07
10325.000000 3.21097000e+07
10375.000000 3.16641000e+07
10425.000000 3.10862000e+07
10475.000000 3.05213000e+07
10525.000000 2.99695000e+07
10575.000000 2.94297000e+07
10625.000000 2.89021000e+07
10675.000000 2.83212000e+07
10725.000000 2.78819000e+07
10775.000000 2.73885000e+07
10825.000000 2.65847000e+07
10875.000000 2.62835000e+07
10925.000000 2.35970000e+07
10975.000000 2.47583000e+07
11025.000000 2.48470000e+07
11075.000000 2.46151000e+07
11125.000000 2.42248000e+07
11175.000000 2.38109000e+07
11225.000000 2.33915000e+07
11275.000000 2.30096000e+07
11325.000000 2.26216000e+07
11375.000000 2.22415000e+07
11425.000000 2.18697000e+07
11475.000000 2.15053000e+07
11525.000000 2.11487000e+07
11575.000000 2.07993000e+07
11625.000000 2.04574000e+07
11675.000000 2.01223000e+07
11725.000000 1.97940000e+07
11775.000000 1.94725000e+07
11825.000000 1.91575000e+07
11875.000000 1.88488000e+07
11925.000000 1.85459000e+07
11975.000000 1.80241000e+07
12025.000000 1.79589000e+07
12075.000000 1.76743000e+07
12125.000000 1.73951000e+07
12175.000000 1.71214000e+07
12225.000000 1.68531000e+07
12275.000000 1.65900000e+07
12325.000000 1.63319000e+07
12375.000000 1.60790000e+07
12425.000000 1.58310000e+07
12475.000000 1.55876000e+07
12525.000000 1.53112000e+07
12575.000000 1.51146000e+07
12625.000000 1.48850000e+07
12675.000000 1.46595000e+07
12725.000000 1.44140000e+07
12775.000000 1.38990000e+07
12825.000000 1.27274000e+07
12875.000000 1.36571000e+07
12925.000000 1.35780000e+07
12975.000000 1.32740000e+07
13025.000000 1.31958000e+07
13075.000000 1.30019000e+07
