# Kurucz ODFNEW /NOVER, alpha: 0.0 (2003)
# teff = 24000 K (value for the effective temperature for the model. Temperatures are given in K)
# logg = 3.5 log(cm/s2) (value for Log(G) for the model.)
# lh = 1.25  (l/Hp where l is the  mixing length of the convective element and Hp is the pressure scale height)
# meta = 0  (value for the Metallicity for the model.)
# vtur = 2 km/s (Microturbulence velocity)
# alpha = 0  (Alpha)
#
# column 1: WAVELENGTH (ANGSTROM), Wavelength in Angstrom
# column 2: FLUX (ERG/CM2/S/A), Flux in erg/cm2/s/A
147.200000 1.60379000e-15
151.000000 7.31269000e-15
155.200000 3.61605000e-14
158.800000 1.34002000e-13
162.000000 4.11612000e-13
166.000000 1.58342000e-12
170.300000 6.30600000e-12
173.400000 1.64649000e-11
176.800000 4.54752000e-11
180.200000 1.21261000e-10
181.700000 1.84856000e-10
186.100000 6.15101000e-10
191.000000 2.20909000e-09
193.900000 4.57480000e-09
198.400000 1.36058000e-08
201.800000 3.00684000e-08
205.000000 6.19835000e-08
210.500000 2.04739000e-07
216.200000 6.63852000e-07
219.800000 1.35347000e-06
223.000000 2.50193000e-06
226.800000 5.08133000e-06
230.000000 4.63997000e-04
234.000000 1.08479000e-03
240.000000 2.59786000e-03
246.500000 6.45240000e-03
252.400000 1.42902000e-02
256.800000 2.37293000e-02
260.000000 3.96753000e-02
264.000000 6.36315000e-02
268.500000 1.07784000e-01
273.500000 1.88414000e-01
278.500000 3.23358000e-01
284.000000 6.13745000e-01
290.000000 1.10528000e+00
296.000000 1.95786000e+00
301.000000 3.05426000e+00
308.000000 5.80280000e+00
318.000000 1.42251000e+01
328.000000 3.01677000e+01
338.000000 6.50812000e+01
348.000000 1.29720000e+02
357.000000 4.66592000e+02
366.000000 8.85577000e+02
375.000000 1.38114000e+03
385.000000 2.34987000e+03
395.000000 4.18875000e+03
405.000000 6.53595000e+03
414.000000 9.86905000e+03
422.000000 1.38226000e+04
430.000000 1.98880000e+04
441.000000 3.05190000e+04
451.000000 4.29014000e+04
460.000000 5.78447000e+04
470.000000 8.27867000e+04
480.000000 1.14065000e+05
490.000000 1.57172000e+05
500.000000 2.09883000e+05
506.000000 1.28891000e+06
512.000000 1.01628000e+07
520.000000 1.15042000e+07
530.000000 1.34236000e+07
540.000000 1.44000000e+07
550.000000 2.12899000e+07
560.000000 2.55362000e+07
570.000000 3.05222000e+07
580.000000 2.91932000e+07
590.000000 3.86697000e+07
600.000000 4.34840000e+07
610.000000 5.16051000e+07
620.000000 5.75081000e+07
630.000000 6.15135000e+07
640.000000 5.80252000e+07
650.000000 4.39619000e+07
658.000000 6.82424000e+07
665.000000 8.24447000e+07
675.000000 8.68100000e+07
685.000000 8.84368000e+07
695.000000 1.15602000e+08
705.000000 1.16902000e+08
716.000000 1.33112000e+08
726.000000 1.37683000e+08
735.000000 1.43146000e+08
745.000000 1.64091000e+08
755.000000 1.75277000e+08
765.000000 1.88621000e+08
775.000000 2.02263000e+08
785.000000 2.17060000e+08
795.000000 2.25790000e+08
805.000000 2.34511000e+08
815.000000 2.41156000e+08
825.000000 2.64409000e+08
835.000000 2.31925000e+08
845.000000 2.73209000e+08
855.000000 2.79322000e+08
865.000000 2.98725000e+08
875.000000 3.19609000e+08
885.000000 3.46588000e+08
895.000000 3.63116000e+08
905.000000 3.59547000e+08
915.000000 5.86136000e+08
925.000000 5.15324000e+09
935.000000 1.09447000e+10
945.000000 1.76387000e+10
955.000000 2.06084000e+10
965.000000 2.18527000e+10
975.000000 4.03073000e+09
985.000000 1.63342000e+10
995.000000 1.74836000e+10
1005.000000 2.12612000e+10
1015.000000 2.18101000e+10
1025.000000 1.40078000e+10
1035.000000 1.70411000e+10
1045.000000 2.57685000e+10
1055.000000 2.35351000e+10
1065.000000 1.91061000e+10
1075.000000 2.20977000e+10
1085.000000 1.95766000e+10
1095.000000 2.22693000e+10
1105.000000 2.00394000e+10
1115.000000 1.92300000e+10
1125.000000 1.52737000e+10
1135.000000 2.05530000e+10
1145.000000 1.88151000e+10
1155.000000 1.92255000e+10
1165.000000 1.89530000e+10
1175.000000 1.06828000e+10
1185.000000 1.78733000e+10
1195.000000 1.65924000e+10
1205.000000 1.06966000e+10
1215.000000 1.02681000e+10
1225.000000 1.58389000e+10
1235.000000 1.77746000e+10
1245.000000 1.71134000e+10
1255.000000 1.69329000e+10
1265.000000 1.72007000e+10
1275.000000 1.78193000e+10
1285.000000 1.75905000e+10
1295.000000 1.21899000e+10
1305.000000 1.34132000e+10
1315.000000 1.70927000e+10
1325.000000 1.59395000e+10
1335.000000 1.52402000e+10
1345.000000 1.56629000e+10
1355.000000 1.53909000e+10
1365.000000 1.41189000e+10
1375.000000 1.36963000e+10
1385.000000 1.32635000e+10
1395.000000 9.20923000e+09
1405.000000 1.01882000e+10
1415.000000 1.17067000e+10
1425.000000 1.15431000e+10
1435.000000 1.20193000e+10
1442.000000 1.22958000e+10
1447.000000 1.20491000e+10
1455.000000 1.16404000e+10
1465.000000 1.06526000e+10
1475.000000 1.09759000e+10
1485.000000 1.08612000e+10
1495.000000 1.06125000e+10
1505.000000 9.61140000e+09
1512.000000 8.48774000e+09
1517.000000 8.79760000e+09
1525.000000 9.10857000e+09
1535.000000 7.61877000e+09
1545.000000 7.37100000e+09
1555.000000 7.17087000e+09
1565.000000 7.86506000e+09
1575.000000 8.43160000e+09
1585.000000 8.47355000e+09
1595.000000 8.35475000e+09
1605.000000 8.47121000e+09
1615.000000 8.27303000e+09
1625.000000 8.13657000e+09
1635.000000 8.67025000e+09
1645.000000 8.65634000e+09
1655.000000 8.54985000e+09
1665.000000 8.68853000e+09
1672.000000 8.24454000e+09
1677.000000 9.09966000e+09
1685.000000 8.76135000e+09
1695.000000 8.21992000e+09
1705.000000 8.02179000e+09
1715.000000 7.52786000e+09
1725.000000 7.45109000e+09
1735.000000 7.77056000e+09
1745.000000 7.57684000e+09
1755.000000 7.63018000e+09
1765.000000 7.55206000e+09
1775.000000 7.02156000e+09
1785.000000 7.18549000e+09
1795.000000 7.40931000e+09
1805.000000 7.48620000e+09
1815.000000 6.57916000e+09
1825.000000 6.89896000e+09
1835.000000 6.68726000e+09
1845.000000 6.06304000e+09
1855.000000 6.13032000e+09
1865.000000 6.22376000e+09
1875.000000 6.53989000e+09
1885.000000 5.76816000e+09
1895.000000 5.33932000e+09
1905.000000 5.86164000e+09
1915.000000 5.46989000e+09
1925.000000 5.17145000e+09
1935.000000 5.54848000e+09
1945.000000 5.65837000e+09
1955.000000 5.05230000e+09
1967.000000 5.55987000e+09
1976.000000 5.79802000e+09
1984.000000 5.36996000e+09
1995.000000 5.26433000e+09
2005.000000 5.51034000e+09
2015.000000 5.43537000e+09
2025.000000 5.60369000e+09
2035.000000 5.04959000e+09
2045.000000 5.18022000e+09
2055.000000 4.95232000e+09
2065.000000 4.92744000e+09
2074.000000 5.27056000e+09
2078.000000 4.66279000e+09
2085.000000 5.00079000e+09
2095.000000 4.72055000e+09
2105.000000 4.89329000e+09
2115.000000 4.92469000e+09
2125.000000 4.96121000e+09
2135.000000 4.88947000e+09
2145.000000 4.58566000e+09
2155.000000 4.81966000e+09
2165.000000 4.81446000e+09
2175.000000 4.75365000e+09
2185.000000 4.56852000e+09
2195.000000 4.65334000e+09
2205.000000 4.64222000e+09
2215.000000 4.55855000e+09
2225.000000 4.43670000e+09
2235.000000 4.36519000e+09
2245.000000 4.41444000e+09
2255.000000 4.26462000e+09
2265.000000 4.32390000e+09
2275.000000 4.25904000e+09
2285.000000 4.26210000e+09
2295.000000 3.85847000e+09
2305.000000 4.11068000e+09
2315.000000 3.98287000e+09
2325.000000 3.93816000e+09
2335.000000 3.81482000e+09
2345.000000 3.84997000e+09
2355.000000 3.83969000e+09
2365.000000 3.80196000e+09
2375.000000 3.72133000e+09
2385.000000 3.69303000e+09
2395.000000 3.65306000e+09
2405.000000 3.58478000e+09
2415.000000 3.55431000e+09
2425.000000 3.54818000e+09
2435.000000 3.44381000e+09
2445.000000 3.45653000e+09
2455.000000 3.46006000e+09
2465.000000 3.39323000e+09
2475.000000 3.33868000e+09
2485.000000 3.27337000e+09
2495.000000 2.78403000e+09
2505.000000 3.16944000e+09
2513.000000 3.04257000e+09
2518.000000 3.16050000e+09
2525.000000 3.12362000e+09
2535.000000 3.08701000e+09
2545.000000 2.97474000e+09
2555.000000 3.01988000e+09
2565.000000 2.97760000e+09
2575.000000 2.98605000e+09
2585.000000 2.93819000e+09
2595.000000 2.91217000e+09
2605.000000 2.89297000e+09
2615.000000 2.84741000e+09
2625.000000 2.82833000e+09
2635.000000 2.80294000e+09
2645.000000 2.77263000e+09
2655.000000 2.76114000e+09
2665.000000 2.65389000e+09
2675.000000 2.66604000e+09
2685.000000 2.65787000e+09
2695.000000 2.56406000e+09
2705.000000 2.51785000e+09
2715.000000 2.52137000e+09
2725.000000 2.51355000e+09
2735.000000 2.49656000e+09
2745.000000 2.43256000e+09
2755.000000 2.42545000e+09
2765.000000 2.39966000e+09
2775.000000 2.41322000e+09
2785.000000 2.37285000e+09
2795.000000 2.29080000e+09
2805.000000 2.31127000e+09
2815.000000 2.31042000e+09
2825.000000 2.27922000e+09
2835.000000 2.19680000e+09
2845.000000 2.22365000e+09
2855.000000 2.18379000e+09
2865.000000 2.18459000e+09
2875.000000 2.16098000e+09
2885.000000 2.13946000e+09
2895.000000 2.10354000e+09
2910.000000 2.06389000e+09
2930.000000 2.03546000e+09
2950.000000 1.97518000e+09
2970.000000 1.94824000e+09
2990.000000 1.90566000e+09
3010.000000 1.83755000e+09
3030.000000 1.83295000e+09
3050.000000 1.80235000e+09
3070.000000 1.77267000e+09
3090.000000 1.70398000e+09
3110.000000 1.69659000e+09
3130.000000 1.65660000e+09
3150.000000 1.62963000e+09
3170.000000 1.58836000e+09
3190.000000 1.55596000e+09
3210.000000 1.53568000e+09
3230.000000 1.49957000e+09
3250.000000 1.47731000e+09
3270.000000 1.44443000e+09
3290.000000 1.41617000e+09
3310.000000 1.39175000e+09
3330.000000 1.36248000e+09
3350.000000 1.33850000e+09
3370.000000 1.31261000e+09
3390.000000 1.29202000e+09
3410.000000 1.26878000e+09
3430.000000 1.23997000e+09
3450.000000 1.21342000e+09
3470.000000 1.19277000e+09
3490.000000 1.16971000e+09
3510.000000 1.15223000e+09
3530.000000 1.13673000e+09
3550.000000 1.11582000e+09
3570.000000 1.09966000e+09
3590.000000 1.06853000e+09
3610.000000 1.04953000e+09
3630.000000 1.03553000e+09
3640.000000 1.03400000e+09
3650.000000 1.01039000e+09
3670.000000 9.99044000e+08
3690.000000 9.73026000e+08
3710.000000 9.44034000e+08
3730.000000 9.20290000e+08
3750.000000 9.82644000e+08
3770.000000 9.77256000e+08
3790.000000 1.00476000e+09
3810.000000 1.03527000e+09
3830.000000 9.25637000e+08
3850.000000 1.03583000e+09
3870.000000 1.01509000e+09
3890.000000 8.83013000e+08
3910.000000 1.00724000e+09
3930.000000 9.71990000e+08
3950.000000 9.65891000e+08
3970.000000 8.18862000e+08
3990.000000 9.33843000e+08
4010.000000 9.23684000e+08
4030.000000 8.82876000e+08
4050.000000 8.93287000e+08
4070.000000 8.57215000e+08
4090.000000 8.18269000e+08
4110.000000 7.44623000e+08
4130.000000 8.17117000e+08
4150.000000 8.10879000e+08
4170.000000 8.05199000e+08
4190.000000 7.95878000e+08
4210.000000 7.88079000e+08
4230.000000 7.71128000e+08
4250.000000 7.52124000e+08
4270.000000 7.32264000e+08
4290.000000 7.24285000e+08
4310.000000 7.04823000e+08
4330.000000 6.65353000e+08
4350.000000 6.15927000e+08
4370.000000 6.71082000e+08
4390.000000 6.65235000e+08
4410.000000 6.59835000e+08
4430.000000 6.52566000e+08
4450.000000 6.42908000e+08
4470.000000 6.18785000e+08
4490.000000 6.23413000e+08
4510.000000 6.17692000e+08
4530.000000 6.07440000e+08
4550.000000 5.98855000e+08
4570.000000 5.88700000e+08
4590.000000 5.79307000e+08
4610.000000 5.66581000e+08
4630.000000 5.58709000e+08
4650.000000 5.41839000e+08
4670.000000 5.42494000e+08
4690.000000 5.38082000e+08
4710.000000 5.18901000e+08
4730.000000 5.18866000e+08
4750.000000 5.10582000e+08
4770.000000 5.09952000e+08
4790.000000 5.01154000e+08
4810.000000 4.91475000e+08
4830.000000 4.83312000e+08
4850.000000 4.62341000e+08
4870.000000 4.19349000e+08
4890.000000 4.63773000e+08
4910.000000 4.58455000e+08
4930.000000 4.44188000e+08
4950.000000 4.43650000e+08
4970.000000 4.40513000e+08
4990.000000 4.33358000e+08
5010.000000 4.16367000e+08
5030.000000 4.20567000e+08
5050.000000 4.11127000e+08
5070.000000 4.09487000e+08
5090.000000 4.03222000e+08
5110.000000 3.96926000e+08
5130.000000 3.88527000e+08
5150.000000 3.84407000e+08
5170.000000 3.81269000e+08
5190.000000 3.76462000e+08
5210.000000 3.70330000e+08
5230.000000 3.65878000e+08
5250.000000 3.61168000e+08
5270.000000 3.55543000e+08
5290.000000 3.51527000e+08
5310.000000 3.46425000e+08
5330.000000 3.42080000e+08
5350.000000 3.37079000e+08
5370.000000 3.33319000e+08
5390.000000 3.28580000e+08
5410.000000 3.24649000e+08
5430.000000 3.19924000e+08
5450.000000 3.15589000e+08
5470.000000 3.11472000e+08
5490.000000 3.07470000e+08
5510.000000 3.04038000e+08
5530.000000 2.99502000e+08
5550.000000 2.96357000e+08
5570.000000 2.92253000e+08
5590.000000 2.88815000e+08
5610.000000 2.84892000e+08
5630.000000 2.81529000e+08
5650.000000 2.76730000e+08
5670.000000 2.72110000e+08
5690.000000 2.68036000e+08
5710.000000 2.66566000e+08
5730.000000 2.63481000e+08
5750.000000 2.59475000e+08
5770.000000 2.57498000e+08
5790.000000 2.54070000e+08
5810.000000 2.51007000e+08
5830.000000 2.47370000e+08
5850.000000 2.44702000e+08
5870.000000 2.35942000e+08
5890.000000 2.36840000e+08
5910.000000 2.35196000e+08
5930.000000 2.31888000e+08
5950.000000 2.28905000e+08
5970.000000 2.27607000e+08
5990.000000 2.23822000e+08
6010.000000 2.21855000e+08
6030.000000 2.18769000e+08
6050.000000 2.16388000e+08
6070.000000 2.14178000e+08
6090.000000 2.11635000e+08
6110.000000 2.09142000e+08
6130.000000 2.06807000e+08
6150.000000 2.03432000e+08
6170.000000 2.01413000e+08
6190.000000 1.99416000e+08
6210.000000 1.97273000e+08
6230.000000 1.95038000e+08
6250.000000 1.92394000e+08
6270.000000 1.90334000e+08
6290.000000 1.88279000e+08
6310.000000 1.85970000e+08
6330.000000 1.84054000e+08
6350.000000 1.81383000e+08
6370.000000 1.79726000e+08
6390.000000 1.77680000e+08
6410.000000 1.75730000e+08
6430.000000 1.73864000e+08
6450.000000 1.71845000e+08
6470.000000 1.69417000e+08
6490.000000 1.67578000e+08
6510.000000 1.66043000e+08
6530.000000 1.63835000e+08
6550.000000 1.59227000e+08
6570.000000 1.42828000e+08
6590.000000 1.57031000e+08
6610.000000 1.56824000e+08
6630.000000 1.55322000e+08
6650.000000 1.53571000e+08
6670.000000 1.50848000e+08
6690.000000 1.49257000e+08
6710.000000 1.48779000e+08
6730.000000 1.46839000e+08
6750.000000 1.45623000e+08
6770.000000 1.44057000e+08
6790.000000 1.41453000e+08
6810.000000 1.40770000e+08
6830.000000 1.39276000e+08
6850.000000 1.37942000e+08
6870.000000 1.36470000e+08
6890.000000 1.34893000e+08
6910.000000 1.33364000e+08
6930.000000 1.32163000e+08
6950.000000 1.30811000e+08
6970.000000 1.29449000e+08
6990.000000 1.28062000e+08
7010.000000 1.26726000e+08
7030.000000 1.25389000e+08
7050.000000 1.24087000e+08
7070.000000 1.20929000e+08
7090.000000 1.21559000e+08
7110.000000 1.19505000e+08
7130.000000 1.18361000e+08
7150.000000 1.17818000e+08
7170.000000 1.16619000e+08
7190.000000 1.15461000e+08
7210.000000 1.14278000e+08
7230.000000 1.11521000e+08
7250.000000 1.11788000e+08
7270.000000 1.10824000e+08
7290.000000 1.08863000e+08
7310.000000 1.08578000e+08
7330.000000 1.07475000e+08
7350.000000 1.06444000e+08
7370.000000 1.05389000e+08
7390.000000 1.04343000e+08
7410.000000 1.03307000e+08
7430.000000 1.02247000e+08
7450.000000 1.01264000e+08
7470.000000 9.98992000e+07
7490.000000 9.92388000e+07
7510.000000 9.82501000e+07
7530.000000 9.72637000e+07
7550.000000 9.63988000e+07
7570.000000 9.54694000e+07
7590.000000 9.45222000e+07
7610.000000 9.35187000e+07
7630.000000 9.26861000e+07
7650.000000 9.18094000e+07
7670.000000 9.09278000e+07
7690.000000 9.00541000e+07
7710.000000 8.91629000e+07
7730.000000 8.83049000e+07
7750.000000 8.74984000e+07
7770.000000 8.63310000e+07
7790.000000 8.58572000e+07
7810.000000 8.49795000e+07
7830.000000 8.42387000e+07
7850.000000 8.34616000e+07
7870.000000 8.26000000e+07
7890.000000 8.16613000e+07
7910.000000 8.10742000e+07
7930.000000 8.02525000e+07
7950.000000 7.94200000e+07
7970.000000 7.86898000e+07
7990.000000 7.79187000e+07
8010.000000 7.72423000e+07
8030.000000 7.65542000e+07
8050.000000 7.59243000e+07
8070.000000 7.52534000e+07
8090.000000 7.44501000e+07
8110.000000 7.35621000e+07
8130.000000 7.32405000e+07
8150.000000 7.24675000e+07
8170.000000 7.19607000e+07
8190.000000 7.10481000e+07
8210.000000 7.02328000e+07
8230.000000 6.95860000e+07
8250.000000 6.92380000e+07
8270.000000 6.80277000e+07
8290.000000 6.79081000e+07
8310.000000 6.73416000e+07
8330.000000 6.67526000e+07
8350.000000 6.58496000e+07
8370.000000 6.53794000e+07
8390.000000 6.49235000e+07
8410.000000 6.42955000e+07
8430.000000 6.36727000e+07
8450.000000 6.26436000e+07
8470.000000 6.23218000e+07
8490.000000 6.20442000e+07
8510.000000 6.09206000e+07
8530.000000 6.11789000e+07
8550.000000 5.90739000e+07
8570.000000 6.09067000e+07
8590.000000 5.81931000e+07
8610.000000 5.78164000e+07
8630.000000 5.98857000e+07
8650.000000 5.82748000e+07
8670.000000 5.41372000e+07
8690.000000 5.84529000e+07
8710.000000 5.85076000e+07
8730.000000 5.69447000e+07
8750.000000 5.16313000e+07
8770.000000 5.54909000e+07
8790.000000 5.66819000e+07
8810.000000 5.62744000e+07
8830.000000 5.56574000e+07
8850.000000 5.28953000e+07
8870.000000 4.90515000e+07
8890.000000 5.39934000e+07
8910.000000 5.39459000e+07
8930.000000 5.35108000e+07
8950.000000 5.32437000e+07
8970.000000 5.27162000e+07
8990.000000 5.15357000e+07
9010.000000 4.65180000e+07
9030.000000 4.88671000e+07
9050.000000 5.07948000e+07
9070.000000 5.01818000e+07
9090.000000 5.00524000e+07
9110.000000 4.98056000e+07
9130.000000 4.94250000e+07
9150.000000 4.90157000e+07
9170.000000 4.84885000e+07
9190.000000 4.80546000e+07
9210.000000 4.64072000e+07
9230.000000 4.15189000e+07
9250.000000 4.57821000e+07
9270.000000 4.62511000e+07
9290.000000 4.62530000e+07
9310.000000 4.57024000e+07
9330.000000 4.54029000e+07
9350.000000 4.51356000e+07
9370.000000 4.48015000e+07
9390.000000 4.44528000e+07
9410.000000 4.40300000e+07
9430.000000 4.37290000e+07
9450.000000 4.33754000e+07
9470.000000 4.28185000e+07
9490.000000 4.26550000e+07
9510.000000 4.18592000e+07
9530.000000 4.05401000e+07
9550.000000 3.66128000e+07
9570.000000 4.06400000e+07
9590.000000 4.09123000e+07
9610.000000 4.05435000e+07
9630.000000 4.01291000e+07
9650.000000 4.00940000e+07
9670.000000 3.97768000e+07
9690.000000 3.94278000e+07
9710.000000 3.90151000e+07
9730.000000 3.88520000e+07
9750.000000 3.85430000e+07
9770.000000 3.82599000e+07
9790.000000 3.79571000e+07
9810.000000 3.76349000e+07
9830.000000 3.73747000e+07
9850.000000 3.70829000e+07
9870.000000 3.67750000e+07
9890.000000 3.64608000e+07
9910.000000 3.60445000e+07
9930.000000 3.59675000e+07
9950.000000 3.56898000e+07
9970.000000 3.53910000e+07
9990.000000 3.51434000e+07
10025.000000 3.36363000e+07
10075.000000 3.25376000e+07
10125.000000 3.33004000e+07
10175.000000 3.27927000e+07
10225.000000 3.21744000e+07
10275.000000 3.15962000e+07
10325.000000 3.09110000e+07
10375.000000 3.04563000e+07
10425.000000 2.99052000e+07
10475.000000 2.93657000e+07
10525.000000 2.88289000e+07
10575.000000 2.83214000e+07
10625.000000 2.78189000e+07
10675.000000 2.72729000e+07
10725.000000 2.68443000e+07
10775.000000 2.63706000e+07
10825.000000 2.56244000e+07
10875.000000 2.54339000e+07
10925.000000 2.34189000e+07
10975.000000 2.42651000e+07
11025.000000 2.40309000e+07
11075.000000 2.37441000e+07
11125.000000 2.33448000e+07
11175.000000 2.29497000e+07
11225.000000 2.25507000e+07
11275.000000 2.21618000e+07
11325.000000 2.17806000e+07
11375.000000 2.14443000e+07
11425.000000 2.10778000e+07
11475.000000 2.07411000e+07
11525.000000 2.04004000e+07
11575.000000 2.00533000e+07
11625.000000 1.97323000e+07
11675.000000 1.94050000e+07
11725.000000 1.91010000e+07
11775.000000 1.87869000e+07
11825.000000 1.84891000e+07
11875.000000 1.81948000e+07
11925.000000 1.79048000e+07
11975.000000 1.74845000e+07
12025.000000 1.73402000e+07
12075.000000 1.70682000e+07
12125.000000 1.67988000e+07
12175.000000 1.65363000e+07
12225.000000 1.62788000e+07
12275.000000 1.60267000e+07
12325.000000 1.57777000e+07
12375.000000 1.55348000e+07
12425.000000 1.52978000e+07
12475.000000 1.50529000e+07
12525.000000 1.47990000e+07
12575.000000 1.46005000e+07
12625.000000 1.43830000e+07
12675.000000 1.41719000e+07
12725.000000 1.39594000e+07
12775.000000 1.35627000e+07
12825.000000 1.27036000e+07
12875.000000 1.33035000e+07
12925.000000 1.31471000e+07
12975.000000 1.28754000e+07
13025.000000 1.27606000e+07
13075.000000 1.25783000e+07
