# Kurucz ODFNEW /NOVER, alpha: 0.0 (2003)
# teff = 35000 K (value for the effective temperature for the model. Temperatures are given in K)
# logg = 5 log(cm/s2) (value for Log(G) for the model.)
# lh = 1.25  (l/Hp where l is the  mixing length of the convective element and Hp is the pressure scale height)
# meta = 0.5  (value for the Metallicity for the model.)
# vtur = 2 km/s (Microturbulence velocity)
# alpha = 0  (Alpha)
#
# column 1: WAVELENGTH (ANGSTROM), Wavelength in Angstrom
# column 2: FLUX (ERG/CM2/S/A), Flux in erg/cm2/s/A
147.200000 2.38092000e-04
151.000000 5.87821000e-04
155.200000 1.51198000e-03
158.800000 3.26751000e-03
162.000000 6.29275000e-03
166.000000 1.38423000e-02
170.300000 3.08052000e-02
173.400000 5.38778000e-02
176.800000 9.76768000e-02
180.200000 1.71588000e-01
181.700000 2.21018000e-01
186.100000 4.39568000e-01
191.000000 9.12243000e-01
193.900000 1.37757000e+00
198.400000 2.56812000e+00
201.800000 4.00965000e+00
205.000000 6.01673000e+00
210.500000 1.17618000e+01
216.200000 2.24503000e+01
219.800000 3.37116000e+01
223.000000 4.74576000e+01
226.800000 7.30048000e+01
230.000000 1.14194000e+04
234.000000 2.37338000e+04
240.000000 3.53825000e+04
246.500000 5.51774000e+04
252.400000 8.58830000e+04
256.800000 1.19583000e+05
260.000000 1.97042000e+05
264.000000 3.46335000e+05
268.500000 5.07093000e+05
273.500000 6.60516000e+05
278.500000 7.73885000e+05
284.000000 1.52269000e+06
290.000000 2.09723000e+06
296.000000 2.62127000e+06
301.000000 5.15066000e+06
308.000000 1.10016000e+07
318.000000 2.17870000e+07
328.000000 2.94779000e+07
338.000000 5.19304000e+07
348.000000 7.70326000e+07
357.000000 1.52543000e+08
366.000000 3.23138000e+08
375.000000 3.60508000e+08
385.000000 4.89589000e+08
395.000000 9.55580000e+08
405.000000 1.15684000e+09
414.000000 1.38193000e+09
422.000000 1.58010000e+09
430.000000 1.69157000e+09
441.000000 2.00722000e+09
451.000000 2.10497000e+09
460.000000 2.02091000e+09
470.000000 2.34462000e+09
480.000000 2.72769000e+09
490.000000 2.69014000e+09
500.000000 3.19662000e+09
506.000000 3.75691000e+09
512.000000 2.28012000e+10
520.000000 2.12816000e+10
530.000000 1.91154000e+10
540.000000 1.70730000e+10
550.000000 1.95638000e+10
560.000000 2.58185000e+10
570.000000 2.76118000e+10
580.000000 2.56599000e+10
590.000000 2.66579000e+10
600.000000 1.99572000e+10
610.000000 2.45325000e+10
620.000000 2.99306000e+10
630.000000 2.85001000e+10
640.000000 2.85987000e+10
650.000000 2.77157000e+10
658.000000 2.18565000e+10
665.000000 2.68040000e+10
675.000000 3.02624000e+10
685.000000 2.24548000e+10
695.000000 3.08902000e+10
705.000000 2.36069000e+10
716.000000 3.26564000e+10
726.000000 3.16150000e+10
735.000000 3.13999000e+10
745.000000 2.91297000e+10
755.000000 2.90532000e+10
765.000000 2.89494000e+10
775.000000 3.00186000e+10
785.000000 3.03309000e+10
795.000000 3.07207000e+10
805.000000 2.88960000e+10
815.000000 2.85032000e+10
825.000000 3.01489000e+10
835.000000 2.37582000e+10
845.000000 2.81223000e+10
855.000000 2.74493000e+10
865.000000 2.83378000e+10
875.000000 2.82745000e+10
885.000000 2.85559000e+10
895.000000 2.84862000e+10
905.000000 2.73003000e+10
915.000000 2.55396000e+10
925.000000 5.37647000e+10
935.000000 8.34711000e+10
945.000000 1.12733000e+11
955.000000 1.25338000e+11
965.000000 1.46816000e+11
975.000000 5.91869000e+10
985.000000 1.17291000e+11
995.000000 1.02460000e+11
1005.000000 1.07063000e+11
1015.000000 1.14135000e+11
1025.000000 8.58145000e+10
1035.000000 1.10885000e+11
1045.000000 1.29330000e+11
1055.000000 1.21258000e+11
1065.000000 1.01597000e+11
1075.000000 1.06728000e+11
1085.000000 9.60396000e+10
1095.000000 1.03367000e+11
1105.000000 9.79692000e+10
1115.000000 9.69531000e+10
1125.000000 7.74727000e+10
1135.000000 9.14550000e+10
1145.000000 8.85944000e+10
1155.000000 8.26756000e+10
1165.000000 7.87475000e+10
1175.000000 5.15476000e+10
1185.000000 7.18542000e+10
1195.000000 6.93455000e+10
1205.000000 6.60718000e+10
1215.000000 5.00979000e+10
1225.000000 6.34274000e+10
1235.000000 6.82237000e+10
1245.000000 6.55426000e+10
1255.000000 6.50787000e+10
1265.000000 6.71802000e+10
1275.000000 6.96647000e+10
1285.000000 6.98075000e+10
1295.000000 6.43710000e+10
1305.000000 6.41382000e+10
1315.000000 6.82338000e+10
1325.000000 6.55426000e+10
1335.000000 6.35075000e+10
1345.000000 6.27686000e+10
1355.000000 6.13367000e+10
1365.000000 5.87732000e+10
1375.000000 5.66063000e+10
1385.000000 5.43091000e+10
1395.000000 4.34298000e+10
1405.000000 4.40524000e+10
1415.000000 5.18519000e+10
1425.000000 4.58986000e+10
1435.000000 4.95073000e+10
1442.000000 4.84481000e+10
1447.000000 4.82686000e+10
1455.000000 4.56981000e+10
1465.000000 4.42848000e+10
1475.000000 4.46993000e+10
1485.000000 4.47382000e+10
1495.000000 4.31051000e+10
1505.000000 4.13283000e+10
1512.000000 4.03138000e+10
1517.000000 4.07033000e+10
1525.000000 3.91386000e+10
1535.000000 3.35315000e+10
1545.000000 2.76697000e+10
1555.000000 2.79693000e+10
1565.000000 3.19875000e+10
1575.000000 3.35417000e+10
1585.000000 3.37482000e+10
1595.000000 3.37706000e+10
1605.000000 3.21328000e+10
1615.000000 3.03365000e+10
1625.000000 3.12783000e+10
1635.000000 3.14704000e+10
1645.000000 3.14718000e+10
1655.000000 3.14062000e+10
1665.000000 3.08847000e+10
1672.000000 2.83020000e+10
1677.000000 3.35802000e+10
1685.000000 3.17402000e+10
1695.000000 3.05406000e+10
1705.000000 3.01200000e+10
1715.000000 2.85439000e+10
1725.000000 2.71391000e+10
1735.000000 2.82276000e+10
1745.000000 2.80250000e+10
1755.000000 2.75879000e+10
1765.000000 2.70827000e+10
1775.000000 2.59031000e+10
1785.000000 2.64366000e+10
1795.000000 2.57617000e+10
1805.000000 2.55557000e+10
1815.000000 2.47533000e+10
1825.000000 2.42634000e+10
1835.000000 2.41876000e+10
1845.000000 2.29356000e+10
1855.000000 2.33875000e+10
1865.000000 2.34125000e+10
1875.000000 2.27733000e+10
1885.000000 2.15325000e+10
1895.000000 2.11349000e+10
1905.000000 2.16548000e+10
1915.000000 2.09988000e+10
1925.000000 1.94961000e+10
1935.000000 2.08879000e+10
1945.000000 2.11039000e+10
1955.000000 1.89734000e+10
1967.000000 1.99714000e+10
1976.000000 2.04257000e+10
1984.000000 1.96535000e+10
1995.000000 1.91610000e+10
2005.000000 1.94895000e+10
2015.000000 1.93727000e+10
2025.000000 1.93407000e+10
2035.000000 1.84224000e+10
2045.000000 1.81932000e+10
2055.000000 1.46195000e+10
2065.000000 1.40692000e+10
2074.000000 1.44431000e+10
2078.000000 1.41825000e+10
2085.000000 1.47261000e+10
2095.000000 1.53498000e+10
2105.000000 1.65229000e+10
2115.000000 1.68109000e+10
2125.000000 1.64403000e+10
2135.000000 1.62891000e+10
2145.000000 1.59518000e+10
2155.000000 1.59420000e+10
2165.000000 1.51689000e+10
2175.000000 1.55522000e+10
2185.000000 1.49761000e+10
2195.000000 1.53342000e+10
2205.000000 1.50931000e+10
2215.000000 1.43874000e+10
2225.000000 1.45863000e+10
2235.000000 1.43437000e+10
2245.000000 1.40720000e+10
2255.000000 1.35222000e+10
2265.000000 1.37335000e+10
2275.000000 1.36050000e+10
2285.000000 1.31529000e+10
2295.000000 1.17803000e+10
2305.000000 1.24640000e+10
2315.000000 1.24992000e+10
2325.000000 1.24888000e+10
2335.000000 1.22826000e+10
2345.000000 1.21116000e+10
2355.000000 1.17997000e+10
2365.000000 1.15911000e+10
2375.000000 1.12779000e+10
2385.000000 1.07405000e+10
2395.000000 1.08835000e+10
2405.000000 1.08824000e+10
2415.000000 1.07705000e+10
2425.000000 1.07286000e+10
2435.000000 1.05098000e+10
2445.000000 1.04044000e+10
2455.000000 1.02580000e+10
2465.000000 1.01315000e+10
2475.000000 1.00006000e+10
2485.000000 9.66832000e+09
2495.000000 7.43168000e+09
2505.000000 9.21798000e+09
2513.000000 8.78296000e+09
2518.000000 8.98519000e+09
2525.000000 9.26870000e+09
2535.000000 9.22386000e+09
2545.000000 9.01134000e+09
2555.000000 8.90516000e+09
2565.000000 8.78719000e+09
2575.000000 8.68782000e+09
2585.000000 8.59255000e+09
2595.000000 8.41960000e+09
2605.000000 8.39005000e+09
2615.000000 8.19654000e+09
2625.000000 8.16592000e+09
2635.000000 8.08236000e+09
2645.000000 7.92389000e+09
2655.000000 7.85362000e+09
2665.000000 7.64097000e+09
2675.000000 7.42969000e+09
2685.000000 7.51136000e+09
2695.000000 7.31049000e+09
2705.000000 7.24160000e+09
2715.000000 7.14236000e+09
2725.000000 7.09054000e+09
2735.000000 6.87913000e+09
2745.000000 6.95010000e+09
2755.000000 6.86300000e+09
2765.000000 6.74496000e+09
2775.000000 6.74487000e+09
2785.000000 6.61054000e+09
2795.000000 6.35500000e+09
2805.000000 6.40744000e+09
2815.000000 6.40336000e+09
2825.000000 6.30760000e+09
2835.000000 6.15725000e+09
2845.000000 6.17222000e+09
2855.000000 6.07082000e+09
2865.000000 5.95875000e+09
2875.000000 5.90415000e+09
2885.000000 5.83614000e+09
2895.000000 5.75723000e+09
2910.000000 5.61039000e+09
2930.000000 5.55161000e+09
2950.000000 5.38222000e+09
2970.000000 5.26043000e+09
2990.000000 5.08832000e+09
3010.000000 4.92903000e+09
3030.000000 4.80755000e+09
3050.000000 4.74997000e+09
3070.000000 4.67109000e+09
3090.000000 4.51889000e+09
3110.000000 4.47732000e+09
3130.000000 4.34837000e+09
3150.000000 4.27586000e+09
3170.000000 4.16060000e+09
3190.000000 4.08305000e+09
3210.000000 3.95811000e+09
3230.000000 3.89624000e+09
3250.000000 3.83595000e+09
3270.000000 3.71096000e+09
3290.000000 3.65588000e+09
3310.000000 3.56920000e+09
3330.000000 3.48161000e+09
3350.000000 3.38947000e+09
3370.000000 3.32614000e+09
3390.000000 3.28734000e+09
3410.000000 3.21319000e+09
3430.000000 3.15911000e+09
3450.000000 3.06828000e+09
3470.000000 3.01981000e+09
3490.000000 2.95928000e+09
3510.000000 2.90052000e+09
3530.000000 2.84927000e+09
3550.000000 2.78718000e+09
3570.000000 2.73574000e+09
3590.000000 2.66509000e+09
3610.000000 2.60991000e+09
3630.000000 2.56219000e+09
3640.000000 2.53235000e+09
3650.000000 2.40476000e+09
3670.000000 2.36595000e+09
3690.000000 2.32062000e+09
3710.000000 2.23616000e+09
3730.000000 2.21255000e+09
3750.000000 2.18309000e+09
3770.000000 2.12182000e+09
3790.000000 2.17069000e+09
3810.000000 2.21528000e+09
3830.000000 2.00583000e+09
3850.000000 2.20789000e+09
3870.000000 2.15178000e+09
3890.000000 1.86486000e+09
3910.000000 2.16411000e+09
3930.000000 2.10833000e+09
3950.000000 2.03814000e+09
3970.000000 1.71459000e+09
3990.000000 1.99469000e+09
4010.000000 1.97203000e+09
4030.000000 1.88366000e+09
4050.000000 1.91042000e+09
4070.000000 1.82371000e+09
4090.000000 1.69858000e+09
4110.000000 1.55582000e+09
4130.000000 1.74098000e+09
4150.000000 1.72135000e+09
4170.000000 1.71684000e+09
4190.000000 1.68433000e+09
4210.000000 1.64998000e+09
4230.000000 1.63595000e+09
4250.000000 1.58544000e+09
4270.000000 1.55166000e+09
4290.000000 1.52304000e+09
4310.000000 1.47401000e+09
4330.000000 1.36627000e+09
4350.000000 1.27751000e+09
4370.000000 1.40645000e+09
4390.000000 1.38120000e+09
4410.000000 1.36930000e+09
4430.000000 1.36332000e+09
4450.000000 1.33644000e+09
4470.000000 1.28439000e+09
4490.000000 1.29708000e+09
4510.000000 1.26498000e+09
4530.000000 1.25272000e+09
4550.000000 1.22217000e+09
4570.000000 1.21948000e+09
4590.000000 1.19443000e+09
4610.000000 1.17005000e+09
4630.000000 1.13970000e+09
4650.000000 1.07997000e+09
4670.000000 1.10943000e+09
4690.000000 1.08579000e+09
4710.000000 1.07120000e+09
4730.000000 1.07926000e+09
4750.000000 1.06114000e+09
4770.000000 1.05164000e+09
4790.000000 1.03388000e+09
4810.000000 1.01306000e+09
4830.000000 9.90475000e+08
4850.000000 9.26797000e+08
4870.000000 8.41478000e+08
4890.000000 9.43159000e+08
4910.000000 9.33256000e+08
4930.000000 9.06572000e+08
4950.000000 9.04950000e+08
4970.000000 8.99695000e+08
4990.000000 8.85598000e+08
5010.000000 8.51870000e+08
5030.000000 8.53076000e+08
5050.000000 8.40069000e+08
5070.000000 8.33923000e+08
5090.000000 8.20374000e+08
5110.000000 8.07198000e+08
5130.000000 7.93158000e+08
5150.000000 7.82023000e+08
5170.000000 7.71221000e+08
5190.000000 7.61414000e+08
5210.000000 7.51027000e+08
5230.000000 7.40253000e+08
5250.000000 7.26218000e+08
5270.000000 7.15386000e+08
5290.000000 7.08761000e+08
5310.000000 6.98262000e+08
5330.000000 6.88576000e+08
5350.000000 6.78791000e+08
5370.000000 6.69315000e+08
5390.000000 6.59248000e+08
5410.000000 6.41885000e+08
5430.000000 6.41675000e+08
5450.000000 6.32573000e+08
5470.000000 6.23536000e+08
5490.000000 6.14927000e+08
5510.000000 6.06463000e+08
5530.000000 5.97834000e+08
5550.000000 5.90561000e+08
5570.000000 5.82066000e+08
5590.000000 5.72748000e+08
5610.000000 5.66828000e+08
5630.000000 5.59195000e+08
5650.000000 5.51089000e+08
5670.000000 5.42239000e+08
5690.000000 5.27182000e+08
5710.000000 5.15511000e+08
5730.000000 5.09509000e+08
5750.000000 5.01755000e+08
5770.000000 4.96936000e+08
5790.000000 4.90115000e+08
5810.000000 4.82406000e+08
5830.000000 4.75510000e+08
5850.000000 4.71725000e+08
5870.000000 4.55265000e+08
5890.000000 4.58411000e+08
5910.000000 4.54764000e+08
5930.000000 4.49655000e+08
5950.000000 4.44850000e+08
5970.000000 4.41652000e+08
5990.000000 4.35852000e+08
6010.000000 4.32195000e+08
6030.000000 4.26877000e+08
6050.000000 4.22793000e+08
6070.000000 4.18294000e+08
6090.000000 4.13306000e+08
6110.000000 4.07800000e+08
6130.000000 4.03158000e+08
6150.000000 3.96625000e+08
6170.000000 3.92277000e+08
6190.000000 3.88330000e+08
6210.000000 3.83879000e+08
6230.000000 3.79138000e+08
6250.000000 3.73841000e+08
6270.000000 3.69697000e+08
6290.000000 3.65435000e+08
6310.000000 3.60407000e+08
6330.000000 3.56732000e+08
6350.000000 3.51929000e+08
6370.000000 3.48320000e+08
6390.000000 3.44012000e+08
6410.000000 3.39705000e+08
6430.000000 3.35982000e+08
6450.000000 3.31583000e+08
6470.000000 3.26630000e+08
6490.000000 3.23090000e+08
6510.000000 3.18797000e+08
6530.000000 3.13817000e+08
6550.000000 3.01726000e+08
6570.000000 2.71029000e+08
6590.000000 3.01431000e+08
6610.000000 3.00878000e+08
6630.000000 2.98354000e+08
6650.000000 2.94849000e+08
6670.000000 2.87842000e+08
6690.000000 2.84474000e+08
6710.000000 2.84069000e+08
6730.000000 2.80396000e+08
6750.000000 2.77852000e+08
6770.000000 2.75308000e+08
6790.000000 2.71164000e+08
6810.000000 2.69135000e+08
6830.000000 2.66059000e+08
6850.000000 2.63135000e+08
6870.000000 2.59952000e+08
6890.000000 2.56073000e+08
6910.000000 2.53551000e+08
6930.000000 2.51807000e+08
6950.000000 2.48980000e+08
6970.000000 2.46265000e+08
6990.000000 2.43447000e+08
7010.000000 2.40511000e+08
7030.000000 2.37384000e+08
7050.000000 2.35145000e+08
7070.000000 2.29686000e+08
7090.000000 2.30498000e+08
7110.000000 2.27452000e+08
7130.000000 2.25088000e+08
7150.000000 2.23160000e+08
7170.000000 2.20165000e+08
7190.000000 2.18031000e+08
7210.000000 2.16077000e+08
7230.000000 2.11871000e+08
7250.000000 2.11155000e+08
7270.000000 2.09253000e+08
7290.000000 2.05675000e+08
7310.000000 2.04728000e+08
7330.000000 2.02630000e+08
7350.000000 2.00539000e+08
7370.000000 1.98439000e+08
7390.000000 1.96415000e+08
7410.000000 1.94334000e+08
7430.000000 1.92354000e+08
7450.000000 1.90230000e+08
7470.000000 1.87808000e+08
7490.000000 1.85490000e+08
7510.000000 1.84423000e+08
7530.000000 1.82448000e+08
7550.000000 1.80756000e+08
7570.000000 1.78842000e+08
7590.000000 1.76037000e+08
7610.000000 1.74795000e+08
7630.000000 1.73316000e+08
7650.000000 1.71620000e+08
7670.000000 1.69996000e+08
7690.000000 1.67762000e+08
7710.000000 1.66303000e+08
7730.000000 1.64215000e+08
7750.000000 1.63255000e+08
7770.000000 1.61692000e+08
7790.000000 1.60118000e+08
7810.000000 1.58508000e+08
7830.000000 1.56962000e+08
7850.000000 1.55252000e+08
7870.000000 1.53552000e+08
7890.000000 1.52012000e+08
7910.000000 1.50799000e+08
7930.000000 1.49314000e+08
7950.000000 1.48021000e+08
7970.000000 1.46467000e+08
7990.000000 1.45121000e+08
8010.000000 1.43698000e+08
8030.000000 1.42206000e+08
8050.000000 1.41012000e+08
8070.000000 1.39637000e+08
8090.000000 1.38246000e+08
8110.000000 1.36236000e+08
8130.000000 1.35697000e+08
8150.000000 1.34323000e+08
8170.000000 1.33085000e+08
8190.000000 1.31155000e+08
8210.000000 1.28891000e+08
8230.000000 1.27130000e+08
8250.000000 1.26570000e+08
8270.000000 1.24796000e+08
8290.000000 1.24310000e+08
8310.000000 1.23374000e+08
8330.000000 1.21876000e+08
8350.000000 1.20379000e+08
8370.000000 1.19719000e+08
8390.000000 1.18951000e+08
8410.000000 1.17752000e+08
8430.000000 1.16780000e+08
8450.000000 1.15294000e+08
8470.000000 1.14698000e+08
8490.000000 1.13541000e+08
8510.000000 1.12062000e+08
8530.000000 1.11480000e+08
8550.000000 1.10485000e+08
8570.000000 1.09713000e+08
8590.000000 1.07768000e+08
8610.000000 1.07431000e+08
8630.000000 1.07201000e+08
8650.000000 1.05407000e+08
8670.000000 1.03443000e+08
8690.000000 1.04389000e+08
8710.000000 1.03935000e+08
8730.000000 1.01942000e+08
8750.000000 9.82437000e+07
8770.000000 9.95643000e+07
8790.000000 1.00682000e+08
8810.000000 1.00293000e+08
8830.000000 9.88053000e+07
8850.000000 9.47710000e+07
8870.000000 9.13274000e+07
8890.000000 9.56552000e+07
8910.000000 9.61658000e+07
8930.000000 9.56316000e+07
8950.000000 9.48426000e+07
8970.000000 9.38348000e+07
8990.000000 9.13388000e+07
9010.000000 8.46967000e+07
9030.000000 8.65489000e+07
9050.000000 8.99385000e+07
9070.000000 8.93820000e+07
9090.000000 8.93129000e+07
9110.000000 8.89211000e+07
9130.000000 8.81840000e+07
9150.000000 8.74389000e+07
9170.000000 8.63546000e+07
9190.000000 8.51851000e+07
9210.000000 8.16711000e+07
9230.000000 7.47154000e+07
9250.000000 8.00769000e+07
9270.000000 8.21999000e+07
9290.000000 8.20864000e+07
9310.000000 8.13951000e+07
9330.000000 8.08864000e+07
9350.000000 7.96832000e+07
9370.000000 7.96652000e+07
9390.000000 7.91083000e+07
9410.000000 7.83129000e+07
9430.000000 7.77269000e+07
9450.000000 7.70565000e+07
9470.000000 7.60677000e+07
9490.000000 7.54922000e+07
9510.000000 7.38879000e+07
9530.000000 7.06952000e+07
9550.000000 6.46908000e+07
9570.000000 7.06649000e+07
9590.000000 7.21359000e+07
9610.000000 7.18034000e+07
9630.000000 7.11439000e+07
9650.000000 7.11244000e+07
9670.000000 7.06129000e+07
9690.000000 6.99927000e+07
9710.000000 6.78467000e+07
9730.000000 6.86425000e+07
9750.000000 6.83453000e+07
9770.000000 6.77974000e+07
9790.000000 6.72573000e+07
9810.000000 6.66819000e+07
9830.000000 6.61886000e+07
9850.000000 6.56328000e+07
9870.000000 6.51002000e+07
9890.000000 6.44598000e+07
9910.000000 6.37357000e+07
9930.000000 6.36129000e+07
9950.000000 6.31025000e+07
9970.000000 6.24516000e+07
9990.000000 6.18772000e+07
10025.000000 5.85258000e+07
10075.000000 5.66436000e+07
10125.000000 5.81067000e+07
10175.000000 5.78391000e+07
10225.000000 5.66982000e+07
10275.000000 5.56375000e+07
10325.000000 5.44003000e+07
10375.000000 5.35937000e+07
10425.000000 5.25747000e+07
10475.000000 5.16140000e+07
10525.000000 5.06384000e+07
10575.000000 4.97228000e+07
10625.000000 4.88054000e+07
10675.000000 4.78633000e+07
10725.000000 4.70479000e+07
10775.000000 4.61905000e+07
10825.000000 4.49449000e+07
10875.000000 4.42937000e+07
10925.000000 4.03288000e+07
10975.000000 4.17669000e+07
11025.000000 4.19499000e+07
11075.000000 4.14307000e+07
11125.000000 4.07303000e+07
11175.000000 4.00348000e+07
11225.000000 3.93232000e+07
11275.000000 3.86492000e+07
11325.000000 3.79386000e+07
11375.000000 3.73117000e+07
11425.000000 3.66684000e+07
11475.000000 3.60606000e+07
11525.000000 3.54647000e+07
11575.000000 3.48328000e+07
11625.000000 3.41352000e+07
11675.000000 3.36140000e+07
11725.000000 3.31444000e+07
11775.000000 3.25891000e+07
11825.000000 3.20285000e+07
11875.000000 3.15135000e+07
11925.000000 3.09981000e+07
11975.000000 3.01251000e+07
12025.000000 3.00054000e+07
12075.000000 2.95119000e+07
12125.000000 2.90179000e+07
12175.000000 2.85742000e+07
12225.000000 2.81166000e+07
12275.000000 2.76705000e+07
12325.000000 2.72257000e+07
12375.000000 2.67946000e+07
12425.000000 2.63792000e+07
12475.000000 2.59552000e+07
12525.000000 2.54938000e+07
12575.000000 2.51390000e+07
12625.000000 2.47583000e+07
12675.000000 2.43851000e+07
12725.000000 2.39729000e+07
12775.000000 2.31715000e+07
12825.000000 2.14044000e+07
12875.000000 2.27121000e+07
12925.000000 2.25534000e+07
12975.000000 2.20979000e+07
13025.000000 2.18824000e+07
13075.000000 2.15761000e+07
