# Kurucz ODFNEW /NOVER, alpha: 0.0 (2003)
# teff = 21000 K (value for the effective temperature for the model. Temperatures are given in K)
# logg = 5 log(cm/s2) (value for Log(G) for the model.)
# lh = 1.25  (l/Hp where l is the  mixing length of the convective element and Hp is the pressure scale height)
# meta = -2  (value for the Metallicity for the model.)
# vtur = 2 km/s (Microturbulence velocity)
# alpha = 0  (Alpha)
#
# column 1: WAVELENGTH (ANGSTROM), Wavelength in Angstrom
# column 2: FLUX (ERG/CM2/S/A), Flux in erg/cm2/s/A
147.200000 2.85731000e-19
151.000000 1.75898000e-18
155.200000 1.18923000e-17
158.800000 5.66391000e-17
162.000000 2.14677000e-16
166.000000 1.05962000e-15
170.300000 5.44127000e-15
173.400000 1.68571000e-14
176.800000 5.57557000e-14
180.200000 1.76473000e-13
181.700000 2.89472000e-13
186.100000 1.18219000e-12
191.000000 5.25403000e-12
193.900000 1.22546000e-11
198.400000 4.34665000e-11
201.800000 1.09106000e-10
205.000000 2.52411000e-10
210.500000 1.00359000e-09
216.200000 3.89686000e-09
219.800000 8.85132000e-09
223.000000 1.79346000e-08
226.800000 4.04185000e-08
230.000000 9.86262000e-08
234.000000 2.29088000e-07
240.000000 7.17748000e-07
246.500000 2.31027000e-06
252.400000 6.33522000e-06
256.800000 1.29661000e-05
260.000000 2.16592000e-05
264.000000 4.01691000e-05
268.500000 7.85991000e-05
273.500000 1.61284000e-04
278.500000 3.22469000e-04
284.000000 6.70729000e-04
290.000000 1.44246000e-03
296.000000 3.00107000e-03
301.000000 5.40306000e-03
308.000000 1.18633000e-02
318.000000 3.44553000e-02
328.000000 9.31914000e-02
338.000000 2.36721000e-01
348.000000 5.68186000e-01
357.000000 1.19452000e+00
366.000000 2.41574000e+00
375.000000 4.70989000e+00
385.000000 9.50662000e+00
395.000000 1.84628000e+01
405.000000 3.46079000e+01
414.000000 5.92297000e+01
422.000000 9.35033000e+01
430.000000 1.44887000e+02
441.000000 2.57208000e+02
451.000000 4.21883000e+02
460.000000 6.45336000e+02
470.000000 1.01330000e+03
480.000000 1.55806000e+03
490.000000 2.34966000e+03
500.000000 3.47872000e+03
506.000000 2.29640000e+04
512.000000 6.75556000e+04
520.000000 8.65293000e+04
530.000000 1.24778000e+05
540.000000 1.45072000e+05
550.000000 2.06149000e+05
560.000000 2.58593000e+05
570.000000 3.24655000e+05
580.000000 3.51106000e+05
590.000000 4.71740000e+05
600.000000 5.97242000e+05
610.000000 7.23379000e+05
620.000000 8.65958000e+05
630.000000 1.03328000e+06
640.000000 1.21462000e+06
650.000000 1.43906000e+06
658.000000 1.63460000e+06
665.000000 1.81820000e+06
675.000000 2.10084000e+06
685.000000 2.41754000e+06
695.000000 2.80707000e+06
705.000000 3.21023000e+06
716.000000 3.69986000e+06
726.000000 4.19482000e+06
735.000000 4.68896000e+06
745.000000 5.28470000e+06
755.000000 5.93125000e+06
765.000000 6.62531000e+06
775.000000 7.38750000e+06
785.000000 8.20432000e+06
795.000000 9.07632000e+06
805.000000 1.00167000e+07
815.000000 1.10150000e+07
825.000000 1.20941000e+07
835.000000 1.31067000e+07
845.000000 1.44308000e+07
855.000000 1.56721000e+07
865.000000 1.70711000e+07
875.000000 1.84978000e+07
885.000000 2.00206000e+07
895.000000 2.15985000e+07
905.000000 2.30341000e+07
915.000000 3.52595000e+07
925.000000 1.22354000e+08
935.000000 3.04167000e+08
945.000000 1.61204000e+09
955.000000 4.97294000e+09
965.000000 7.39846000e+09
975.000000 1.96325000e+09
985.000000 1.41085000e+10
995.000000 1.65395000e+10
1005.000000 1.67148000e+10
1015.000000 1.06492000e+10
1025.000000 9.59802000e+08
1035.000000 8.42170000e+09
1045.000000 1.60638000e+10
1055.000000 1.68130000e+10
1065.000000 1.58142000e+10
1075.000000 1.64318000e+10
1085.000000 1.52692000e+10
1095.000000 1.59184000e+10
1105.000000 1.51028000e+10
1115.000000 1.49365000e+10
1125.000000 1.41318000e+10
1135.000000 1.42810000e+10
1145.000000 1.35272000e+10
1155.000000 1.36648000e+10
1165.000000 1.33760000e+10
1175.000000 1.18545000e+10
1185.000000 1.24132000e+10
1195.000000 1.05854000e+10
1205.000000 6.55062000e+09
1215.000000 8.43072000e+08
1225.000000 5.57252000e+09
1235.000000 9.90220000e+09
1245.000000 1.06683000e+10
1255.000000 1.06317000e+10
1265.000000 1.04733000e+10
1275.000000 1.05200000e+10
1285.000000 1.03405000e+10
1295.000000 9.63016000e+09
1305.000000 9.43823000e+09
1315.000000 9.72310000e+09
1325.000000 9.38827000e+09
1335.000000 8.98667000e+09
1345.000000 9.11385000e+09
1355.000000 8.97388000e+09
1365.000000 8.74380000e+09
1375.000000 8.58340000e+09
1385.000000 8.43084000e+09
1395.000000 8.11952000e+09
1405.000000 8.04175000e+09
1415.000000 7.94505000e+09
1425.000000 7.82688000e+09
1435.000000 7.68342000e+09
1442.000000 7.60284000e+09
1447.000000 7.52520000e+09
1455.000000 7.40477000e+09
1465.000000 7.24944000e+09
1475.000000 7.12186000e+09
1485.000000 6.97485000e+09
1495.000000 6.85556000e+09
1505.000000 6.69057000e+09
1512.000000 6.59680000e+09
1517.000000 6.56157000e+09
1525.000000 6.44901000e+09
1535.000000 6.25349000e+09
1545.000000 6.21936000e+09
1555.000000 6.06111000e+09
1565.000000 6.00297000e+09
1575.000000 5.93154000e+09
1585.000000 5.82994000e+09
1595.000000 5.74477000e+09
1605.000000 5.59063000e+09
1615.000000 5.49576000e+09
1625.000000 5.44145000e+09
1635.000000 5.36382000e+09
1645.000000 5.25314000e+09
1655.000000 5.16757000e+09
1665.000000 5.12389000e+09
1672.000000 4.97880000e+09
1677.000000 5.02283000e+09
1685.000000 4.95946000e+09
1695.000000 4.86676000e+09
1705.000000 4.77199000e+09
1715.000000 4.68141000e+09
1725.000000 4.60235000e+09
1735.000000 4.55671000e+09
1745.000000 4.47506000e+09
1755.000000 4.42666000e+09
1765.000000 4.27143000e+09
1775.000000 4.27270000e+09
1785.000000 4.21243000e+09
1795.000000 4.16352000e+09
1805.000000 4.10294000e+09
1815.000000 4.03018000e+09
1825.000000 3.97788000e+09
1835.000000 3.91484000e+09
1845.000000 3.82293000e+09
1855.000000 3.71844000e+09
1865.000000 3.68213000e+09
1875.000000 3.68004000e+09
1885.000000 3.58183000e+09
1895.000000 3.49807000e+09
1905.000000 3.50826000e+09
1915.000000 3.41470000e+09
1925.000000 3.36631000e+09
1935.000000 3.34116000e+09
1945.000000 3.32133000e+09
1955.000000 3.22978000e+09
1967.000000 3.22126000e+09
1976.000000 3.19690000e+09
1984.000000 3.13720000e+09
1995.000000 3.06152000e+09
2005.000000 3.06002000e+09
2015.000000 3.02805000e+09
2025.000000 2.99509000e+09
2035.000000 2.94399000e+09
2045.000000 2.90410000e+09
2055.000000 2.83040000e+09
2065.000000 2.80871000e+09
2074.000000 2.80541000e+09
2078.000000 2.75806000e+09
2085.000000 2.75474000e+09
2095.000000 2.70344000e+09
2105.000000 2.68572000e+09
2115.000000 2.65626000e+09
2125.000000 2.62790000e+09
2135.000000 2.59160000e+09
2145.000000 2.55521000e+09
2155.000000 2.52596000e+09
2165.000000 2.49174000e+09
2175.000000 2.45965000e+09
2185.000000 2.43032000e+09
2195.000000 2.40220000e+09
2205.000000 2.37008000e+09
2215.000000 2.33944000e+09
2225.000000 2.30841000e+09
2235.000000 2.28343000e+09
2245.000000 2.25566000e+09
2255.000000 2.22592000e+09
2265.000000 2.20102000e+09
2275.000000 2.17319000e+09
2285.000000 2.14887000e+09
2295.000000 2.11424000e+09
2305.000000 2.09558000e+09
2315.000000 2.06894000e+09
2325.000000 2.04574000e+09
2335.000000 2.01589000e+09
2345.000000 1.98387000e+09
2355.000000 1.97161000e+09
2365.000000 1.94224000e+09
2375.000000 1.92385000e+09
2385.000000 1.89271000e+09
2395.000000 1.87471000e+09
2405.000000 1.85387000e+09
2415.000000 1.83216000e+09
2425.000000 1.81753000e+09
2435.000000 1.79411000e+09
2445.000000 1.77386000e+09
2455.000000 1.75631000e+09
2465.000000 1.73378000e+09
2475.000000 1.71556000e+09
2485.000000 1.69641000e+09
2495.000000 1.66777000e+09
2505.000000 1.65862000e+09
2513.000000 1.63818000e+09
2518.000000 1.63512000e+09
2525.000000 1.61981000e+09
2535.000000 1.59861000e+09
2545.000000 1.58328000e+09
2555.000000 1.56993000e+09
2565.000000 1.55044000e+09
2575.000000 1.53592000e+09
2585.000000 1.51876000e+09
2595.000000 1.50154000e+09
2605.000000 1.49170000e+09
2615.000000 1.47750000e+09
2625.000000 1.46315000e+09
2635.000000 1.44615000e+09
2645.000000 1.43443000e+09
2655.000000 1.41734000e+09
2665.000000 1.39813000e+09
2675.000000 1.38185000e+09
2685.000000 1.37560000e+09
2695.000000 1.35032000e+09
2705.000000 1.34663000e+09
2715.000000 1.33198000e+09
2725.000000 1.30639000e+09
2735.000000 1.30471000e+09
2745.000000 1.28418000e+09
2755.000000 1.27209000e+09
2765.000000 1.25261000e+09
2775.000000 1.25206000e+09
2785.000000 1.23871000e+09
2795.000000 1.21019000e+09
2805.000000 1.20665000e+09
2815.000000 1.20194000e+09
2825.000000 1.17627000e+09
2835.000000 1.16742000e+09
2845.000000 1.16528000e+09
2855.000000 1.15399000e+09
2865.000000 1.14273000e+09
2875.000000 1.13111000e+09
2885.000000 1.12002000e+09
2895.000000 1.10901000e+09
2910.000000 1.09263000e+09
2930.000000 1.07078000e+09
2950.000000 1.04199000e+09
2970.000000 1.03018000e+09
2990.000000 1.01025000e+09
3010.000000 9.91170000e+08
3030.000000 9.72425000e+08
3050.000000 9.54084000e+08
3070.000000 9.36178000e+08
3090.000000 9.18653000e+08
3110.000000 9.01656000e+08
3130.000000 8.85787000e+08
3150.000000 8.69525000e+08
3170.000000 8.53639000e+08
3190.000000 8.31010000e+08
3210.000000 8.22735000e+08
3230.000000 8.07811000e+08
3250.000000 7.93263000e+08
3270.000000 7.79819000e+08
3290.000000 7.65251000e+08
3310.000000 7.52592000e+08
3330.000000 7.39435000e+08
3350.000000 7.25596000e+08
3370.000000 7.13991000e+08
3390.000000 7.01723000e+08
3410.000000 6.89693000e+08
3430.000000 6.76326000e+08
3450.000000 6.63221000e+08
3470.000000 6.53376000e+08
3490.000000 6.42476000e+08
3510.000000 6.32148000e+08
3530.000000 6.22435000e+08
3550.000000 6.11974000e+08
3570.000000 6.04575000e+08
3590.000000 5.91339000e+08
3610.000000 5.83504000e+08
3630.000000 5.72260000e+08
3640.000000 5.70940000e+08
3650.000000 5.64366000e+08
3670.000000 5.57644000e+08
3690.000000 5.48711000e+08
3710.000000 5.31205000e+08
3730.000000 5.06949000e+08
3750.000000 5.13370000e+08
3770.000000 5.08017000e+08
3790.000000 5.49354000e+08
3810.000000 5.87487000e+08
3830.000000 4.98080000e+08
3850.000000 6.22185000e+08
3870.000000 6.54055000e+08
3890.000000 4.60900000e+08
3910.000000 6.47961000e+08
3930.000000 6.61092000e+08
3950.000000 6.31186000e+08
3970.000000 4.32210000e+08
3990.000000 5.99758000e+08
4010.000000 6.20616000e+08
4030.000000 5.73251000e+08
4050.000000 6.12873000e+08
4070.000000 5.94856000e+08
4090.000000 5.03496000e+08
4110.000000 4.22603000e+08
4130.000000 5.52630000e+08
4150.000000 5.57815000e+08
4170.000000 5.56702000e+08
4190.000000 5.50113000e+08
4210.000000 5.42369000e+08
4230.000000 5.33484000e+08
4250.000000 5.23844000e+08
4270.000000 5.13990000e+08
4290.000000 5.04173000e+08
4310.000000 4.86931000e+08
4330.000000 4.04079000e+08
4350.000000 3.62166000e+08
4370.000000 4.60158000e+08
4390.000000 4.45634000e+08
4410.000000 4.59616000e+08
4430.000000 4.51099000e+08
4450.000000 4.46102000e+08
4470.000000 4.09538000e+08
4490.000000 4.31723000e+08
4510.000000 4.27236000e+08
4530.000000 4.20681000e+08
4550.000000 4.14280000e+08
4570.000000 4.08010000e+08
4590.000000 4.01869000e+08
4610.000000 3.95837000e+08
4630.000000 3.89876000e+08
4650.000000 3.84021000e+08
4670.000000 3.78355000e+08
4690.000000 3.72771000e+08
4710.000000 3.61308000e+08
4730.000000 3.61711000e+08
4750.000000 3.56317000e+08
4770.000000 3.50802000e+08
4790.000000 3.44907000e+08
4810.000000 3.38267000e+08
4830.000000 3.27203000e+08
4850.000000 2.80291000e+08
4870.000000 2.44731000e+08
4890.000000 3.09282000e+08
4910.000000 3.13065000e+08
4930.000000 3.00672000e+08
4950.000000 3.07764000e+08
4970.000000 3.04270000e+08
4990.000000 3.00006000e+08
5010.000000 2.91101000e+08
5030.000000 2.91590000e+08
5050.000000 2.85489000e+08
5070.000000 2.83710000e+08
5090.000000 2.79812000e+08
5110.000000 2.75982000e+08
5130.000000 2.72216000e+08
5150.000000 2.68515000e+08
5170.000000 2.64877000e+08
5190.000000 2.61301000e+08
5210.000000 2.57744000e+08
5230.000000 2.54317000e+08
5250.000000 2.50921000e+08
5270.000000 2.47568000e+08
5290.000000 2.44286000e+08
5310.000000 2.41060000e+08
5330.000000 2.37875000e+08
5350.000000 2.34731000e+08
5370.000000 2.31680000e+08
5390.000000 2.28654000e+08
5410.000000 2.25679000e+08
5430.000000 2.22742000e+08
5450.000000 2.19867000e+08
5470.000000 2.17041000e+08
5490.000000 2.14263000e+08
5510.000000 2.11519000e+08
5530.000000 2.08821000e+08
5550.000000 2.06169000e+08
5570.000000 2.03562000e+08
5590.000000 2.00999000e+08
5610.000000 1.98455000e+08
5630.000000 1.95978000e+08
5650.000000 1.93507000e+08
5670.000000 1.91102000e+08
5690.000000 1.88736000e+08
5710.000000 1.86411000e+08
5730.000000 1.84114000e+08
5750.000000 1.81844000e+08
5770.000000 1.79624000e+08
5790.000000 1.77419000e+08
5810.000000 1.75262000e+08
5830.000000 1.73130000e+08
5850.000000 1.71035000e+08
5870.000000 1.62601000e+08
5890.000000 1.66331000e+08
5910.000000 1.64937000e+08
5930.000000 1.62970000e+08
5950.000000 1.61024000e+08
5970.000000 1.59112000e+08
5990.000000 1.57222000e+08
6010.000000 1.55374000e+08
6030.000000 1.53537000e+08
6050.000000 1.51742000e+08
6070.000000 1.49966000e+08
6090.000000 1.48211000e+08
6110.000000 1.46495000e+08
6130.000000 1.44799000e+08
6150.000000 1.43122000e+08
6170.000000 1.41473000e+08
6190.000000 1.39843000e+08
6210.000000 1.38250000e+08
6230.000000 1.36665000e+08
6250.000000 1.35107000e+08
6270.000000 1.33575000e+08
6290.000000 1.32061000e+08
6310.000000 1.30572000e+08
6330.000000 1.29099000e+08
6350.000000 1.27624000e+08
6370.000000 1.26211000e+08
6390.000000 1.24813000e+08
6410.000000 1.23431000e+08
6430.000000 1.22063000e+08
6450.000000 1.20709000e+08
6470.000000 1.19307000e+08
6490.000000 1.17705000e+08
6510.000000 1.16032000e+08
6530.000000 1.13414000e+08
6550.000000 1.03880000e+08
6570.000000 9.03926000e+07
6590.000000 1.07888000e+08
6610.000000 1.09513000e+08
6630.000000 1.08922000e+08
6650.000000 1.07978000e+08
6670.000000 1.05604000e+08
6690.000000 1.04603000e+08
6710.000000 1.04809000e+08
6730.000000 1.03696000e+08
6750.000000 1.02594000e+08
6770.000000 1.01512000e+08
6790.000000 1.00433000e+08
6810.000000 9.93811000e+07
6830.000000 9.83396000e+07
6850.000000 9.73086000e+07
6870.000000 9.62958000e+07
6890.000000 9.52932000e+07
6910.000000 9.43005000e+07
6930.000000 9.33255000e+07
6950.000000 9.23602000e+07
6970.000000 9.14122000e+07
6990.000000 9.04735000e+07
7010.000000 8.95440000e+07
7030.000000 8.86312000e+07
7050.000000 8.77273000e+07
7070.000000 8.54680000e+07
7090.000000 8.59533000e+07
7110.000000 8.50829000e+07
7130.000000 8.42283000e+07
7150.000000 8.33819000e+07
7170.000000 8.25437000e+07
7190.000000 8.17207000e+07
7210.000000 8.09056000e+07
7230.000000 8.00695000e+07
7250.000000 7.92986000e+07
7270.000000 7.85137000e+07
7290.000000 7.71690000e+07
7310.000000 7.69729000e+07
7330.000000 7.62169000e+07
7350.000000 7.54749000e+07
7370.000000 7.47329000e+07
7390.000000 7.40047000e+07
7410.000000 7.32833000e+07
7430.000000 7.25754000e+07
7450.000000 7.18808000e+07
7470.000000 7.11859000e+07
7490.000000 7.04973000e+07
7510.000000 6.98084000e+07
7530.000000 6.91523000e+07
7550.000000 6.84890000e+07
7570.000000 6.78384000e+07
7590.000000 6.71936000e+07
7610.000000 6.65546000e+07
7630.000000 6.59215000e+07
7650.000000 6.53004000e+07
7670.000000 6.46849000e+07
7690.000000 6.40750000e+07
7710.000000 6.34768000e+07
7730.000000 6.28833000e+07
7750.000000 6.22958000e+07
7770.000000 6.17022000e+07
7790.000000 6.11430000e+07
7810.000000 6.05573000e+07
7830.000000 6.00166000e+07
7850.000000 5.94991000e+07
7870.000000 5.89507000e+07
7890.000000 5.84059000e+07
7910.000000 5.78785000e+07
7930.000000 5.73497000e+07
7950.000000 5.68261000e+07
7970.000000 5.62993000e+07
7990.000000 5.57947000e+07
8010.000000 5.52933000e+07
8030.000000 5.47939000e+07
8050.000000 5.42998000e+07
8070.000000 5.38112000e+07
8090.000000 5.32911000e+07
8110.000000 5.28298000e+07
8130.000000 5.23753000e+07
8150.000000 5.18650000e+07
8170.000000 5.14426000e+07
8190.000000 5.09417000e+07
8210.000000 5.04155000e+07
8230.000000 5.00529000e+07
8250.000000 4.96323000e+07
8270.000000 4.90741000e+07
8290.000000 4.87751000e+07
8310.000000 4.83759000e+07
8330.000000 4.79397000e+07
8350.000000 4.73937000e+07
8370.000000 4.70868000e+07
8390.000000 4.67315000e+07
8410.000000 4.63225000e+07
8430.000000 4.59015000e+07
8450.000000 4.53189000e+07
8470.000000 4.50909000e+07
8490.000000 4.46383000e+07
8510.000000 4.42383000e+07
8530.000000 4.38509000e+07
8550.000000 4.32044000e+07
8570.000000 4.33184000e+07
8590.000000 4.20453000e+07
8610.000000 4.18802000e+07
8630.000000 4.24845000e+07
8650.000000 4.12964000e+07
8670.000000 3.94722000e+07
8690.000000 4.13082000e+07
8710.000000 4.16481000e+07
8730.000000 4.02231000e+07
8750.000000 3.67653000e+07
8770.000000 3.87917000e+07
8790.000000 4.05575000e+07
8810.000000 4.06550000e+07
8830.000000 3.97811000e+07
8850.000000 3.66174000e+07
8870.000000 3.40679000e+07
8890.000000 3.78874000e+07
8910.000000 3.90799000e+07
8930.000000 3.91602000e+07
8950.000000 3.89341000e+07
8970.000000 3.82437000e+07
8990.000000 3.64111000e+07
9010.000000 3.19797000e+07
9030.000000 3.32626000e+07
9050.000000 3.62022000e+07
9070.000000 3.65863000e+07
9090.000000 3.68331000e+07
9110.000000 3.67428000e+07
9130.000000 3.64767000e+07
9150.000000 3.61167000e+07
9170.000000 3.55530000e+07
9190.000000 3.47311000e+07
9210.000000 3.23820000e+07
9230.000000 2.83163000e+07
9250.000000 3.15425000e+07
9270.000000 3.34893000e+07
9290.000000 3.39080000e+07
9310.000000 3.37464000e+07
9330.000000 3.36996000e+07
9350.000000 3.34565000e+07
9370.000000 3.32285000e+07
9390.000000 3.29691000e+07
9410.000000 3.26968000e+07
9430.000000 3.24219000e+07
9450.000000 3.21186000e+07
9470.000000 3.15869000e+07
9490.000000 3.12983000e+07
9510.000000 3.02583000e+07
9530.000000 2.80657000e+07
9550.000000 2.48858000e+07
9570.000000 2.82232000e+07
9590.000000 2.96327000e+07
9610.000000 2.98570000e+07
9630.000000 2.97376000e+07
9650.000000 2.97209000e+07
9670.000000 2.95312000e+07
9690.000000 2.93275000e+07
9710.000000 2.90638000e+07
9730.000000 2.89257000e+07
9750.000000 2.87038000e+07
9770.000000 2.84841000e+07
9790.000000 2.82665000e+07
9810.000000 2.80511000e+07
9830.000000 2.78377000e+07
9850.000000 2.76261000e+07
9870.000000 2.74164000e+07
9890.000000 2.72086000e+07
9910.000000 2.69796000e+07
9930.000000 2.67289000e+07
9950.000000 2.64903000e+07
9970.000000 2.62181000e+07
9990.000000 2.58595000e+07
10025.000000 2.38099000e+07
10075.000000 2.29280000e+07
10125.000000 2.46167000e+07
10175.000000 2.44016000e+07
10225.000000 2.39996000e+07
10275.000000 2.35735000e+07
10325.000000 2.30538000e+07
10375.000000 2.27303000e+07
10425.000000 2.23229000e+07
10475.000000 2.19249000e+07
10525.000000 2.15351000e+07
10575.000000 2.11544000e+07
10625.000000 2.07819000e+07
10675.000000 2.03817000e+07
10725.000000 2.00614000e+07
10775.000000 1.97011000e+07
10825.000000 1.90997000e+07
10875.000000 1.87512000e+07
10925.000000 1.65027000e+07
10975.000000 1.73726000e+07
11025.000000 1.78560000e+07
11075.000000 1.77127000e+07
11125.000000 1.74744000e+07
11175.000000 1.71814000e+07
11225.000000 1.68876000e+07
11275.000000 1.66131000e+07
11325.000000 1.63380000e+07
11375.000000 1.60686000e+07
11425.000000 1.58048000e+07
11475.000000 1.55460000e+07
11525.000000 1.52929000e+07
11575.000000 1.50449000e+07
11625.000000 1.48018000e+07
11675.000000 1.45636000e+07
11725.000000 1.43300000e+07
11775.000000 1.41013000e+07
11825.000000 1.38772000e+07
11875.000000 1.36575000e+07
11925.000000 1.34420000e+07
11975.000000 1.30925000e+07
12025.000000 1.30237000e+07
12075.000000 1.28210000e+07
12125.000000 1.26219000e+07
12175.000000 1.24267000e+07
12225.000000 1.22353000e+07
12275.000000 1.20475000e+07
12325.000000 1.18632000e+07
12375.000000 1.16826000e+07
12425.000000 1.15054000e+07
12475.000000 1.13315000e+07
12525.000000 1.11413000e+07
12575.000000 1.09936000e+07
12625.000000 1.08294000e+07
12675.000000 1.06468000e+07
12725.000000 1.04430000e+07
12775.000000 9.99437000e+06
12825.000000 9.02035000e+06
12875.000000 9.81904000e+06
12925.000000 9.85304000e+06
12975.000000 9.68707000e+06
13025.000000 9.62039000e+06
13075.000000 9.48150000e+06
