# Kurucz ODFNEW /NOVER, alpha: 0.0 (2003)
# teff = 26000 K (value for the effective temperature for the model. Temperatures are given in K)
# logg = 3.5 log(cm/s2) (value for Log(G) for the model.)
# lh = 1.25  (l/Hp where l is the  mixing length of the convective element and Hp is the pressure scale height)
# meta = 0.2  (value for the Metallicity for the model.)
# vtur = 2 km/s (Microturbulence velocity)
# alpha = 0  (Alpha)
#
# column 1: WAVELENGTH (ANGSTROM), Wavelength in Angstrom
# column 2: FLUX (ERG/CM2/S/A), Flux in erg/cm2/s/A
147.200000 3.28710000e-13
151.000000 1.31841000e-12
155.200000 5.68464000e-12
158.800000 1.87921000e-11
162.000000 5.22546000e-11
166.000000 1.78275000e-10
170.300000 6.25754000e-10
173.400000 1.49739000e-09
176.800000 3.76389000e-09
180.200000 9.15637000e-09
181.700000 1.34146000e-08
186.100000 3.98385000e-08
191.000000 1.26699000e-07
193.900000 2.44682000e-07
198.400000 6.55166000e-07
201.800000 1.34093000e-06
205.000000 2.57664000e-06
210.500000 7.57893000e-06
216.200000 2.19070000e-05
219.800000 4.16623000e-05
223.000000 7.25277000e-05
226.800000 1.38671000e-04
230.000000 1.12713000e-02
234.000000 2.53004000e-02
240.000000 5.53433000e-02
246.500000 1.27225000e-01
252.400000 2.62492000e-01
256.800000 4.17831000e-01
260.000000 6.94219000e-01
264.000000 1.08523000e+00
268.500000 1.78435000e+00
273.500000 2.98161000e+00
278.500000 4.83420000e+00
284.000000 9.32996000e+00
290.000000 1.59879000e+01
296.000000 2.67911000e+01
301.000000 4.00102000e+01
308.000000 7.52792000e+01
318.000000 1.76350000e+02
328.000000 3.47115000e+02
338.000000 7.09641000e+02
348.000000 1.34290000e+03
357.000000 7.83763000e+03
366.000000 1.80991000e+04
375.000000 2.59085000e+04
385.000000 4.30777000e+04
395.000000 9.88032000e+04
405.000000 1.41659000e+05
414.000000 2.13446000e+05
422.000000 2.85925000e+05
430.000000 4.03196000e+05
441.000000 5.81712000e+05
451.000000 7.38638000e+05
460.000000 9.32298000e+05
470.000000 1.29466000e+06
480.000000 1.71883000e+06
490.000000 2.25018000e+06
500.000000 2.83948000e+06
506.000000 1.14922000e+07
512.000000 9.89205000e+07
520.000000 1.01647000e+08
530.000000 1.04114000e+08
540.000000 1.04886000e+08
550.000000 1.59920000e+08
560.000000 1.94467000e+08
570.000000 2.17202000e+08
580.000000 1.99172000e+08
590.000000 2.50832000e+08
600.000000 2.50441000e+08
610.000000 3.05585000e+08
620.000000 3.46074000e+08
630.000000 3.52563000e+08
640.000000 3.12283000e+08
650.000000 2.22988000e+08
658.000000 3.28104000e+08
665.000000 4.12650000e+08
675.000000 4.39458000e+08
685.000000 4.01149000e+08
695.000000 5.74650000e+08
705.000000 5.22763000e+08
716.000000 6.40620000e+08
726.000000 6.32042000e+08
735.000000 6.56359000e+08
745.000000 7.34012000e+08
755.000000 7.61489000e+08
765.000000 8.03574000e+08
775.000000 8.58300000e+08
785.000000 9.12930000e+08
795.000000 9.29388000e+08
805.000000 9.35044000e+08
815.000000 9.39179000e+08
825.000000 1.03256000e+09
835.000000 8.06708000e+08
845.000000 1.01629000e+09
855.000000 1.01245000e+09
865.000000 1.07411000e+09
875.000000 1.13330000e+09
885.000000 1.21558000e+09
895.000000 1.25859000e+09
905.000000 1.22707000e+09
915.000000 1.89574000e+09
925.000000 1.30368000e+10
935.000000 2.27341000e+10
945.000000 3.00358000e+10
955.000000 3.23173000e+10
965.000000 3.32384000e+10
975.000000 7.05012000e+09
985.000000 2.26032000e+10
995.000000 2.49324000e+10
1005.000000 2.98150000e+10
1015.000000 3.15287000e+10
1025.000000 2.44140000e+10
1035.000000 2.66950000e+10
1045.000000 3.69511000e+10
1055.000000 3.37983000e+10
1065.000000 2.74802000e+10
1075.000000 3.09700000e+10
1085.000000 2.80919000e+10
1095.000000 3.10448000e+10
1105.000000 2.86808000e+10
1115.000000 2.78060000e+10
1125.000000 2.07840000e+10
1135.000000 2.82720000e+10
1145.000000 2.65631000e+10
1155.000000 2.63677000e+10
1165.000000 2.56347000e+10
1175.000000 1.33406000e+10
1185.000000 2.34568000e+10
1195.000000 2.28078000e+10
1205.000000 1.73830000e+10
1215.000000 1.68344000e+10
1225.000000 2.18784000e+10
1235.000000 2.40036000e+10
1245.000000 2.26792000e+10
1255.000000 2.27103000e+10
1265.000000 2.34109000e+10
1275.000000 2.43494000e+10
1285.000000 2.42479000e+10
1295.000000 1.84938000e+10
1305.000000 2.00677000e+10
1315.000000 2.38731000e+10
1325.000000 2.24198000e+10
1335.000000 2.16434000e+10
1345.000000 2.18787000e+10
1355.000000 2.14811000e+10
1365.000000 2.00575000e+10
1375.000000 1.92337000e+10
1385.000000 1.82629000e+10
1395.000000 1.15522000e+10
1405.000000 1.31218000e+10
1415.000000 1.64472000e+10
1425.000000 1.57643000e+10
1435.000000 1.67230000e+10
1442.000000 1.69747000e+10
1447.000000 1.67291000e+10
1455.000000 1.59819000e+10
1465.000000 1.47185000e+10
1475.000000 1.53248000e+10
1485.000000 1.52122000e+10
1495.000000 1.47965000e+10
1505.000000 1.34693000e+10
1512.000000 1.21362000e+10
1517.000000 1.25464000e+10
1525.000000 1.27339000e+10
1535.000000 1.04983000e+10
1545.000000 9.67444000e+09
1555.000000 9.50149000e+09
1565.000000 1.07260000e+10
1575.000000 1.16134000e+10
1585.000000 1.17310000e+10
1595.000000 1.15309000e+10
1605.000000 1.15551000e+10
1615.000000 1.11290000e+10
1625.000000 1.11233000e+10
1635.000000 1.18067000e+10
1645.000000 1.19088000e+10
1655.000000 1.17511000e+10
1665.000000 1.18492000e+10
1672.000000 1.10218000e+10
1677.000000 1.27971000e+10
1685.000000 1.20823000e+10
1695.000000 1.13495000e+10
1705.000000 1.12176000e+10
1715.000000 1.04628000e+10
1725.000000 1.02779000e+10
1735.000000 1.07068000e+10
1745.000000 1.05246000e+10
1755.000000 1.05326000e+10
1765.000000 1.05437000e+10
1775.000000 9.74950000e+09
1785.000000 1.00252000e+10
1795.000000 1.01734000e+10
1805.000000 1.02736000e+10
1815.000000 9.18361000e+09
1825.000000 9.51827000e+09
1835.000000 9.31087000e+09
1845.000000 8.44735000e+09
1855.000000 8.73434000e+09
1865.000000 8.83210000e+09
1875.000000 9.05061000e+09
1885.000000 8.06784000e+09
1895.000000 7.52625000e+09
1905.000000 8.18709000e+09
1915.000000 7.71164000e+09
1925.000000 7.21592000e+09
1935.000000 7.80228000e+09
1945.000000 7.99970000e+09
1955.000000 7.05648000e+09
1967.000000 7.76177000e+09
1976.000000 8.11991000e+09
1984.000000 7.54195000e+09
1995.000000 7.40808000e+09
2005.000000 7.73949000e+09
2015.000000 7.67353000e+09
2025.000000 7.85765000e+09
2035.000000 7.11308000e+09
2045.000000 7.25421000e+09
2055.000000 6.65718000e+09
2065.000000 6.58597000e+09
2074.000000 7.07737000e+09
2078.000000 6.38281000e+09
2085.000000 6.89673000e+09
2095.000000 6.58007000e+09
2105.000000 6.85030000e+09
2115.000000 6.90644000e+09
2125.000000 6.94162000e+09
2135.000000 6.83658000e+09
2145.000000 6.44883000e+09
2155.000000 6.74710000e+09
2165.000000 6.68452000e+09
2175.000000 6.62470000e+09
2185.000000 6.39313000e+09
2195.000000 6.50602000e+09
2205.000000 6.49712000e+09
2215.000000 6.37523000e+09
2225.000000 6.21327000e+09
2235.000000 6.08162000e+09
2245.000000 6.13423000e+09
2255.000000 5.94941000e+09
2265.000000 6.00060000e+09
2275.000000 5.91710000e+09
2285.000000 5.87914000e+09
2295.000000 5.09730000e+09
2305.000000 5.64418000e+09
2315.000000 5.50463000e+09
2325.000000 5.45557000e+09
2335.000000 5.32112000e+09
2345.000000 5.38058000e+09
2355.000000 5.31121000e+09
2365.000000 5.26497000e+09
2375.000000 5.13110000e+09
2385.000000 5.07631000e+09
2395.000000 5.00977000e+09
2405.000000 4.94859000e+09
2415.000000 4.89264000e+09
2425.000000 4.87127000e+09
2435.000000 4.73718000e+09
2445.000000 4.74036000e+09
2455.000000 4.72876000e+09
2465.000000 4.64558000e+09
2475.000000 4.55879000e+09
2485.000000 4.40529000e+09
2495.000000 3.29402000e+09
2505.000000 4.19180000e+09
2513.000000 4.11450000e+09
2518.000000 4.26283000e+09
2525.000000 4.27078000e+09
2535.000000 4.24401000e+09
2545.000000 4.07747000e+09
2555.000000 4.11175000e+09
2565.000000 4.05902000e+09
2575.000000 4.05204000e+09
2585.000000 3.99104000e+09
2595.000000 3.95402000e+09
2605.000000 3.92256000e+09
2615.000000 3.84810000e+09
2625.000000 3.82709000e+09
2635.000000 3.79240000e+09
2645.000000 3.72867000e+09
2655.000000 3.70780000e+09
2665.000000 3.54985000e+09
2675.000000 3.55227000e+09
2685.000000 3.55967000e+09
2695.000000 3.42359000e+09
2705.000000 3.34226000e+09
2715.000000 3.35305000e+09
2725.000000 3.36101000e+09
2735.000000 3.31990000e+09
2745.000000 3.26966000e+09
2755.000000 3.25078000e+09
2765.000000 3.20381000e+09
2775.000000 3.22273000e+09
2785.000000 3.16364000e+09
2795.000000 3.04744000e+09
2805.000000 3.07483000e+09
2815.000000 3.07850000e+09
2825.000000 3.03966000e+09
2835.000000 2.93069000e+09
2845.000000 2.96202000e+09
2855.000000 2.90041000e+09
2865.000000 2.89497000e+09
2875.000000 2.86311000e+09
2885.000000 2.83207000e+09
2895.000000 2.78561000e+09
2910.000000 2.72200000e+09
2930.000000 2.69787000e+09
2950.000000 2.61392000e+09
2970.000000 2.57162000e+09
2990.000000 2.50973000e+09
3010.000000 2.40788000e+09
3030.000000 2.39692000e+09
3050.000000 2.36437000e+09
3070.000000 2.33071000e+09
3090.000000 2.22780000e+09
3110.000000 2.22799000e+09
3130.000000 2.16600000e+09
3150.000000 2.13349000e+09
3170.000000 2.07629000e+09
3190.000000 2.03889000e+09
3210.000000 2.00563000e+09
3230.000000 1.95267000e+09
3250.000000 1.92850000e+09
3270.000000 1.87842000e+09
3290.000000 1.84277000e+09
3310.000000 1.80788000e+09
3330.000000 1.76520000e+09
3350.000000 1.73472000e+09
3370.000000 1.69803000e+09
3390.000000 1.67540000e+09
3410.000000 1.64379000e+09
3430.000000 1.60969000e+09
3450.000000 1.57294000e+09
3470.000000 1.54407000e+09
3490.000000 1.51235000e+09
3510.000000 1.48761000e+09
3530.000000 1.46899000e+09
3550.000000 1.43927000e+09
3570.000000 1.41550000e+09
3590.000000 1.37490000e+09
3610.000000 1.35080000e+09
3630.000000 1.33116000e+09
3640.000000 1.32718000e+09
3650.000000 1.29336000e+09
3670.000000 1.27816000e+09
3690.000000 1.24641000e+09
3710.000000 1.20471000e+09
3730.000000 1.17230000e+09
3750.000000 1.23323000e+09
3770.000000 1.21881000e+09
3790.000000 1.24883000e+09
3810.000000 1.27977000e+09
3830.000000 1.15367000e+09
3850.000000 1.26984000e+09
3870.000000 1.23172000e+09
3890.000000 1.09971000e+09
3910.000000 1.22882000e+09
3930.000000 1.18393000e+09
3950.000000 1.16980000e+09
3970.000000 1.01666000e+09
3990.000000 1.13766000e+09
4010.000000 1.12287000e+09
4030.000000 1.07893000e+09
4050.000000 1.08266000e+09
4070.000000 1.03327000e+09
4090.000000 9.88481000e+08
4110.000000 9.12468000e+08
4130.000000 9.89459000e+08
4150.000000 9.81192000e+08
4170.000000 9.75680000e+08
4190.000000 9.63041000e+08
4210.000000 9.53105000e+08
4230.000000 9.32765000e+08
4250.000000 9.06549000e+08
4270.000000 8.83489000e+08
4290.000000 8.69662000e+08
4310.000000 8.43560000e+08
4330.000000 8.03234000e+08
4350.000000 7.49895000e+08
4370.000000 8.04931000e+08
4390.000000 8.03771000e+08
4410.000000 7.92720000e+08
4430.000000 7.86865000e+08
4450.000000 7.72445000e+08
4470.000000 7.48730000e+08
4490.000000 7.51512000e+08
4510.000000 7.41694000e+08
4530.000000 7.31745000e+08
4550.000000 7.20922000e+08
4570.000000 7.09268000e+08
4590.000000 6.96610000e+08
4610.000000 6.80244000e+08
4630.000000 6.70145000e+08
4650.000000 6.43363000e+08
4670.000000 6.50180000e+08
4690.000000 6.44904000e+08
4710.000000 6.22711000e+08
4730.000000 6.25219000e+08
4750.000000 6.14589000e+08
4770.000000 6.14148000e+08
4790.000000 6.03447000e+08
4810.000000 5.91536000e+08
4830.000000 5.81302000e+08
4850.000000 5.59637000e+08
4870.000000 5.10478000e+08
4890.000000 5.57435000e+08
4910.000000 5.50387000e+08
4930.000000 5.34569000e+08
4950.000000 5.31350000e+08
4970.000000 5.29095000e+08
4990.000000 5.20429000e+08
5010.000000 4.99472000e+08
5030.000000 5.04115000e+08
5050.000000 4.94353000e+08
5070.000000 4.91443000e+08
5090.000000 4.83343000e+08
5110.000000 4.75570000e+08
5130.000000 4.65499000e+08
5150.000000 4.60640000e+08
5170.000000 4.56195000e+08
5190.000000 4.50742000e+08
5210.000000 4.44110000e+08
5230.000000 4.37869000e+08
5250.000000 4.31860000e+08
5270.000000 4.24790000e+08
5290.000000 4.20305000e+08
5310.000000 4.14139000e+08
5330.000000 4.09087000e+08
5350.000000 4.03244000e+08
5370.000000 3.98195000e+08
5390.000000 3.92211000e+08
5410.000000 3.87424000e+08
5430.000000 3.82289000e+08
5450.000000 3.76926000e+08
5470.000000 3.71934000e+08
5490.000000 3.66891000e+08
5510.000000 3.62855000e+08
5530.000000 3.57131000e+08
5550.000000 3.53559000e+08
5570.000000 3.48535000e+08
5590.000000 3.44201000e+08
5610.000000 3.39740000e+08
5630.000000 3.35560000e+08
5650.000000 3.30167000e+08
5670.000000 3.24280000e+08
5690.000000 3.18257000e+08
5710.000000 3.16679000e+08
5730.000000 3.13221000e+08
5750.000000 3.07992000e+08
5770.000000 3.06121000e+08
5790.000000 3.01841000e+08
5810.000000 2.98160000e+08
5830.000000 2.93524000e+08
5850.000000 2.90628000e+08
5870.000000 2.80823000e+08
5890.000000 2.81276000e+08
5910.000000 2.79073000e+08
5930.000000 2.75094000e+08
5950.000000 2.71662000e+08
5970.000000 2.70363000e+08
5990.000000 2.65411000e+08
6010.000000 2.63251000e+08
6030.000000 2.59321000e+08
6050.000000 2.56529000e+08
6070.000000 2.54034000e+08
6090.000000 2.51078000e+08
6110.000000 2.47984000e+08
6130.000000 2.45225000e+08
6150.000000 2.41063000e+08
6170.000000 2.38533000e+08
6190.000000 2.36276000e+08
6210.000000 2.33780000e+08
6230.000000 2.31155000e+08
6250.000000 2.27885000e+08
6270.000000 2.25417000e+08
6290.000000 2.23015000e+08
6310.000000 2.20194000e+08
6330.000000 2.17949000e+08
6350.000000 2.14934000e+08
6370.000000 2.12945000e+08
6390.000000 2.10341000e+08
6410.000000 2.07976000e+08
6430.000000 2.05737000e+08
6450.000000 2.03304000e+08
6470.000000 2.00240000e+08
6490.000000 1.98051000e+08
6510.000000 1.96240000e+08
6530.000000 1.93635000e+08
6550.000000 1.88942000e+08
6570.000000 1.70399000e+08
6590.000000 1.85831000e+08
6610.000000 1.85243000e+08
6630.000000 1.83476000e+08
6650.000000 1.81249000e+08
6670.000000 1.78123000e+08
6690.000000 1.76210000e+08
6710.000000 1.75562000e+08
6730.000000 1.73048000e+08
6750.000000 1.71809000e+08
6770.000000 1.69982000e+08
6790.000000 1.66768000e+08
6810.000000 1.66025000e+08
6830.000000 1.64174000e+08
6850.000000 1.62647000e+08
6870.000000 1.60847000e+08
6890.000000 1.58859000e+08
6910.000000 1.56907000e+08
6930.000000 1.55791000e+08
6950.000000 1.54147000e+08
6970.000000 1.52527000e+08
6990.000000 1.50846000e+08
7010.000000 1.49243000e+08
7030.000000 1.47587000e+08
7050.000000 1.46091000e+08
7070.000000 1.42477000e+08
7090.000000 1.43083000e+08
7110.000000 1.40357000e+08
7130.000000 1.39066000e+08
7150.000000 1.38628000e+08
7170.000000 1.37211000e+08
7190.000000 1.35830000e+08
7210.000000 1.34425000e+08
7230.000000 1.31153000e+08
7250.000000 1.31319000e+08
7270.000000 1.30305000e+08
7290.000000 1.28024000e+08
7310.000000 1.27621000e+08
7330.000000 1.26280000e+08
7350.000000 1.25071000e+08
7370.000000 1.23838000e+08
7390.000000 1.22589000e+08
7410.000000 1.21352000e+08
7430.000000 1.20106000e+08
7450.000000 1.18912000e+08
7470.000000 1.17088000e+08
7490.000000 1.16450000e+08
7510.000000 1.15336000e+08
7530.000000 1.14120000e+08
7550.000000 1.13139000e+08
7570.000000 1.12023000e+08
7590.000000 1.10878000e+08
7610.000000 1.09613000e+08
7630.000000 1.08709000e+08
7650.000000 1.07652000e+08
7670.000000 1.06636000e+08
7690.000000 1.05566000e+08
7710.000000 1.04512000e+08
7730.000000 1.03455000e+08
7750.000000 1.02558000e+08
7770.000000 1.01351000e+08
7790.000000 1.00614000e+08
7810.000000 9.95865000e+07
7830.000000 9.86974000e+07
7850.000000 9.77794000e+07
7870.000000 9.66809000e+07
7890.000000 9.55862000e+07
7910.000000 9.48686000e+07
7930.000000 9.38994000e+07
7950.000000 9.30699000e+07
7970.000000 9.21586000e+07
7990.000000 9.13261000e+07
8010.000000 9.04243000e+07
8030.000000 8.95888000e+07
8050.000000 8.88594000e+07
8070.000000 8.80608000e+07
8090.000000 8.71367000e+07
8110.000000 8.58540000e+07
8130.000000 8.56772000e+07
8150.000000 8.47638000e+07
8170.000000 8.41461000e+07
8190.000000 8.29269000e+07
8210.000000 8.20371000e+07
8230.000000 8.11382000e+07
8250.000000 8.08782000e+07
8270.000000 7.93252000e+07
8290.000000 7.92883000e+07
8310.000000 7.86561000e+07
8330.000000 7.79531000e+07
8350.000000 7.69155000e+07
8370.000000 7.63333000e+07
8390.000000 7.58200000e+07
8410.000000 7.50443000e+07
8430.000000 7.43706000e+07
8450.000000 7.32486000e+07
8470.000000 7.28138000e+07
8490.000000 7.24241000e+07
8510.000000 7.11270000e+07
8530.000000 7.13737000e+07
8550.000000 6.91437000e+07
8570.000000 7.08834000e+07
8590.000000 6.80367000e+07
8610.000000 6.75532000e+07
8630.000000 6.95977000e+07
8650.000000 6.78866000e+07
8670.000000 6.34440000e+07
8690.000000 6.78816000e+07
8710.000000 6.78037000e+07
8730.000000 6.61933000e+07
8750.000000 6.04883000e+07
8770.000000 6.45623000e+07
8790.000000 6.56487000e+07
8810.000000 6.51811000e+07
8830.000000 6.44368000e+07
8850.000000 6.16206000e+07
8870.000000 5.73783000e+07
8890.000000 6.25975000e+07
8910.000000 6.24639000e+07
8930.000000 6.19340000e+07
8950.000000 6.15776000e+07
8970.000000 6.10083000e+07
8990.000000 5.97396000e+07
9010.000000 5.43375000e+07
9030.000000 5.68830000e+07
9050.000000 5.87984000e+07
9070.000000 5.80676000e+07
9090.000000 5.78671000e+07
9110.000000 5.75770000e+07
9130.000000 5.71216000e+07
9150.000000 5.66517000e+07
9170.000000 5.60509000e+07
9190.000000 5.55797000e+07
9210.000000 5.38375000e+07
9230.000000 4.84748000e+07
9250.000000 5.30646000e+07
9270.000000 5.35680000e+07
9290.000000 5.34162000e+07
9310.000000 5.27914000e+07
9330.000000 5.23836000e+07
9350.000000 5.21037000e+07
9370.000000 5.17142000e+07
9390.000000 5.13146000e+07
9410.000000 5.08542000e+07
9430.000000 5.04651000e+07
9450.000000 5.00408000e+07
9470.000000 4.94431000e+07
9490.000000 4.92140000e+07
9510.000000 4.83574000e+07
9530.000000 4.70140000e+07
9550.000000 4.26535000e+07
9570.000000 4.70167000e+07
9590.000000 4.72468000e+07
9610.000000 4.67648000e+07
9630.000000 4.63026000e+07
9650.000000 4.62565000e+07
9670.000000 4.58841000e+07
9690.000000 4.54822000e+07
9710.000000 4.48515000e+07
9730.000000 4.47828000e+07
9750.000000 4.44486000e+07
9770.000000 4.41208000e+07
9790.000000 4.37638000e+07
9810.000000 4.33703000e+07
9830.000000 4.30926000e+07
9850.000000 4.27353000e+07
9870.000000 4.23766000e+07
9890.000000 4.19820000e+07
9910.000000 4.15059000e+07
9930.000000 4.14496000e+07
9950.000000 4.11234000e+07
9970.000000 4.07690000e+07
9990.000000 4.04965000e+07
10025.000000 3.88647000e+07
10075.000000 3.76189000e+07
10125.000000 3.83323000e+07
10175.000000 3.77673000e+07
10225.000000 3.70493000e+07
10275.000000 3.63756000e+07
10325.000000 3.55895000e+07
10375.000000 3.50548000e+07
10425.000000 3.44154000e+07
10475.000000 3.37896000e+07
10525.000000 3.31622000e+07
10575.000000 3.25775000e+07
10625.000000 3.19923000e+07
10675.000000 3.13726000e+07
10725.000000 3.08640000e+07
10775.000000 3.03154000e+07
10825.000000 2.94692000e+07
10875.000000 2.92377000e+07
10925.000000 2.70402000e+07
10975.000000 2.79226000e+07
11025.000000 2.76212000e+07
11075.000000 2.72741000e+07
11125.000000 2.68067000e+07
11175.000000 2.63537000e+07
11225.000000 2.58943000e+07
11275.000000 2.54518000e+07
11325.000000 2.49864000e+07
11375.000000 2.46062000e+07
11425.000000 2.41824000e+07
11475.000000 2.37956000e+07
11525.000000 2.34058000e+07
11575.000000 2.30007000e+07
11625.000000 2.26293000e+07
11675.000000 2.22380000e+07
11725.000000 2.19049000e+07
11775.000000 2.15418000e+07
11825.000000 2.11943000e+07
11875.000000 2.08562000e+07
11925.000000 2.05217000e+07
11975.000000 2.00454000e+07
12025.000000 1.98691000e+07
12075.000000 1.95561000e+07
12125.000000 1.92432000e+07
12175.000000 1.89411000e+07
12225.000000 1.86441000e+07
12275.000000 1.83537000e+07
12325.000000 1.80635000e+07
12375.000000 1.77833000e+07
12425.000000 1.75130000e+07
12475.000000 1.72282000e+07
12525.000000 1.69317000e+07
12575.000000 1.67049000e+07
12625.000000 1.64527000e+07
12675.000000 1.62144000e+07
12725.000000 1.59695000e+07
12775.000000 1.55296000e+07
12825.000000 1.45952000e+07
12875.000000 1.52243000e+07
12925.000000 1.50335000e+07
12975.000000 1.47252000e+07
13025.000000 1.45806000e+07
13075.000000 1.43787000e+07
