# Kurucz ODFNEW /NOVER, alpha: 0.0 (2003)
# teff = 22000 K (value for the effective temperature for the model. Temperatures are given in K)
# logg = 3.5 log(cm/s2) (value for Log(G) for the model.)
# lh = 1.25  (l/Hp where l is the  mixing length of the convective element and Hp is the pressure scale height)
# meta = -1  (value for the Metallicity for the model.)
# vtur = 2 km/s (Microturbulence velocity)
# alpha = 0  (Alpha)
#
# column 1: WAVELENGTH (ANGSTROM), Wavelength in Angstrom
# column 2: FLUX (ERG/CM2/S/A), Flux in erg/cm2/s/A
147.200000 1.75865000e-17
151.000000 9.92820000e-17
155.200000 6.12851000e-16
158.800000 2.71431000e-15
162.000000 9.67031000e-15
166.000000 4.42749000e-14
170.300000 2.10460000e-13
173.400000 6.17889000e-13
176.800000 1.92931000e-12
180.200000 5.77484000e-12
181.700000 9.24716000e-12
186.100000 3.52318000e-11
191.000000 1.45307000e-10
193.900000 3.24933000e-10
198.400000 1.08063000e-09
201.800000 2.58472000e-09
205.000000 5.71786000e-09
210.500000 2.11370000e-08
216.200000 7.62156000e-08
219.800000 1.65377000e-07
223.000000 3.22207000e-07
226.800000 6.93685000e-07
230.000000 1.11872000e-05
234.000000 2.72805000e-05
240.000000 7.35538000e-05
246.500000 2.03845000e-04
252.400000 4.96611000e-04
256.800000 8.95919000e-04
260.000000 1.45158000e-03
264.000000 2.48245000e-03
268.500000 4.44750000e-03
273.500000 8.29938000e-03
278.500000 1.51858000e-02
284.000000 2.88306000e-02
290.000000 5.61063000e-02
296.000000 1.06071000e-01
301.000000 1.76470000e-01
308.000000 3.40754000e-01
318.000000 8.92909000e-01
328.000000 2.11182000e+00
338.000000 4.80590000e+00
348.000000 1.03319000e+01
357.000000 2.00893000e+01
366.000000 3.75222000e+01
375.000000 6.67571000e+01
385.000000 1.23804000e+02
395.000000 2.21168000e+02
405.000000 3.83379000e+02
414.000000 6.15881000e+02
422.000000 9.14767000e+02
430.000000 1.34062000e+03
441.000000 2.22554000e+03
451.000000 3.44370000e+03
460.000000 4.99113000e+03
470.000000 7.43925000e+03
480.000000 1.08450000e+04
490.000000 1.55947000e+04
500.000000 2.20492000e+04
506.000000 1.69916000e+05
512.000000 5.95035000e+05
520.000000 7.39220000e+05
530.000000 1.00961000e+06
540.000000 1.12608000e+06
550.000000 1.61963000e+06
560.000000 1.93494000e+06
570.000000 2.41552000e+06
580.000000 2.43799000e+06
590.000000 3.25355000e+06
600.000000 3.99469000e+06
610.000000 4.81122000e+06
620.000000 5.53569000e+06
630.000000 6.45594000e+06
640.000000 7.08869000e+06
650.000000 7.65710000e+06
658.000000 9.38247000e+06
665.000000 1.02628000e+07
675.000000 1.12368000e+07
685.000000 1.25225000e+07
695.000000 1.48087000e+07
705.000000 1.62433000e+07
716.000000 1.85015000e+07
726.000000 2.02275000e+07
735.000000 2.20832000e+07
745.000000 2.49268000e+07
755.000000 2.74729000e+07
765.000000 3.01364000e+07
775.000000 3.31817000e+07
785.000000 3.63595000e+07
795.000000 3.91259000e+07
805.000000 4.22967000e+07
815.000000 4.52450000e+07
825.000000 4.94933000e+07
835.000000 5.13300000e+07
845.000000 5.60379000e+07
855.000000 5.98418000e+07
865.000000 6.45333000e+07
875.000000 6.97635000e+07
885.000000 7.50934000e+07
895.000000 7.98444000e+07
905.000000 8.29561000e+07
915.000000 1.42228000e+08
925.000000 1.33613000e+09
935.000000 4.11456000e+09
945.000000 9.60696000e+09
955.000000 1.21979000e+10
965.000000 1.48175000e+10
975.000000 4.11277000e+09
985.000000 1.49329000e+10
995.000000 1.41574000e+10
1005.000000 1.53400000e+10
1015.000000 1.46881000e+10
1025.000000 6.41637000e+09
1035.000000 1.18928000e+10
1045.000000 1.65974000e+10
1055.000000 1.57004000e+10
1065.000000 1.38386000e+10
1075.000000 1.52824000e+10
1085.000000 1.38592000e+10
1095.000000 1.52260000e+10
1105.000000 1.41241000e+10
1115.000000 1.40871000e+10
1125.000000 1.27048000e+10
1135.000000 1.41983000e+10
1145.000000 1.31715000e+10
1155.000000 1.36052000e+10
1165.000000 1.36486000e+10
1175.000000 1.05696000e+10
1185.000000 1.31917000e+10
1195.000000 1.20499000e+10
1205.000000 9.08546000e+09
1215.000000 4.78649000e+09
1225.000000 1.07280000e+10
1235.000000 1.20420000e+10
1245.000000 1.20457000e+10
1255.000000 1.17377000e+10
1265.000000 1.15553000e+10
1275.000000 1.17847000e+10
1285.000000 1.15337000e+10
1295.000000 9.60005000e+09
1305.000000 9.87202000e+09
1315.000000 1.10394000e+10
1325.000000 1.05279000e+10
1335.000000 1.00470000e+10
1345.000000 1.02424000e+10
1355.000000 1.02491000e+10
1365.000000 9.74040000e+09
1375.000000 9.57294000e+09
1385.000000 9.52947000e+09
1395.000000 8.42229000e+09
1405.000000 8.69329000e+09
1415.000000 8.89109000e+09
1425.000000 8.72649000e+09
1435.000000 8.76957000e+09
1442.000000 8.84462000e+09
1447.000000 8.68194000e+09
1455.000000 8.52534000e+09
1465.000000 8.19432000e+09
1475.000000 8.11961000e+09
1485.000000 7.96364000e+09
1495.000000 7.83706000e+09
1505.000000 7.44436000e+09
1512.000000 6.94516000e+09
1517.000000 7.09688000e+09
1525.000000 7.13342000e+09
1535.000000 6.53506000e+09
1545.000000 6.62039000e+09
1555.000000 6.31381000e+09
1565.000000 6.54440000e+09
1575.000000 6.68450000e+09
1585.000000 6.58258000e+09
1595.000000 6.56634000e+09
1605.000000 6.38576000e+09
1615.000000 6.27660000e+09
1625.000000 6.22341000e+09
1635.000000 6.33241000e+09
1645.000000 6.20888000e+09
1655.000000 6.11908000e+09
1665.000000 6.15465000e+09
1672.000000 5.97507000e+09
1677.000000 6.15141000e+09
1685.000000 6.03900000e+09
1695.000000 5.83486000e+09
1705.000000 5.64636000e+09
1715.000000 5.44134000e+09
1725.000000 5.38034000e+09
1735.000000 5.43026000e+09
1745.000000 5.31660000e+09
1755.000000 5.34854000e+09
1765.000000 5.13355000e+09
1775.000000 5.03187000e+09
1785.000000 5.03500000e+09
1795.000000 5.07470000e+09
1805.000000 5.05505000e+09
1815.000000 4.75294000e+09
1825.000000 4.81931000e+09
1835.000000 4.71110000e+09
1845.000000 4.38869000e+09
1855.000000 4.33351000e+09
1865.000000 4.38767000e+09
1875.000000 4.48737000e+09
1885.000000 4.11779000e+09
1895.000000 3.88078000e+09
1905.000000 4.10361000e+09
1915.000000 3.92989000e+09
1925.000000 3.79990000e+09
1935.000000 3.92524000e+09
1945.000000 3.97550000e+09
1955.000000 3.68102000e+09
1967.000000 3.86136000e+09
1976.000000 3.97891000e+09
1984.000000 3.74408000e+09
1995.000000 3.65350000e+09
2005.000000 3.70992000e+09
2015.000000 3.70325000e+09
2025.000000 3.75551000e+09
2035.000000 3.53002000e+09
2045.000000 3.52603000e+09
2055.000000 3.43319000e+09
2065.000000 3.45134000e+09
2074.000000 3.56054000e+09
2078.000000 3.35045000e+09
2085.000000 3.40451000e+09
2095.000000 3.26480000e+09
2105.000000 3.32389000e+09
2115.000000 3.29935000e+09
2125.000000 3.33487000e+09
2135.000000 3.26973000e+09
2145.000000 3.14237000e+09
2155.000000 3.20413000e+09
2165.000000 3.17339000e+09
2175.000000 3.12477000e+09
2185.000000 3.07540000e+09
2195.000000 3.06926000e+09
2205.000000 3.02955000e+09
2215.000000 2.99250000e+09
2225.000000 2.93157000e+09
2235.000000 2.89642000e+09
2245.000000 2.89116000e+09
2255.000000 2.82846000e+09
2265.000000 2.82549000e+09
2275.000000 2.78892000e+09
2285.000000 2.77293000e+09
2295.000000 2.67536000e+09
2305.000000 2.69786000e+09
2315.000000 2.64100000e+09
2325.000000 2.61380000e+09
2335.000000 2.55470000e+09
2345.000000 2.53289000e+09
2355.000000 2.53167000e+09
2365.000000 2.49131000e+09
2375.000000 2.46096000e+09
2385.000000 2.42745000e+09
2395.000000 2.40696000e+09
2405.000000 2.37415000e+09
2415.000000 2.34077000e+09
2425.000000 2.33913000e+09
2435.000000 2.29460000e+09
2445.000000 2.27839000e+09
2455.000000 2.26518000e+09
2465.000000 2.23022000e+09
2475.000000 2.20566000e+09
2485.000000 2.17903000e+09
2495.000000 2.09364000e+09
2505.000000 2.12835000e+09
2513.000000 2.06214000e+09
2518.000000 2.09627000e+09
2525.000000 2.07485000e+09
2535.000000 2.04609000e+09
2545.000000 2.00770000e+09
2555.000000 2.01227000e+09
2565.000000 1.98362000e+09
2575.000000 1.97580000e+09
2585.000000 1.95298000e+09
2595.000000 1.93142000e+09
2605.000000 1.92061000e+09
2615.000000 1.90055000e+09
2625.000000 1.88189000e+09
2635.000000 1.85738000e+09
2645.000000 1.84832000e+09
2655.000000 1.82907000e+09
2665.000000 1.79851000e+09
2675.000000 1.78471000e+09
2685.000000 1.77698000e+09
2695.000000 1.73752000e+09
2705.000000 1.73325000e+09
2715.000000 1.71534000e+09
2725.000000 1.68542000e+09
2735.000000 1.68259000e+09
2745.000000 1.64345000e+09
2755.000000 1.63383000e+09
2765.000000 1.61385000e+09
2775.000000 1.61506000e+09
2785.000000 1.59503000e+09
2795.000000 1.54848000e+09
2805.000000 1.55321000e+09
2815.000000 1.54938000e+09
2825.000000 1.52011000e+09
2835.000000 1.49061000e+09
2845.000000 1.49937000e+09
2855.000000 1.48367000e+09
2865.000000 1.47177000e+09
2875.000000 1.45621000e+09
2885.000000 1.44211000e+09
2895.000000 1.42659000e+09
2910.000000 1.40427000e+09
2930.000000 1.37502000e+09
2950.000000 1.33986000e+09
2970.000000 1.32290000e+09
2990.000000 1.29456000e+09
3010.000000 1.26814000e+09
3030.000000 1.24793000e+09
3050.000000 1.22396000e+09
3070.000000 1.20055000e+09
3090.000000 1.17326000e+09
3110.000000 1.15456000e+09
3130.000000 1.13347000e+09
3150.000000 1.11232000e+09
3170.000000 1.09012000e+09
3190.000000 1.06228000e+09
3210.000000 1.05062000e+09
3230.000000 1.03075000e+09
3250.000000 1.01204000e+09
3270.000000 9.94380000e+08
3290.000000 9.74810000e+08
3310.000000 9.58973000e+08
3330.000000 9.41577000e+08
3350.000000 9.23016000e+08
3370.000000 9.08146000e+08
3390.000000 8.92217000e+08
3410.000000 8.76533000e+08
3430.000000 8.56670000e+08
3450.000000 8.38632000e+08
3470.000000 8.26521000e+08
3490.000000 8.12436000e+08
3510.000000 8.02470000e+08
3530.000000 7.89865000e+08
3550.000000 7.76686000e+08
3570.000000 7.66766000e+08
3590.000000 7.49273000e+08
3610.000000 7.37091000e+08
3630.000000 7.24617000e+08
3640.000000 7.23001000e+08
3650.000000 7.09628000e+08
3670.000000 7.00824000e+08
3690.000000 6.80880000e+08
3710.000000 6.65923000e+08
3730.000000 6.54143000e+08
3750.000000 7.15712000e+08
3770.000000 7.20888000e+08
3790.000000 7.50097000e+08
3810.000000 7.79069000e+08
3830.000000 6.87358000e+08
3850.000000 7.93489000e+08
3870.000000 7.88126000e+08
3890.000000 6.55687000e+08
3910.000000 7.75607000e+08
3930.000000 7.55854000e+08
3950.000000 7.49958000e+08
3970.000000 6.09115000e+08
3990.000000 7.22005000e+08
4010.000000 7.13134000e+08
4030.000000 6.78794000e+08
4050.000000 6.95879000e+08
4070.000000 6.79209000e+08
4090.000000 6.40715000e+08
4110.000000 5.66273000e+08
4130.000000 6.40071000e+08
4150.000000 6.34047000e+08
4170.000000 6.28002000e+08
4190.000000 6.20003000e+08
4210.000000 6.10917000e+08
4230.000000 6.00564000e+08
4250.000000 5.90149000e+08
4270.000000 5.76885000e+08
4290.000000 5.71293000e+08
4310.000000 5.59940000e+08
4330.000000 5.19455000e+08
4350.000000 4.75210000e+08
4370.000000 5.33149000e+08
4390.000000 5.17121000e+08
4410.000000 5.19259000e+08
4430.000000 5.10013000e+08
4450.000000 5.04506000e+08
4470.000000 4.79997000e+08
4490.000000 4.88027000e+08
4510.000000 4.82208000e+08
4530.000000 4.74544000e+08
4550.000000 4.67143000e+08
4570.000000 4.59906000e+08
4590.000000 4.53368000e+08
4610.000000 4.46323000e+08
4630.000000 4.39593000e+08
4650.000000 4.31464000e+08
4670.000000 4.26809000e+08
4690.000000 4.21190000e+08
4710.000000 4.09180000e+08
4730.000000 4.07344000e+08
4750.000000 4.00982000e+08
4770.000000 3.97395000e+08
4790.000000 3.91505000e+08
4810.000000 3.85407000e+08
4830.000000 3.78588000e+08
4850.000000 3.56558000e+08
4870.000000 3.20373000e+08
4890.000000 3.62328000e+08
4910.000000 3.58867000e+08
4930.000000 3.47048000e+08
4950.000000 3.48985000e+08
4970.000000 3.44413000e+08
4990.000000 3.39509000e+08
5010.000000 3.29945000e+08
5030.000000 3.30096000e+08
5050.000000 3.22981000e+08
5070.000000 3.21156000e+08
5090.000000 3.16761000e+08
5110.000000 3.12353000e+08
5130.000000 3.07718000e+08
5150.000000 3.03571000e+08
5170.000000 2.99916000e+08
5190.000000 2.95889000e+08
5210.000000 2.91581000e+08
5230.000000 2.88006000e+08
5250.000000 2.84189000e+08
5270.000000 2.80368000e+08
5290.000000 2.76717000e+08
5310.000000 2.73020000e+08
5330.000000 2.69423000e+08
5350.000000 2.65767000e+08
5370.000000 2.62498000e+08
5390.000000 2.59049000e+08
5410.000000 2.55709000e+08
5430.000000 2.52270000e+08
5450.000000 2.49052000e+08
5470.000000 2.45874000e+08
5490.000000 2.42761000e+08
5510.000000 2.39686000e+08
5530.000000 2.36613000e+08
5550.000000 2.33651000e+08
5570.000000 2.30665000e+08
5590.000000 2.27800000e+08
5610.000000 2.24885000e+08
5630.000000 2.22126000e+08
5650.000000 2.19093000e+08
5670.000000 2.16249000e+08
5690.000000 2.13463000e+08
5710.000000 2.11208000e+08
5730.000000 2.08623000e+08
5750.000000 2.05978000e+08
5770.000000 2.03590000e+08
5790.000000 2.01096000e+08
5810.000000 1.98654000e+08
5830.000000 1.96207000e+08
5850.000000 1.93866000e+08
5870.000000 1.86490000e+08
5890.000000 1.88744000e+08
5910.000000 1.86908000e+08
5930.000000 1.84632000e+08
5950.000000 1.82371000e+08
5970.000000 1.80358000e+08
5990.000000 1.78148000e+08
6010.000000 1.76109000e+08
6030.000000 1.74021000e+08
6050.000000 1.71997000e+08
6070.000000 1.69996000e+08
6090.000000 1.67998000e+08
6110.000000 1.66062000e+08
6130.000000 1.64138000e+08
6150.000000 1.62116000e+08
6170.000000 1.60335000e+08
6190.000000 1.58524000e+08
6210.000000 1.56703000e+08
6230.000000 1.54912000e+08
6250.000000 1.53103000e+08
6270.000000 1.51390000e+08
6290.000000 1.49686000e+08
6310.000000 1.47972000e+08
6330.000000 1.46324000e+08
6350.000000 1.44525000e+08
6370.000000 1.42997000e+08
6390.000000 1.41448000e+08
6410.000000 1.39870000e+08
6430.000000 1.38336000e+08
6450.000000 1.36801000e+08
6470.000000 1.35218000e+08
6490.000000 1.33760000e+08
6510.000000 1.32317000e+08
6530.000000 1.30545000e+08
6550.000000 1.26017000e+08
6570.000000 1.12613000e+08
6590.000000 1.25403000e+08
6610.000000 1.25205000e+08
6630.000000 1.23920000e+08
6650.000000 1.22664000e+08
6670.000000 1.20329000e+08
6690.000000 1.19064000e+08
6710.000000 1.18774000e+08
6730.000000 1.17486000e+08
6750.000000 1.16262000e+08
6770.000000 1.15025000e+08
6790.000000 1.13662000e+08
6810.000000 1.12598000e+08
6830.000000 1.11414000e+08
6850.000000 1.10259000e+08
6870.000000 1.09107000e+08
6890.000000 1.07959000e+08
6910.000000 1.06838000e+08
6930.000000 1.05720000e+08
6950.000000 1.04636000e+08
6970.000000 1.03556000e+08
6990.000000 1.02479000e+08
7010.000000 1.01435000e+08
7030.000000 1.00401000e+08
7050.000000 9.93697000e+07
7070.000000 9.68487000e+07
7090.000000 9.73598000e+07
7110.000000 9.63657000e+07
7130.000000 9.53960000e+07
7150.000000 9.44357000e+07
7170.000000 9.34626000e+07
7190.000000 9.25498000e+07
7210.000000 9.16240000e+07
7230.000000 9.01448000e+07
7250.000000 8.97915000e+07
7270.000000 8.89132000e+07
7290.000000 8.73344000e+07
7310.000000 8.71462000e+07
7330.000000 8.62997000e+07
7350.000000 8.54541000e+07
7370.000000 8.46164000e+07
7390.000000 8.37865000e+07
7410.000000 8.29712000e+07
7430.000000 8.21566000e+07
7450.000000 8.13767000e+07
7470.000000 8.05634000e+07
7490.000000 7.98047000e+07
7510.000000 7.89995000e+07
7530.000000 7.82748000e+07
7550.000000 7.75235000e+07
7570.000000 7.67857000e+07
7590.000000 7.60481000e+07
7610.000000 7.53236000e+07
7630.000000 7.46057000e+07
7650.000000 7.39007000e+07
7670.000000 7.32020000e+07
7690.000000 7.25096000e+07
7710.000000 7.18234000e+07
7730.000000 7.11558000e+07
7750.000000 7.04817000e+07
7770.000000 6.97449000e+07
7790.000000 6.91762000e+07
7810.000000 6.84765000e+07
7830.000000 6.78998000e+07
7850.000000 6.73280000e+07
7870.000000 6.67004000e+07
7890.000000 6.60238000e+07
7910.000000 6.54916000e+07
7930.000000 6.47723000e+07
7950.000000 6.41309000e+07
7970.000000 6.35070000e+07
7990.000000 6.29416000e+07
8010.000000 6.23634000e+07
8030.000000 6.18078000e+07
8050.000000 6.12976000e+07
8070.000000 6.07859000e+07
8090.000000 6.01058000e+07
8110.000000 5.96379000e+07
8130.000000 5.91909000e+07
8150.000000 5.85491000e+07
8170.000000 5.81556000e+07
8190.000000 5.75517000e+07
8210.000000 5.68413000e+07
8230.000000 5.65153000e+07
8250.000000 5.60424000e+07
8270.000000 5.52318000e+07
8290.000000 5.49821000e+07
8310.000000 5.45192000e+07
8330.000000 5.40319000e+07
8350.000000 5.32897000e+07
8370.000000 5.29509000e+07
8390.000000 5.25661000e+07
8410.000000 5.20799000e+07
8430.000000 5.15431000e+07
8450.000000 5.07928000e+07
8470.000000 5.04215000e+07
8490.000000 5.02798000e+07
8510.000000 4.93030000e+07
8530.000000 4.96307000e+07
8550.000000 4.76987000e+07
8570.000000 4.95768000e+07
8590.000000 4.70835000e+07
8610.000000 4.68009000e+07
8630.000000 4.88737000e+07
8650.000000 4.73962000e+07
8670.000000 4.36896000e+07
8690.000000 4.77930000e+07
8710.000000 4.79785000e+07
8730.000000 4.64841000e+07
8750.000000 4.17189000e+07
8770.000000 4.52132000e+07
8790.000000 4.65397000e+07
8810.000000 4.61975000e+07
8830.000000 4.57141000e+07
8850.000000 4.30257000e+07
8870.000000 3.97535000e+07
8890.000000 4.42291000e+07
8910.000000 4.43264000e+07
8930.000000 4.39628000e+07
8950.000000 4.37721000e+07
8970.000000 4.33332000e+07
8990.000000 4.22555000e+07
9010.000000 3.78075000e+07
9030.000000 3.97738000e+07
9050.000000 4.17228000e+07
9070.000000 4.12518000e+07
9090.000000 4.11822000e+07
9110.000000 4.10084000e+07
9130.000000 4.07056000e+07
9150.000000 4.03748000e+07
9170.000000 3.99081000e+07
9190.000000 3.95415000e+07
9210.000000 3.80016000e+07
9230.000000 3.38474000e+07
9250.000000 3.75415000e+07
9270.000000 3.81956000e+07
9290.000000 3.81068000e+07
9310.000000 3.76573000e+07
9330.000000 3.75254000e+07
9350.000000 3.72116000e+07
9370.000000 3.69474000e+07
9390.000000 3.66539000e+07
9410.000000 3.63400000e+07
9430.000000 3.60758000e+07
9450.000000 3.57908000e+07
9470.000000 3.52886000e+07
9490.000000 3.51877000e+07
9510.000000 3.44809000e+07
9530.000000 3.31939000e+07
9550.000000 2.98831000e+07
9570.000000 3.33670000e+07
9590.000000 3.37183000e+07
9610.000000 3.34655000e+07
9630.000000 3.31597000e+07
9650.000000 3.30924000e+07
9670.000000 3.28364000e+07
9690.000000 3.25493000e+07
9710.000000 3.22292000e+07
9730.000000 3.20845000e+07
9750.000000 3.18381000e+07
9770.000000 3.15950000e+07
9790.000000 3.13536000e+07
9810.000000 3.11131000e+07
9830.000000 3.08775000e+07
9850.000000 3.06435000e+07
9870.000000 3.04104000e+07
9890.000000 3.01781000e+07
9910.000000 2.98992000e+07
9930.000000 2.97273000e+07
9950.000000 2.95036000e+07
9970.000000 2.92796000e+07
9990.000000 2.90372000e+07
10025.000000 2.76889000e+07
10075.000000 2.68146000e+07
10125.000000 2.75548000e+07
10175.000000 2.71274000e+07
10225.000000 2.66192000e+07
10275.000000 2.61488000e+07
10325.000000 2.55844000e+07
10375.000000 2.52135000e+07
10425.000000 2.47618000e+07
10475.000000 2.43200000e+07
10525.000000 2.38878000e+07
10575.000000 2.34657000e+07
10625.000000 2.30528000e+07
10675.000000 2.26023000e+07
10725.000000 2.22532000e+07
10775.000000 2.18667000e+07
10825.000000 2.12563000e+07
10875.000000 2.10810000e+07
10925.000000 1.93539000e+07
10975.000000 2.00734000e+07
11025.000000 1.99298000e+07
11075.000000 1.97057000e+07
11125.000000 1.93835000e+07
11175.000000 1.90581000e+07
11225.000000 1.87281000e+07
11275.000000 1.84240000e+07
11325.000000 1.81204000e+07
11375.000000 1.78234000e+07
11425.000000 1.75292000e+07
11475.000000 1.72435000e+07
11525.000000 1.69623000e+07
11575.000000 1.66859000e+07
11625.000000 1.64164000e+07
11675.000000 1.61525000e+07
11725.000000 1.58934000e+07
11775.000000 1.56383000e+07
11825.000000 1.53908000e+07
11875.000000 1.51469000e+07
11925.000000 1.49078000e+07
11975.000000 1.45568000e+07
12025.000000 1.44436000e+07
12075.000000 1.42183000e+07
12125.000000 1.39975000e+07
12175.000000 1.37808000e+07
12225.000000 1.35683000e+07
12275.000000 1.33599000e+07
12325.000000 1.31555000e+07
12375.000000 1.29550000e+07
12425.000000 1.27584000e+07
12475.000000 1.25646000e+07
12525.000000 1.23516000e+07
12575.000000 1.21898000e+07
12625.000000 1.20081000e+07
12675.000000 1.18293000e+07
12725.000000 1.16535000e+07
12775.000000 1.13178000e+07
12825.000000 1.05769000e+07
12875.000000 1.10995000e+07
12925.000000 1.09831000e+07
12975.000000 1.07569000e+07
13025.000000 1.06661000e+07
13075.000000 1.05119000e+07
