# Kurucz ODFNEW /NOVER, alpha: 0.0 (2003)
# teff = 22000 K (value for the effective temperature for the model. Temperatures are given in K)
# logg = 3.5 log(cm/s2) (value for Log(G) for the model.)
# lh = 1.25  (l/Hp where l is the  mixing length of the convective element and Hp is the pressure scale height)
# meta = -2.5  (value for the Metallicity for the model.)
# vtur = 2 km/s (Microturbulence velocity)
# alpha = 0  (Alpha)
#
# column 1: WAVELENGTH (ANGSTROM), Wavelength in Angstrom
# column 2: FLUX (ERG/CM2/S/A), Flux in erg/cm2/s/A
147.200000 2.01232000e-17
151.000000 1.22311000e-16
155.200000 8.09075000e-16
158.800000 3.76544000e-15
162.000000 1.39261000e-14
166.000000 6.63843000e-14
170.300000 3.26952000e-13
173.400000 9.80829000e-13
176.800000 3.12561000e-12
180.200000 9.51881000e-12
181.700000 1.53454000e-11
186.100000 5.94629000e-11
191.000000 2.48967000e-10
193.900000 5.60747000e-10
198.400000 1.88199000e-09
201.800000 4.52557000e-09
205.000000 1.00509000e-08
210.500000 3.73292000e-08
216.200000 1.35056000e-07
219.800000 2.93448000e-07
223.000000 5.72136000e-07
226.800000 1.23210000e-06
230.000000 3.45729000e-06
234.000000 7.77457000e-06
240.000000 2.22650000e-05
246.500000 6.56028000e-05
252.400000 1.67195000e-04
256.800000 3.21098000e-04
260.000000 5.19457000e-04
264.000000 9.17986000e-04
268.500000 1.70424000e-03
273.500000 3.30510000e-03
278.500000 6.25792000e-03
284.000000 1.22861000e-02
290.000000 2.48682000e-02
296.000000 4.88111000e-02
301.000000 8.38110000e-02
308.000000 1.71816000e-01
318.000000 4.60872000e-01
328.000000 1.15049000e+00
338.000000 2.71052000e+00
348.000000 6.05889000e+00
357.000000 1.19877000e+01
366.000000 2.28879000e+01
375.000000 4.22366000e+01
385.000000 8.04621000e+01
395.000000 1.47908000e+02
405.000000 2.63142000e+02
414.000000 4.30611000e+02
422.000000 6.54227000e+02
430.000000 9.76990000e+02
441.000000 1.65258000e+03
451.000000 2.59949000e+03
460.000000 3.83530000e+03
470.000000 5.79488000e+03
480.000000 8.58793000e+03
490.000000 1.25014000e+04
500.000000 1.78901000e+04
506.000000 1.11390000e+05
512.000000 3.20892000e+05
520.000000 4.03842000e+05
530.000000 5.79512000e+05
540.000000 6.33980000e+05
550.000000 9.11274000e+05
560.000000 1.10896000e+06
570.000000 1.35746000e+06
580.000000 1.37332000e+06
590.000000 1.82477000e+06
600.000000 2.31479000e+06
610.000000 2.74969000e+06
620.000000 3.21563000e+06
630.000000 3.75828000e+06
640.000000 4.30811000e+06
650.000000 5.00662000e+06
658.000000 5.61922000e+06
665.000000 6.16730000e+06
675.000000 6.94414000e+06
685.000000 7.84988000e+06
695.000000 9.02232000e+06
705.000000 1.01121000e+07
716.000000 1.14528000e+07
726.000000 1.27519000e+07
735.000000 1.41166000e+07
745.000000 1.56977000e+07
755.000000 1.73665000e+07
765.000000 1.91247000e+07
775.000000 2.10511000e+07
785.000000 2.30760000e+07
795.000000 2.51856000e+07
805.000000 2.74490000e+07
815.000000 2.97878000e+07
825.000000 3.23557000e+07
835.000000 3.46004000e+07
845.000000 3.76875000e+07
855.000000 4.04452000e+07
865.000000 4.36260000e+07
875.000000 4.68633000e+07
885.000000 5.01969000e+07
895.000000 5.36058000e+07
905.000000 5.66089000e+07
915.000000 1.08772000e+08
925.000000 1.22658000e+09
935.000000 3.96085000e+09
945.000000 1.03355000e+10
955.000000 1.30080000e+10
965.000000 1.62440000e+10
975.000000 7.32396000e+09
985.000000 1.71547000e+10
995.000000 1.65540000e+10
1005.000000 1.70628000e+10
1015.000000 1.58184000e+10
1025.000000 6.50888000e+09
1035.000000 1.45156000e+10
1045.000000 1.67178000e+10
1055.000000 1.63320000e+10
1065.000000 1.52658000e+10
1075.000000 1.56602000e+10
1085.000000 1.47216000e+10
1095.000000 1.53466000e+10
1105.000000 1.47745000e+10
1115.000000 1.46113000e+10
1125.000000 1.39009000e+10
1135.000000 1.41632000e+10
1145.000000 1.36637000e+10
1155.000000 1.37927000e+10
1165.000000 1.35886000e+10
1175.000000 1.21716000e+10
1185.000000 1.30428000e+10
1195.000000 1.23102000e+10
1205.000000 1.09984000e+10
1215.000000 4.35572000e+09
1225.000000 1.08970000e+10
1235.000000 1.18216000e+10
1245.000000 1.16638000e+10
1255.000000 1.15265000e+10
1265.000000 1.12610000e+10
1275.000000 1.12361000e+10
1285.000000 1.10352000e+10
1295.000000 1.03701000e+10
1305.000000 1.03786000e+10
1315.000000 1.04743000e+10
1325.000000 1.01610000e+10
1335.000000 9.80831000e+09
1345.000000 9.90999000e+09
1355.000000 9.79791000e+09
1365.000000 9.59321000e+09
1375.000000 9.43066000e+09
1385.000000 9.28908000e+09
1395.000000 8.94034000e+09
1405.000000 8.85990000e+09
1415.000000 8.81188000e+09
1425.000000 8.68474000e+09
1435.000000 8.55918000e+09
1442.000000 8.47701000e+09
1447.000000 8.40162000e+09
1455.000000 8.28742000e+09
1465.000000 8.14184000e+09
1475.000000 8.01277000e+09
1485.000000 7.87874000e+09
1495.000000 7.75127000e+09
1505.000000 7.58640000e+09
1512.000000 7.49358000e+09
1517.000000 7.45146000e+09
1525.000000 7.34935000e+09
1535.000000 7.13399000e+09
1545.000000 7.06183000e+09
1555.000000 6.90959000e+09
1565.000000 6.89264000e+09
1575.000000 6.80767000e+09
1585.000000 6.70299000e+09
1595.000000 6.60647000e+09
1605.000000 6.43724000e+09
1615.000000 6.33639000e+09
1625.000000 6.29018000e+09
1635.000000 6.20966000e+09
1645.000000 6.04905000e+09
1655.000000 6.02211000e+09
1665.000000 5.94374000e+09
1672.000000 5.83869000e+09
1677.000000 5.84934000e+09
1685.000000 5.77376000e+09
1695.000000 5.67187000e+09
1705.000000 5.57586000e+09
1715.000000 5.47183000e+09
1725.000000 5.40389000e+09
1735.000000 5.33502000e+09
1745.000000 5.25066000e+09
1755.000000 5.19308000e+09
1765.000000 5.05011000e+09
1775.000000 5.01501000e+09
1785.000000 4.96323000e+09
1795.000000 4.89967000e+09
1805.000000 4.83859000e+09
1815.000000 4.75260000e+09
1825.000000 4.69149000e+09
1835.000000 4.62528000e+09
1845.000000 4.50899000e+09
1855.000000 4.39153000e+09
1865.000000 4.36200000e+09
1875.000000 4.35728000e+09
1885.000000 4.22710000e+09
1895.000000 4.12333000e+09
1905.000000 4.15033000e+09
1915.000000 4.03539000e+09
1925.000000 3.97710000e+09
1935.000000 3.96277000e+09
1945.000000 3.93995000e+09
1955.000000 3.81586000e+09
1967.000000 3.82300000e+09
1976.000000 3.80244000e+09
1984.000000 3.72398000e+09
1995.000000 3.62860000e+09
2005.000000 3.64123000e+09
2015.000000 3.61195000e+09
2025.000000 3.57489000e+09
2035.000000 3.50864000e+09
2045.000000 3.46234000e+09
2055.000000 3.38492000e+09
2065.000000 3.34224000e+09
2074.000000 3.35656000e+09
2078.000000 3.28999000e+09
2085.000000 3.28770000e+09
2095.000000 3.22179000e+09
2105.000000 3.20894000e+09
2115.000000 3.17741000e+09
2125.000000 3.14599000e+09
2135.000000 3.10369000e+09
2145.000000 3.05762000e+09
2155.000000 3.02607000e+09
2165.000000 2.98958000e+09
2175.000000 2.95029000e+09
2185.000000 2.91569000e+09
2195.000000 2.88121000e+09
2205.000000 2.84514000e+09
2215.000000 2.81044000e+09
2225.000000 2.77443000e+09
2235.000000 2.74016000e+09
2245.000000 2.70922000e+09
2255.000000 2.67458000e+09
2265.000000 2.64411000e+09
2275.000000 2.61211000e+09
2285.000000 2.58158000e+09
2295.000000 2.53374000e+09
2305.000000 2.51981000e+09
2315.000000 2.48853000e+09
2325.000000 2.45943000e+09
2335.000000 2.42846000e+09
2345.000000 2.39985000e+09
2355.000000 2.37421000e+09
2365.000000 2.34535000e+09
2375.000000 2.31817000e+09
2385.000000 2.28989000e+09
2395.000000 2.26391000e+09
2405.000000 2.23816000e+09
2415.000000 2.21139000e+09
2425.000000 2.18832000e+09
2435.000000 2.16232000e+09
2445.000000 2.13792000e+09
2455.000000 2.11441000e+09
2465.000000 2.08985000e+09
2475.000000 2.06648000e+09
2485.000000 2.04293000e+09
2495.000000 2.00213000e+09
2505.000000 1.99705000e+09
2513.000000 1.97415000e+09
2518.000000 1.96804000e+09
2525.000000 1.95254000e+09
2535.000000 1.93060000e+09
2545.000000 1.90708000e+09
2555.000000 1.88895000e+09
2565.000000 1.86778000e+09
2575.000000 1.84813000e+09
2585.000000 1.82788000e+09
2595.000000 1.80789000e+09
2605.000000 1.80281000e+09
2615.000000 1.78359000e+09
2625.000000 1.76287000e+09
2635.000000 1.73899000e+09
2645.000000 1.72199000e+09
2655.000000 1.70134000e+09
2665.000000 1.68117000e+09
2675.000000 1.66252000e+09
2685.000000 1.65470000e+09
2695.000000 1.62554000e+09
2705.000000 1.61967000e+09
2715.000000 1.60249000e+09
2725.000000 1.57371000e+09
2735.000000 1.56897000e+09
2745.000000 1.55101000e+09
2755.000000 1.53520000e+09
2765.000000 1.50786000e+09
2775.000000 1.50464000e+09
2785.000000 1.48895000e+09
2795.000000 1.46558000e+09
2805.000000 1.45597000e+09
2815.000000 1.44360000e+09
2825.000000 1.41536000e+09
2835.000000 1.40722000e+09
2845.000000 1.39981000e+09
2855.000000 1.38559000e+09
2865.000000 1.37167000e+09
2875.000000 1.35781000e+09
2885.000000 1.34416000e+09
2895.000000 1.33066000e+09
2910.000000 1.31066000e+09
2930.000000 1.28462000e+09
2950.000000 1.25142000e+09
2970.000000 1.23475000e+09
2990.000000 1.21058000e+09
3010.000000 1.18714000e+09
3030.000000 1.16438000e+09
3050.000000 1.14203000e+09
3070.000000 1.12025000e+09
3090.000000 1.09881000e+09
3110.000000 1.07826000e+09
3130.000000 1.05929000e+09
3150.000000 1.03935000e+09
3170.000000 1.01957000e+09
3190.000000 9.93051000e+08
3210.000000 9.82214000e+08
3230.000000 9.64094000e+08
3250.000000 9.46344000e+08
3270.000000 9.30294000e+08
3290.000000 9.12196000e+08
3310.000000 8.97148000e+08
3330.000000 8.81138000e+08
3350.000000 8.63901000e+08
3370.000000 8.50161000e+08
3390.000000 8.35210000e+08
3410.000000 8.20614000e+08
3430.000000 8.02522000e+08
3450.000000 7.85775000e+08
3470.000000 7.74615000e+08
3490.000000 7.61587000e+08
3510.000000 7.52444000e+08
3530.000000 7.40283000e+08
3550.000000 7.28050000e+08
3570.000000 7.18821000e+08
3590.000000 7.03264000e+08
3610.000000 6.92400000e+08
3630.000000 6.79902000e+08
3640.000000 6.78133000e+08
3650.000000 6.71397000e+08
3670.000000 6.62897000e+08
3690.000000 6.43446000e+08
3710.000000 6.30259000e+08
3730.000000 6.20188000e+08
3750.000000 6.82654000e+08
3770.000000 6.88922000e+08
3790.000000 7.18388000e+08
3810.000000 7.48315000e+08
3830.000000 6.57079000e+08
3850.000000 7.63574000e+08
3870.000000 7.59828000e+08
3890.000000 6.26907000e+08
3910.000000 7.46357000e+08
3930.000000 7.32243000e+08
3950.000000 7.22263000e+08
3970.000000 5.82320000e+08
3990.000000 6.95525000e+08
4010.000000 6.85957000e+08
4030.000000 6.52791000e+08
4050.000000 6.70040000e+08
4070.000000 6.57262000e+08
4090.000000 6.18037000e+08
4110.000000 5.42387000e+08
4130.000000 6.18404000e+08
4150.000000 6.11276000e+08
4170.000000 6.05015000e+08
4190.000000 5.96978000e+08
4210.000000 5.87409000e+08
4230.000000 5.77972000e+08
4250.000000 5.68708000e+08
4270.000000 5.59178000e+08
4290.000000 5.50783000e+08
4310.000000 5.40369000e+08
4330.000000 5.00205000e+08
4350.000000 4.56714000e+08
4370.000000 5.14664000e+08
4390.000000 4.97631000e+08
4410.000000 5.01070000e+08
4430.000000 4.91181000e+08
4450.000000 4.85844000e+08
4470.000000 4.61671000e+08
4490.000000 4.70984000e+08
4510.000000 4.63982000e+08
4530.000000 4.56957000e+08
4550.000000 4.50037000e+08
4570.000000 4.43275000e+08
4590.000000 4.36666000e+08
4610.000000 4.30174000e+08
4630.000000 4.23794000e+08
4650.000000 4.17403000e+08
4670.000000 4.11366000e+08
4690.000000 4.05279000e+08
4710.000000 3.94746000e+08
4730.000000 3.93536000e+08
4750.000000 3.87741000e+08
4770.000000 3.82294000e+08
4790.000000 3.76793000e+08
4810.000000 3.71338000e+08
4830.000000 3.64733000e+08
4850.000000 3.42640000e+08
4870.000000 3.06792000e+08
4890.000000 3.48700000e+08
4910.000000 3.45490000e+08
4930.000000 3.34121000e+08
4950.000000 3.36101000e+08
4970.000000 3.31418000e+08
4990.000000 3.26815000e+08
5010.000000 3.18703000e+08
5030.000000 3.17826000e+08
5050.000000 3.11621000e+08
5070.000000 3.09152000e+08
5090.000000 3.04925000e+08
5110.000000 3.00782000e+08
5130.000000 2.96695000e+08
5150.000000 2.92676000e+08
5170.000000 2.88739000e+08
5190.000000 2.84854000e+08
5210.000000 2.81033000e+08
5230.000000 2.77290000e+08
5250.000000 2.73610000e+08
5270.000000 2.69977000e+08
5290.000000 2.66405000e+08
5310.000000 2.62905000e+08
5330.000000 2.59451000e+08
5350.000000 2.56054000e+08
5370.000000 2.52726000e+08
5390.000000 2.49440000e+08
5410.000000 2.46209000e+08
5430.000000 2.43032000e+08
5450.000000 2.39907000e+08
5470.000000 2.36821000e+08
5490.000000 2.33799000e+08
5510.000000 2.30827000e+08
5530.000000 2.27891000e+08
5550.000000 2.25004000e+08
5570.000000 2.22165000e+08
5590.000000 2.19372000e+08
5610.000000 2.16626000e+08
5630.000000 2.13913000e+08
5650.000000 2.11245000e+08
5670.000000 2.08620000e+08
5690.000000 2.06028000e+08
5710.000000 2.03501000e+08
5730.000000 2.01004000e+08
5750.000000 1.98537000e+08
5770.000000 1.96111000e+08
5790.000000 1.93713000e+08
5810.000000 1.91366000e+08
5830.000000 1.89047000e+08
5850.000000 1.86766000e+08
5870.000000 1.79569000e+08
5890.000000 1.82185000e+08
5910.000000 1.80113000e+08
5930.000000 1.77968000e+08
5950.000000 1.75848000e+08
5970.000000 1.73763000e+08
5990.000000 1.71712000e+08
6010.000000 1.69684000e+08
6030.000000 1.67690000e+08
6050.000000 1.65729000e+08
6070.000000 1.63790000e+08
6090.000000 1.61883000e+08
6110.000000 1.60008000e+08
6130.000000 1.58153000e+08
6150.000000 1.56329000e+08
6170.000000 1.54526000e+08
6190.000000 1.52752000e+08
6210.000000 1.51008000e+08
6230.000000 1.49283000e+08
6250.000000 1.47586000e+08
6270.000000 1.45908000e+08
6290.000000 1.44258000e+08
6310.000000 1.42636000e+08
6330.000000 1.41031000e+08
6350.000000 1.39443000e+08
6370.000000 1.37882000e+08
6390.000000 1.36346000e+08
6410.000000 1.34837000e+08
6430.000000 1.33343000e+08
6450.000000 1.31865000e+08
6470.000000 1.30413000e+08
6490.000000 1.28975000e+08
6510.000000 1.27561000e+08
6530.000000 1.25854000e+08
6550.000000 1.21398000e+08
6570.000000 1.08433000e+08
6590.000000 1.21300000e+08
6610.000000 1.20730000e+08
6630.000000 1.19472000e+08
6650.000000 1.18277000e+08
6670.000000 1.16002000e+08
6690.000000 1.14788000e+08
6710.000000 1.14523000e+08
6730.000000 1.13303000e+08
6750.000000 1.12103000e+08
6770.000000 1.10916000e+08
6790.000000 1.09748000e+08
6810.000000 1.08593000e+08
6830.000000 1.07449000e+08
6850.000000 1.06325000e+08
6870.000000 1.05212000e+08
6890.000000 1.04118000e+08
6910.000000 1.03035000e+08
6930.000000 1.01962000e+08
6950.000000 1.00916000e+08
6970.000000 9.98803000e+07
6990.000000 9.88392000e+07
7010.000000 9.78391000e+07
7030.000000 9.68334000e+07
7050.000000 9.58451000e+07
7070.000000 9.33893000e+07
7090.000000 9.39124000e+07
7110.000000 9.29600000e+07
7130.000000 9.20242000e+07
7150.000000 9.10974000e+07
7170.000000 9.01576000e+07
7190.000000 8.92778000e+07
7210.000000 8.83846000e+07
7230.000000 8.74638000e+07
7250.000000 8.66307000e+07
7270.000000 8.57770000e+07
7290.000000 8.42436000e+07
7310.000000 8.40723000e+07
7330.000000 8.32636000e+07
7350.000000 8.24415000e+07
7370.000000 8.16340000e+07
7390.000000 8.08409000e+07
7410.000000 8.00483000e+07
7430.000000 7.92699000e+07
7450.000000 7.85191000e+07
7470.000000 7.77549000e+07
7490.000000 7.70044000e+07
7510.000000 7.62341000e+07
7530.000000 7.55307000e+07
7550.000000 7.48073000e+07
7570.000000 7.40904000e+07
7590.000000 7.33865000e+07
7610.000000 7.26890000e+07
7630.000000 7.19978000e+07
7650.000000 7.13193000e+07
7670.000000 7.06469000e+07
7690.000000 6.99805000e+07
7710.000000 6.93137000e+07
7730.000000 6.86718000e+07
7750.000000 6.80230000e+07
7770.000000 6.73925000e+07
7790.000000 6.67675000e+07
7810.000000 6.60924000e+07
7830.000000 6.55340000e+07
7850.000000 6.50049000e+07
7870.000000 6.44012000e+07
7890.000000 6.37725000e+07
7910.000000 6.32277000e+07
7930.000000 6.25437000e+07
7950.000000 6.19195000e+07
7970.000000 6.13126000e+07
7990.000000 6.07818000e+07
8010.000000 6.02026000e+07
8030.000000 5.96811000e+07
8050.000000 5.91814000e+07
8070.000000 5.86860000e+07
8090.000000 5.80336000e+07
8110.000000 5.75873000e+07
8130.000000 5.71561000e+07
8150.000000 5.65277000e+07
8170.000000 5.61503000e+07
8190.000000 5.55753000e+07
8210.000000 5.49857000e+07
8230.000000 5.46843000e+07
8250.000000 5.42120000e+07
8270.000000 5.34383000e+07
8290.000000 5.31885000e+07
8310.000000 5.27418000e+07
8330.000000 5.22684000e+07
8350.000000 5.15466000e+07
8370.000000 5.12221000e+07
8390.000000 5.08460000e+07
8410.000000 5.03722000e+07
8430.000000 4.98514000e+07
8450.000000 4.91520000e+07
8470.000000 4.87426000e+07
8490.000000 4.86502000e+07
8510.000000 4.76508000e+07
8530.000000 4.80386000e+07
8550.000000 4.60609000e+07
8570.000000 4.80190000e+07
8590.000000 4.55135000e+07
8610.000000 4.52271000e+07
8630.000000 4.73708000e+07
8650.000000 4.59029000e+07
8670.000000 4.21330000e+07
8690.000000 4.63408000e+07
8710.000000 4.65409000e+07
8730.000000 4.50585000e+07
8750.000000 4.02225000e+07
8770.000000 4.37976000e+07
8790.000000 4.51525000e+07
8810.000000 4.48191000e+07
8830.000000 4.43539000e+07
8850.000000 4.16544000e+07
8870.000000 3.83424000e+07
8890.000000 4.28930000e+07
8910.000000 4.30072000e+07
8930.000000 4.26584000e+07
8950.000000 4.24637000e+07
8970.000000 4.20447000e+07
8990.000000 4.09792000e+07
9010.000000 3.64923000e+07
9030.000000 3.84871000e+07
9050.000000 4.04762000e+07
9070.000000 4.00232000e+07
9090.000000 3.99690000e+07
9110.000000 3.97946000e+07
9130.000000 3.95029000e+07
9150.000000 3.91815000e+07
9170.000000 3.87182000e+07
9190.000000 3.83674000e+07
9210.000000 3.68366000e+07
9230.000000 3.26517000e+07
9250.000000 3.63998000e+07
9270.000000 3.71114000e+07
9290.000000 3.69802000e+07
9310.000000 3.65472000e+07
9330.000000 3.64322000e+07
9350.000000 3.61115000e+07
9370.000000 3.58549000e+07
9390.000000 3.55703000e+07
9410.000000 3.52874000e+07
9430.000000 3.50091000e+07
9450.000000 3.47328000e+07
9470.000000 3.42409000e+07
9490.000000 3.41407000e+07
9510.000000 3.34507000e+07
9530.000000 3.21644000e+07
9550.000000 2.88190000e+07
9570.000000 3.23527000e+07
9590.000000 3.27168000e+07
9610.000000 3.24759000e+07
9630.000000 3.21957000e+07
9650.000000 3.21146000e+07
9670.000000 3.18667000e+07
9690.000000 3.15872000e+07
9710.000000 3.12762000e+07
9730.000000 3.11370000e+07
9750.000000 3.08985000e+07
9770.000000 3.06620000e+07
9790.000000 3.04279000e+07
9810.000000 3.01963000e+07
9830.000000 2.99668000e+07
9850.000000 2.97392000e+07
9870.000000 2.95140000e+07
9890.000000 2.92907000e+07
9910.000000 2.90664000e+07
9930.000000 2.88505000e+07
9950.000000 2.86338000e+07
9970.000000 2.84186000e+07
9990.000000 2.81750000e+07
10025.000000 2.68372000e+07
10075.000000 2.59814000e+07
10125.000000 2.67444000e+07
10175.000000 2.63287000e+07
10225.000000 2.58354000e+07
10275.000000 2.53794000e+07
10325.000000 2.48307000e+07
10375.000000 2.44722000e+07
10425.000000 2.40339000e+07
10475.000000 2.36055000e+07
10525.000000 2.31862000e+07
10575.000000 2.27768000e+07
10625.000000 2.23760000e+07
10675.000000 2.19398000e+07
10725.000000 2.16005000e+07
10775.000000 2.12256000e+07
10825.000000 2.06255000e+07
10875.000000 2.04617000e+07
10925.000000 1.87349000e+07
10975.000000 1.94722000e+07
11025.000000 1.93444000e+07
11075.000000 1.91286000e+07
11125.000000 1.88161000e+07
11175.000000 1.85003000e+07
11225.000000 1.81798000e+07
11275.000000 1.78885000e+07
11325.000000 1.75923000e+07
11375.000000 1.73020000e+07
11425.000000 1.70175000e+07
11475.000000 1.67391000e+07
11525.000000 1.64665000e+07
11575.000000 1.61992000e+07
11625.000000 1.59375000e+07
11675.000000 1.56807000e+07
11725.000000 1.54295000e+07
11775.000000 1.51832000e+07
11825.000000 1.49417000e+07
11875.000000 1.47050000e+07
11925.000000 1.44730000e+07
11975.000000 1.41307000e+07
12025.000000 1.40226000e+07
12075.000000 1.38041000e+07
12125.000000 1.35898000e+07
12175.000000 1.33795000e+07
12225.000000 1.31732000e+07
12275.000000 1.29711000e+07
12325.000000 1.27726000e+07
12375.000000 1.25781000e+07
12425.000000 1.23873000e+07
12475.000000 1.22001000e+07
12525.000000 1.19921000e+07
12575.000000 1.18360000e+07
12625.000000 1.16592000e+07
12675.000000 1.14856000e+07
12725.000000 1.13150000e+07
12775.000000 1.09849000e+07
12825.000000 1.02391000e+07
12875.000000 1.07736000e+07
12925.000000 1.06644000e+07
12975.000000 1.04441000e+07
13025.000000 1.03570000e+07
13075.000000 1.02072000e+07
