# Kurucz ODFNEW /NOVER, alpha: 0.0 (2003)
# teff = 26000 K (value for the effective temperature for the model. Temperatures are given in K)
# logg = 3.5 log(cm/s2) (value for Log(G) for the model.)
# lh = 1.25  (l/Hp where l is the  mixing length of the convective element and Hp is the pressure scale height)
# meta = -0.5  (value for the Metallicity for the model.)
# vtur = 2 km/s (Microturbulence velocity)
# alpha = 0  (Alpha)
#
# column 1: WAVELENGTH (ANGSTROM), Wavelength in Angstrom
# column 2: FLUX (ERG/CM2/S/A), Flux in erg/cm2/s/A
147.200000 4.41184000e-13
151.000000 1.86126000e-12
155.200000 8.46392000e-12
158.800000 2.92032000e-11
162.000000 8.40736000e-11
166.000000 2.98433000e-10
170.300000 1.09198000e-09
173.400000 2.67729000e-09
176.800000 6.90661000e-09
180.200000 1.71983000e-08
181.700000 2.54417000e-08
186.100000 7.74601000e-08
191.000000 2.52034000e-07
193.900000 4.92490000e-07
198.400000 1.33904000e-06
201.800000 2.76678000e-06
205.000000 5.35695000e-06
210.500000 1.59040000e-05
216.200000 4.62747000e-05
219.800000 8.82247000e-05
223.000000 1.53778000e-04
226.800000 2.91814000e-04
230.000000 6.60494000e-02
234.000000 1.53255000e-01
240.000000 3.25459000e-01
246.500000 7.25841000e-01
252.400000 1.45681000e+00
256.800000 2.16299000e+00
260.000000 3.57135000e+00
264.000000 5.37689000e+00
268.500000 8.61502000e+00
273.500000 1.40333000e+01
278.500000 2.22141000e+01
284.000000 4.00658000e+01
290.000000 6.66511000e+01
296.000000 1.08574000e+02
301.000000 1.56674000e+02
308.000000 2.66039000e+02
318.000000 6.16222000e+02
328.000000 1.16793000e+03
338.000000 2.28081000e+03
348.000000 4.14202000e+03
357.000000 1.20540000e+04
366.000000 2.15445000e+04
375.000000 3.15555000e+04
385.000000 5.07508000e+04
395.000000 8.44222000e+04
405.000000 1.23202000e+05
414.000000 1.76561000e+05
422.000000 2.28089000e+05
430.000000 3.08637000e+05
441.000000 4.43635000e+05
451.000000 5.96226000e+05
460.000000 7.63304000e+05
470.000000 1.03332000e+06
480.000000 1.35000000e+06
490.000000 1.76518000e+06
500.000000 2.26550000e+06
506.000000 1.33001000e+07
512.000000 6.07610000e+07
520.000000 6.47448000e+07
530.000000 7.13613000e+07
540.000000 7.21638000e+07
550.000000 9.78102000e+07
560.000000 1.14442000e+08
570.000000 1.30365000e+08
580.000000 1.24666000e+08
590.000000 1.54469000e+08
600.000000 1.64840000e+08
610.000000 1.89053000e+08
620.000000 2.10847000e+08
630.000000 2.23646000e+08
640.000000 2.20473000e+08
650.000000 2.06537000e+08
658.000000 2.55171000e+08
665.000000 2.84772000e+08
675.000000 2.93413000e+08
685.000000 2.94872000e+08
695.000000 3.62694000e+08
705.000000 3.59861000e+08
716.000000 4.07765000e+08
726.000000 4.18345000e+08
735.000000 4.32019000e+08
745.000000 4.78201000e+08
755.000000 5.00427000e+08
765.000000 5.30411000e+08
775.000000 5.61345000e+08
785.000000 5.97106000e+08
795.000000 6.16453000e+08
805.000000 6.35009000e+08
815.000000 6.46349000e+08
825.000000 6.95368000e+08
835.000000 6.33317000e+08
845.000000 7.17449000e+08
855.000000 7.33798000e+08
865.000000 7.72818000e+08
875.000000 8.14892000e+08
885.000000 8.64064000e+08
895.000000 8.96127000e+08
905.000000 9.01133000e+08
915.000000 1.39955000e+09
925.000000 1.07750000e+10
935.000000 2.01714000e+10
945.000000 2.97072000e+10
955.000000 3.23594000e+10
965.000000 3.58421000e+10
975.000000 1.12259000e+10
985.000000 3.02774000e+10
995.000000 2.91532000e+10
1005.000000 3.19597000e+10
1015.000000 3.23935000e+10
1025.000000 2.27883000e+10
1035.000000 2.82653000e+10
1045.000000 3.59679000e+10
1055.000000 3.36957000e+10
1065.000000 2.91519000e+10
1075.000000 3.18140000e+10
1085.000000 2.90583000e+10
1095.000000 3.17056000e+10
1105.000000 2.97598000e+10
1115.000000 2.93765000e+10
1125.000000 2.48679000e+10
1135.000000 2.92675000e+10
1145.000000 2.71823000e+10
1155.000000 2.75081000e+10
1165.000000 2.71539000e+10
1175.000000 1.82465000e+10
1185.000000 2.53704000e+10
1195.000000 2.43298000e+10
1205.000000 2.02216000e+10
1215.000000 1.61795000e+10
1225.000000 2.29255000e+10
1235.000000 2.43521000e+10
1245.000000 2.35493000e+10
1255.000000 2.33961000e+10
1265.000000 2.35098000e+10
1275.000000 2.38627000e+10
1285.000000 2.35133000e+10
1295.000000 1.97920000e+10
1305.000000 2.07041000e+10
1315.000000 2.26618000e+10
1325.000000 2.15507000e+10
1335.000000 2.08862000e+10
1345.000000 2.08729000e+10
1355.000000 2.07568000e+10
1365.000000 1.97236000e+10
1375.000000 1.92533000e+10
1385.000000 1.88786000e+10
1395.000000 1.47321000e+10
1405.000000 1.55995000e+10
1415.000000 1.73378000e+10
1425.000000 1.65239000e+10
1435.000000 1.70121000e+10
1442.000000 1.72292000e+10
1447.000000 1.69241000e+10
1455.000000 1.64310000e+10
1465.000000 1.56644000e+10
1475.000000 1.57225000e+10
1485.000000 1.55446000e+10
1495.000000 1.51744000e+10
1505.000000 1.42850000e+10
1512.000000 1.31989000e+10
1517.000000 1.35059000e+10
1525.000000 1.35424000e+10
1535.000000 1.18391000e+10
1545.000000 1.15132000e+10
1555.000000 1.10732000e+10
1565.000000 1.18806000e+10
1575.000000 1.24415000e+10
1585.000000 1.23489000e+10
1595.000000 1.22542000e+10
1605.000000 1.18732000e+10
1615.000000 1.15257000e+10
1625.000000 1.15399000e+10
1635.000000 1.18865000e+10
1645.000000 1.17057000e+10
1655.000000 1.16954000e+10
1665.000000 1.16219000e+10
1672.000000 1.11580000e+10
1677.000000 1.20878000e+10
1685.000000 1.16198000e+10
1695.000000 1.11263000e+10
1705.000000 1.08434000e+10
1715.000000 1.03673000e+10
1725.000000 1.01880000e+10
1735.000000 1.04038000e+10
1745.000000 1.02134000e+10
1755.000000 1.01938000e+10
1765.000000 1.00314000e+10
1775.000000 9.56942000e+09
1785.000000 9.66090000e+09
1795.000000 9.69901000e+09
1805.000000 9.71742000e+09
1815.000000 9.01207000e+09
1825.000000 9.17260000e+09
1835.000000 8.98552000e+09
1845.000000 8.25644000e+09
1855.000000 8.35258000e+09
1865.000000 8.46167000e+09
1875.000000 8.55736000e+09
1885.000000 7.77511000e+09
1895.000000 7.28632000e+09
1905.000000 7.74496000e+09
1915.000000 7.42225000e+09
1925.000000 7.05936000e+09
1935.000000 7.42658000e+09
1945.000000 7.57377000e+09
1955.000000 6.86181000e+09
1967.000000 7.29683000e+09
1976.000000 7.59436000e+09
1984.000000 7.08848000e+09
1995.000000 6.93831000e+09
2005.000000 7.07985000e+09
2015.000000 7.06709000e+09
2025.000000 7.17891000e+09
2035.000000 6.65013000e+09
2045.000000 6.67605000e+09
2055.000000 6.26957000e+09
2065.000000 6.23691000e+09
2074.000000 6.55503000e+09
2078.000000 6.11358000e+09
2085.000000 6.34592000e+09
2095.000000 6.11510000e+09
2105.000000 6.28695000e+09
2115.000000 6.26748000e+09
2125.000000 6.31767000e+09
2135.000000 6.20184000e+09
2145.000000 5.92832000e+09
2155.000000 6.08126000e+09
2165.000000 6.01557000e+09
2175.000000 5.93115000e+09
2185.000000 5.80873000e+09
2195.000000 5.82231000e+09
2205.000000 5.76326000e+09
2215.000000 5.68347000e+09
2225.000000 5.56180000e+09
2235.000000 5.45747000e+09
2245.000000 5.46442000e+09
2255.000000 5.34027000e+09
2265.000000 5.32964000e+09
2275.000000 5.26419000e+09
2285.000000 5.21518000e+09
2295.000000 4.85833000e+09
2305.000000 5.05026000e+09
2315.000000 4.94873000e+09
2325.000000 4.88786000e+09
2335.000000 4.79212000e+09
2345.000000 4.80121000e+09
2355.000000 4.74652000e+09
2365.000000 4.69387000e+09
2375.000000 4.60621000e+09
2385.000000 4.55289000e+09
2395.000000 4.49229000e+09
2405.000000 4.43906000e+09
2415.000000 4.37569000e+09
2425.000000 4.34724000e+09
2435.000000 4.25538000e+09
2445.000000 4.22889000e+09
2455.000000 4.19907000e+09
2465.000000 4.14170000e+09
2475.000000 4.07884000e+09
2485.000000 4.01082000e+09
2495.000000 3.49150000e+09
2505.000000 3.88753000e+09
2513.000000 3.76308000e+09
2518.000000 3.84096000e+09
2525.000000 3.83145000e+09
2535.000000 3.79173000e+09
2545.000000 3.68608000e+09
2555.000000 3.67777000e+09
2565.000000 3.64274000e+09
2575.000000 3.61319000e+09
2585.000000 3.56748000e+09
2595.000000 3.52851000e+09
2605.000000 3.50119000e+09
2615.000000 3.45353000e+09
2625.000000 3.41978000e+09
2635.000000 3.37933000e+09
2645.000000 3.33396000e+09
2655.000000 3.30119000e+09
2665.000000 3.22735000e+09
2675.000000 3.20279000e+09
2685.000000 3.19047000e+09
2695.000000 3.10195000e+09
2705.000000 3.07633000e+09
2715.000000 3.05545000e+09
2725.000000 3.01957000e+09
2735.000000 2.99345000e+09
2745.000000 2.95358000e+09
2755.000000 2.92945000e+09
2765.000000 2.88085000e+09
2775.000000 2.87769000e+09
2785.000000 2.83641000e+09
2795.000000 2.75491000e+09
2805.000000 2.76010000e+09
2815.000000 2.74999000e+09
2825.000000 2.70403000e+09
2835.000000 2.64336000e+09
2845.000000 2.65720000e+09
2855.000000 2.61662000e+09
2865.000000 2.59568000e+09
2875.000000 2.56795000e+09
2885.000000 2.54203000e+09
2895.000000 2.50877000e+09
2910.000000 2.46126000e+09
2930.000000 2.41649000e+09
2950.000000 2.34791000e+09
2970.000000 2.31148000e+09
2990.000000 2.25997000e+09
3010.000000 2.19507000e+09
3030.000000 2.16688000e+09
3050.000000 2.12625000e+09
3070.000000 2.08568000e+09
3090.000000 2.01786000e+09
3110.000000 1.99748000e+09
3130.000000 1.95242000e+09
3150.000000 1.91495000e+09
3170.000000 1.87294000e+09
3190.000000 1.82825000e+09
3210.000000 1.80151000e+09
3230.000000 1.76205000e+09
3250.000000 1.73133000e+09
3270.000000 1.69507000e+09
3290.000000 1.66067000e+09
3310.000000 1.63090000e+09
3330.000000 1.59683000e+09
3350.000000 1.56563000e+09
3370.000000 1.53622000e+09
3390.000000 1.50943000e+09
3410.000000 1.48121000e+09
3430.000000 1.44756000e+09
3450.000000 1.41576000e+09
3470.000000 1.39154000e+09
3490.000000 1.36488000e+09
3510.000000 1.34463000e+09
3530.000000 1.32284000e+09
3550.000000 1.29805000e+09
3570.000000 1.27879000e+09
3590.000000 1.24623000e+09
3610.000000 1.22491000e+09
3630.000000 1.20336000e+09
3640.000000 1.20008000e+09
3650.000000 1.17403000e+09
3670.000000 1.15898000e+09
3690.000000 1.12960000e+09
3710.000000 1.09673000e+09
3730.000000 1.06686000e+09
3750.000000 1.12640000e+09
3770.000000 1.11845000e+09
3790.000000 1.14442000e+09
3810.000000 1.17394000e+09
3830.000000 1.05875000e+09
3850.000000 1.17407000e+09
3870.000000 1.15266000e+09
3890.000000 1.00968000e+09
3910.000000 1.13306000e+09
3930.000000 1.10090000e+09
3950.000000 1.08961000e+09
3970.000000 9.35459000e+08
3990.000000 1.05290000e+09
4010.000000 1.03815000e+09
4030.000000 9.97187000e+08
4050.000000 1.00709000e+09
4070.000000 9.74226000e+08
4090.000000 9.32247000e+08
4110.000000 8.50045000e+08
4130.000000 9.25695000e+08
4150.000000 9.15897000e+08
4170.000000 9.07284000e+08
4190.000000 8.93429000e+08
4210.000000 8.82070000e+08
4230.000000 8.66064000e+08
4250.000000 8.47274000e+08
4270.000000 8.27289000e+08
4290.000000 8.17853000e+08
4310.000000 7.99816000e+08
4330.000000 7.58285000e+08
4350.000000 7.02034000e+08
4370.000000 7.61807000e+08
4390.000000 7.47219000e+08
4410.000000 7.42162000e+08
4430.000000 7.33038000e+08
4450.000000 7.21802000e+08
4470.000000 6.94637000e+08
4490.000000 6.99394000e+08
4510.000000 6.90593000e+08
4530.000000 6.79827000e+08
4550.000000 6.68368000e+08
4570.000000 6.57498000e+08
4590.000000 6.47132000e+08
4610.000000 6.36122000e+08
4630.000000 6.26632000e+08
4650.000000 6.07750000e+08
4670.000000 6.07064000e+08
4690.000000 5.99568000e+08
4710.000000 5.82074000e+08
4730.000000 5.81540000e+08
4750.000000 5.71911000e+08
4770.000000 5.67373000e+08
4790.000000 5.58557000e+08
4810.000000 5.49183000e+08
4830.000000 5.39574000e+08
4850.000000 5.17451000e+08
4870.000000 4.72514000e+08
4890.000000 5.16992000e+08
4910.000000 5.10648000e+08
4930.000000 4.95416000e+08
4950.000000 4.94603000e+08
4970.000000 4.89685000e+08
4990.000000 4.82363000e+08
5010.000000 4.67758000e+08
5030.000000 4.68468000e+08
5050.000000 4.59343000e+08
5070.000000 4.55609000e+08
5090.000000 4.48924000e+08
5110.000000 4.42474000e+08
5130.000000 4.35308000e+08
5150.000000 4.29491000e+08
5170.000000 4.24229000e+08
5190.000000 4.18686000e+08
5210.000000 4.12758000e+08
5230.000000 4.07141000e+08
5250.000000 4.01599000e+08
5270.000000 3.95857000e+08
5290.000000 3.90783000e+08
5310.000000 3.85346000e+08
5330.000000 3.80311000e+08
5350.000000 3.75078000e+08
5370.000000 3.70225000e+08
5390.000000 3.65070000e+08
5410.000000 3.60278000e+08
5430.000000 3.55572000e+08
5450.000000 3.50785000e+08
5470.000000 3.46173000e+08
5490.000000 3.41618000e+08
5510.000000 3.37343000e+08
5530.000000 3.32727000e+08
5550.000000 3.28633000e+08
5570.000000 3.24274000e+08
5590.000000 3.20149000e+08
5610.000000 3.16003000e+08
5630.000000 3.12015000e+08
5650.000000 3.07697000e+08
5670.000000 3.03128000e+08
5690.000000 2.98476000e+08
5710.000000 2.95973000e+08
5730.000000 2.92338000e+08
5750.000000 2.88086000e+08
5770.000000 2.85255000e+08
5790.000000 2.81569000e+08
5810.000000 2.78093000e+08
5830.000000 2.74360000e+08
5850.000000 2.71166000e+08
5870.000000 2.61843000e+08
5890.000000 2.63575000e+08
5910.000000 2.61018000e+08
5930.000000 2.57589000e+08
5950.000000 2.54423000e+08
5970.000000 2.51929000e+08
5990.000000 2.48443000e+08
6010.000000 2.45718000e+08
6030.000000 2.42568000e+08
6050.000000 2.39773000e+08
6070.000000 2.37030000e+08
6090.000000 2.34196000e+08
6110.000000 2.31424000e+08
6130.000000 2.28703000e+08
6150.000000 2.25654000e+08
6170.000000 2.23105000e+08
6190.000000 2.20614000e+08
6210.000000 2.18091000e+08
6230.000000 2.15557000e+08
6250.000000 2.12926000e+08
6270.000000 2.10506000e+08
6290.000000 2.08103000e+08
6310.000000 2.05641000e+08
6330.000000 2.03329000e+08
6350.000000 2.00854000e+08
6370.000000 1.98666000e+08
6390.000000 1.96363000e+08
6410.000000 1.94141000e+08
6430.000000 1.91969000e+08
6450.000000 1.89775000e+08
6470.000000 1.87380000e+08
6490.000000 1.85305000e+08
6510.000000 1.83386000e+08
6530.000000 1.81081000e+08
6550.000000 1.76359000e+08
6570.000000 1.59769000e+08
6590.000000 1.74042000e+08
6610.000000 1.73275000e+08
6630.000000 1.71460000e+08
6650.000000 1.69561000e+08
6670.000000 1.66547000e+08
6690.000000 1.64754000e+08
6710.000000 1.64133000e+08
6730.000000 1.62152000e+08
6750.000000 1.60589000e+08
6770.000000 1.58853000e+08
6790.000000 1.56709000e+08
6810.000000 1.55367000e+08
6830.000000 1.53683000e+08
6850.000000 1.52089000e+08
6870.000000 1.50462000e+08
6890.000000 1.48773000e+08
6910.000000 1.47132000e+08
6930.000000 1.45703000e+08
6950.000000 1.44171000e+08
6970.000000 1.42647000e+08
6990.000000 1.41131000e+08
7010.000000 1.39652000e+08
7030.000000 1.38172000e+08
7050.000000 1.36738000e+08
7070.000000 1.33425000e+08
7090.000000 1.33910000e+08
7110.000000 1.32308000e+08
7130.000000 1.31004000e+08
7150.000000 1.29785000e+08
7170.000000 1.28432000e+08
7190.000000 1.27136000e+08
7210.000000 1.25830000e+08
7230.000000 1.23549000e+08
7250.000000 1.23155000e+08
7270.000000 1.22015000e+08
7290.000000 1.19915000e+08
7310.000000 1.19534000e+08
7330.000000 1.18336000e+08
7350.000000 1.17156000e+08
7370.000000 1.15987000e+08
7390.000000 1.14822000e+08
7410.000000 1.13675000e+08
7430.000000 1.12538000e+08
7450.000000 1.11432000e+08
7470.000000 1.10148000e+08
7490.000000 1.09218000e+08
7510.000000 1.08116000e+08
7530.000000 1.07071000e+08
7550.000000 1.06041000e+08
7570.000000 1.05002000e+08
7590.000000 1.03978000e+08
7610.000000 1.02906000e+08
7630.000000 1.01953000e+08
7650.000000 1.00970000e+08
7670.000000 9.99956000e+07
7690.000000 9.90238000e+07
7710.000000 9.80671000e+07
7730.000000 9.71190000e+07
7750.000000 9.61981000e+07
7770.000000 9.52043000e+07
7790.000000 9.43746000e+07
7810.000000 9.34225000e+07
7830.000000 9.25895000e+07
7850.000000 9.17759000e+07
7870.000000 9.08660000e+07
7890.000000 8.99279000e+07
7910.000000 8.91787000e+07
7930.000000 8.83220000e+07
7950.000000 8.74669000e+07
7970.000000 8.65599000e+07
7990.000000 8.57908000e+07
8010.000000 8.49401000e+07
8030.000000 8.41904000e+07
8050.000000 8.34586000e+07
8070.000000 8.26984000e+07
8090.000000 8.18180000e+07
8110.000000 8.09510000e+07
8130.000000 8.04677000e+07
8150.000000 7.96025000e+07
8170.000000 7.90270000e+07
8190.000000 7.81360000e+07
8210.000000 7.72248000e+07
8230.000000 7.66330000e+07
8250.000000 7.60737000e+07
8270.000000 7.49185000e+07
8290.000000 7.46178000e+07
8310.000000 7.39754000e+07
8330.000000 7.33003000e+07
8350.000000 7.23444000e+07
8370.000000 7.18377000e+07
8390.000000 7.12923000e+07
8410.000000 7.06234000e+07
8430.000000 6.99335000e+07
8450.000000 6.89486000e+07
8470.000000 6.84763000e+07
8490.000000 6.81279000e+07
8510.000000 6.69862000e+07
8530.000000 6.71229000e+07
8550.000000 6.50416000e+07
8570.000000 6.67234000e+07
8590.000000 6.39982000e+07
8610.000000 6.35741000e+07
8630.000000 6.55106000e+07
8650.000000 6.38888000e+07
8670.000000 5.97303000e+07
8690.000000 6.39505000e+07
8710.000000 6.39253000e+07
8730.000000 6.23179000e+07
8750.000000 5.69701000e+07
8770.000000 6.07809000e+07
8790.000000 6.18991000e+07
8810.000000 6.14145000e+07
8830.000000 6.07888000e+07
8850.000000 5.80083000e+07
8870.000000 5.40744000e+07
8890.000000 5.89700000e+07
8910.000000 5.88764000e+07
8930.000000 5.84145000e+07
8950.000000 5.80644000e+07
8970.000000 5.75154000e+07
8990.000000 5.62996000e+07
9010.000000 5.12376000e+07
9030.000000 5.35750000e+07
9050.000000 5.54222000e+07
9070.000000 5.47704000e+07
9090.000000 5.46072000e+07
9110.000000 5.43041000e+07
9130.000000 5.38812000e+07
9150.000000 5.34344000e+07
9170.000000 5.28700000e+07
9190.000000 5.24171000e+07
9210.000000 5.07508000e+07
9230.000000 4.58658000e+07
9250.000000 5.01367000e+07
9270.000000 5.06308000e+07
9290.000000 5.04348000e+07
9310.000000 4.98446000e+07
9330.000000 4.95402000e+07
9350.000000 4.91906000e+07
9370.000000 4.88264000e+07
9390.000000 4.84391000e+07
9410.000000 4.80335000e+07
9430.000000 4.76563000e+07
9450.000000 4.72776000e+07
9470.000000 4.66748000e+07
9490.000000 4.65034000e+07
9510.000000 4.56624000e+07
9530.000000 4.43343000e+07
9550.000000 4.03379000e+07
9570.000000 4.43800000e+07
9590.000000 4.45924000e+07
9610.000000 4.42234000e+07
9630.000000 4.38002000e+07
9650.000000 4.36674000e+07
9670.000000 4.33258000e+07
9690.000000 4.29546000e+07
9710.000000 4.25061000e+07
9730.000000 4.23156000e+07
9750.000000 4.19876000e+07
9770.000000 4.16620000e+07
9790.000000 4.13386000e+07
9810.000000 4.10019000e+07
9830.000000 4.07027000e+07
9850.000000 4.03861000e+07
9870.000000 4.00679000e+07
9890.000000 3.97443000e+07
9910.000000 3.93423000e+07
9930.000000 3.91649000e+07
9950.000000 3.88630000e+07
9970.000000 3.85595000e+07
9990.000000 3.82731000e+07
10025.000000 3.67404000e+07
10075.000000 3.55954000e+07
10125.000000 3.62774000e+07
10175.000000 3.56947000e+07
10225.000000 3.50200000e+07
10275.000000 3.43881000e+07
10325.000000 3.36501000e+07
10375.000000 3.31411000e+07
10425.000000 3.25387000e+07
10475.000000 3.19500000e+07
10525.000000 3.13717000e+07
10575.000000 3.08113000e+07
10625.000000 3.02613000e+07
10675.000000 2.96777000e+07
10725.000000 2.91976000e+07
10775.000000 2.86829000e+07
10825.000000 2.78990000e+07
10875.000000 2.76669000e+07
10925.000000 2.56230000e+07
10975.000000 2.64319000e+07
11025.000000 2.61478000e+07
11075.000000 2.58164000e+07
11125.000000 2.53809000e+07
11175.000000 2.49501000e+07
11225.000000 2.45154000e+07
11275.000000 2.41091000e+07
11325.000000 2.36958000e+07
11375.000000 2.33094000e+07
11425.000000 2.29180000e+07
11475.000000 2.25419000e+07
11525.000000 2.21700000e+07
11575.000000 2.18006000e+07
11625.000000 2.14454000e+07
11675.000000 2.10899000e+07
11725.000000 2.07545000e+07
11775.000000 2.04169000e+07
11825.000000 2.00881000e+07
11875.000000 1.97662000e+07
11925.000000 1.94501000e+07
11975.000000 1.90072000e+07
12025.000000 1.88359000e+07
12075.000000 1.85386000e+07
12125.000000 1.82464000e+07
12175.000000 1.79601000e+07
12225.000000 1.76796000e+07
12275.000000 1.74044000e+07
12325.000000 1.71345000e+07
12375.000000 1.68696000e+07
12425.000000 1.66104000e+07
12475.000000 1.63521000e+07
12525.000000 1.60739000e+07
12575.000000 1.58579000e+07
12625.000000 1.56182000e+07
12675.000000 1.53847000e+07
12725.000000 1.51531000e+07
12775.000000 1.47448000e+07
12825.000000 1.38676000e+07
12875.000000 1.44478000e+07
12925.000000 1.42699000e+07
12975.000000 1.39831000e+07
13025.000000 1.38500000e+07
13075.000000 1.36495000e+07
