# Kurucz ODFNEW /NOVER, alpha: 0.0 (2003)
# teff = 7750 K (value for the effective temperature for the model. Temperatures are given in K)
# logg = 2 log(cm/s2) (value for Log(G) for the model.)
# lh = 1.25  (l/Hp where l is the  mixing length of the convective element and Hp is the pressure scale height)
# meta = 0  (value for the Metallicity for the model.)
# vtur = 2 km/s (Microturbulence velocity)
# alpha = 0  (Alpha)
#
# column 1: WAVELENGTH (ANGSTROM), Wavelength in Angstrom
# column 2: FLUX (ERG/CM2/S/A), Flux in erg/cm2/s/A
366.000000 7.48672000e-24
375.000000 9.38790000e-23
385.000000 7.63829000e-22
395.000000 5.41486000e-21
405.000000 3.46814000e-20
414.000000 1.70378000e-19
422.000000 6.61166000e-19
430.000000 1.71270000e-19
441.000000 8.66698000e-19
451.000000 3.51631000e-18
460.000000 1.17334000e-17
470.000000 4.22605000e-17
480.000000 1.43736000e-16
490.000000 4.63592000e-16
500.000000 1.42068000e-15
506.000000 3.60844000e-15
512.000000 7.66036000e-15
520.000000 1.73304000e-14
530.000000 4.66399000e-14
540.000000 1.18499000e-13
550.000000 2.94833000e-13
560.000000 7.03292000e-13
570.000000 1.62206000e-12
580.000000 3.58218000e-12
590.000000 7.85915000e-12
600.000000 1.65656000e-11
610.000000 3.40332000e-11
620.000000 6.80867000e-11
630.000000 1.32971000e-10
640.000000 2.53786000e-10
650.000000 4.74242000e-10
658.000000 7.70036000e-10
665.000000 1.16309000e-09
675.000000 2.06603000e-09
685.000000 3.60194000e-09
695.000000 6.16978000e-09
705.000000 1.03485000e-08
716.000000 1.80694000e-08
726.000000 2.94178000e-08
735.000000 4.50381000e-08
745.000000 7.12971000e-08
755.000000 1.11381000e-07
765.000000 1.71755000e-07
775.000000 2.61542000e-07
785.000000 3.93746000e-07
795.000000 5.80158000e-07
805.000000 8.57433000e-07
815.000000 1.25112000e-06
825.000000 1.80160000e-06
835.000000 2.56801000e-06
845.000000 3.62703000e-06
855.000000 5.07423000e-06
865.000000 7.03587000e-06
875.000000 9.64329000e-06
885.000000 1.31841000e-05
895.000000 1.78327000e-05
905.000000 2.38054000e-05
915.000000 1.60906000e-02
925.000000 4.97888000e-02
935.000000 6.55185000e-02
945.000000 8.75861000e-02
955.000000 1.23392000e-01
965.000000 1.63172000e-01
975.000000 2.06926000e-01
985.000000 2.67773000e-01
995.000000 3.31917000e-01
1005.000000 4.51579000e-01
1015.000000 5.75393000e-01
1025.000000 7.00658000e-01
1035.000000 9.03328000e-01
1045.000000 1.14386000e+00
1055.000000 1.42876000e+00
1065.000000 1.73261000e+00
1075.000000 2.17368000e+00
1085.000000 2.68604000e+00
1095.000000 3.22114000e+00
1105.000000 9.72041000e+00
1115.000000 3.16480000e+01
1125.000000 4.63550000e+01
1135.000000 6.43048000e+01
1145.000000 8.03186000e+01
1155.000000 8.80666000e+01
1165.000000 1.17719000e+02
1175.000000 1.34227000e+02
1185.000000 1.42928000e+02
1195.000000 6.41880000e+01
1205.000000 5.65162000e+01
1215.000000 1.43046000e+01
1225.000000 6.63897000e+01
1235.000000 1.72223000e+02
1245.000000 4.11212000e+02
1255.000000 9.94980000e+02
1265.000000 1.00688000e+03
1275.000000 1.86860000e+03
1285.000000 2.89387000e+03
1295.000000 3.74140000e+03
1305.000000 2.79745000e+03
1315.000000 5.08965000e+03
1325.000000 6.39010000e+03
1335.000000 6.88343000e+03
1345.000000 9.30773000e+03
1355.000000 9.64361000e+03
1365.000000 1.05451000e+04
1375.000000 1.17056000e+04
1385.000000 1.31439000e+04
1395.000000 1.54126000e+04
1405.000000 1.74314000e+04
1415.000000 1.75581000e+04
1425.000000 2.04002000e+04
1435.000000 2.04681000e+04
1442.000000 2.39423000e+04
1447.000000 2.63717000e+04
1455.000000 3.01024000e+04
1465.000000 3.02774000e+04
1475.000000 3.34734000e+04
1485.000000 3.76486000e+04
1495.000000 4.33310000e+04
1505.000000 4.78366000e+04
1512.000000 4.77737000e+04
1517.000000 5.24392000e+04
1525.000000 5.63322000e+04
1535.000000 2.22195000e+05
1545.000000 9.06114000e+05
1555.000000 7.60306000e+05
1565.000000 5.98051000e+05
1575.000000 1.17595000e+06
1585.000000 1.48195000e+06
1595.000000 2.03749000e+06
1605.000000 1.64525000e+06
1615.000000 1.48238000e+06
1625.000000 1.23166000e+06
1635.000000 1.47142000e+06
1645.000000 2.20328000e+06
1655.000000 1.04914000e+06
1665.000000 1.85278000e+06
1672.000000 4.76305000e+05
1677.000000 2.70445000e+06
1685.000000 4.31486000e+06
1695.000000 4.49265000e+06
1705.000000 4.18092000e+06
1715.000000 5.79358000e+06
1725.000000 6.21796000e+06
1735.000000 7.73865000e+06
1745.000000 6.81398000e+06
1755.000000 8.92450000e+06
1765.000000 6.39584000e+06
1775.000000 8.58737000e+06
1785.000000 7.33258000e+06
1795.000000 1.07659000e+07
1805.000000 8.70865000e+06
1815.000000 1.00425000e+07
1825.000000 8.26783000e+06
1835.000000 7.49302000e+06
1845.000000 6.87747000e+06
1855.000000 8.03924000e+06
1865.000000 9.05825000e+06
1875.000000 8.49532000e+06
1885.000000 8.86801000e+06
1895.000000 9.87998000e+06
1905.000000 8.74517000e+06
1915.000000 9.34184000e+06
1925.000000 9.21261000e+06
1935.000000 6.41720000e+06
1945.000000 1.02950000e+07
1955.000000 1.05064000e+07
1967.000000 1.16444000e+07
1976.000000 1.13861000e+07
1984.000000 1.08925000e+07
1995.000000 1.06023000e+07
2005.000000 9.87175000e+06
2015.000000 9.00296000e+06
2025.000000 8.54963000e+06
2035.000000 1.00468000e+07
2045.000000 1.12442000e+07
2055.000000 9.90749000e+06
2065.000000 9.35060000e+06
2074.000000 1.19759000e+07
2078.000000 1.28581000e+07
2085.000000 1.21757000e+07
2095.000000 1.13370000e+07
2105.000000 1.03904000e+07
2115.000000 1.06309000e+07
2125.000000 1.09841000e+07
2135.000000 8.17069000e+06
2145.000000 1.02210000e+07
2155.000000 1.05782000e+07
2165.000000 9.30968000e+06
2175.000000 9.40425000e+06
2185.000000 9.87941000e+06
2195.000000 1.10766000e+07
2205.000000 1.04247000e+07
2215.000000 8.59082000e+06
2225.000000 8.22993000e+06
2235.000000 1.06822000e+07
2245.000000 9.47500000e+06
2255.000000 8.05538000e+06
2265.000000 8.18121000e+06
2275.000000 9.49680000e+06
2285.000000 1.00676000e+07
2295.000000 9.01157000e+06
2305.000000 9.50363000e+06
2315.000000 8.81576000e+06
2325.000000 8.33727000e+06
2335.000000 5.91217000e+06
2345.000000 4.55437000e+06
2355.000000 7.65071000e+06
2365.000000 4.55256000e+06
2375.000000 6.25228000e+06
2385.000000 3.54607000e+06
2395.000000 4.79290000e+06
2405.000000 4.54920000e+06
2415.000000 5.68354000e+06
2425.000000 8.65104000e+06
2435.000000 8.33615000e+06
2445.000000 9.07789000e+06
2455.000000 9.01909000e+06
2465.000000 8.67388000e+06
2475.000000 8.09224000e+06
2485.000000 8.37254000e+06
2495.000000 7.96303000e+06
2505.000000 1.04235000e+07
2513.000000 7.91797000e+06
2518.000000 8.60313000e+06
2525.000000 7.04341000e+06
2535.000000 6.73587000e+06
2545.000000 6.89825000e+06
2555.000000 8.27440000e+06
2565.000000 7.26292000e+06
2575.000000 8.48215000e+06
2585.000000 7.90530000e+06
2595.000000 7.13232000e+06
2605.000000 6.29046000e+06
2615.000000 5.83697000e+06
2625.000000 7.66239000e+06
2635.000000 9.05575000e+06
2645.000000 1.27245000e+07
2655.000000 1.29811000e+07
2665.000000 1.03924000e+07
2675.000000 1.15431000e+07
2685.000000 1.12242000e+07
2695.000000 1.05772000e+07
2705.000000 1.12679000e+07
2715.000000 9.77800000e+06
2725.000000 9.94939000e+06
2735.000000 1.08830000e+07
2745.000000 6.52112000e+06
2755.000000 7.70084000e+06
2765.000000 8.77170000e+06
2775.000000 1.07227000e+07
2785.000000 8.83559000e+06
2795.000000 3.35805000e+06
2805.000000 4.42593000e+06
2815.000000 1.05723000e+07
2825.000000 1.27172000e+07
2835.000000 1.19850000e+07
2845.000000 1.14601000e+07
2855.000000 1.03239000e+07
2865.000000 1.23581000e+07
2875.000000 1.18671000e+07
2885.000000 1.22381000e+07
2895.000000 1.14156000e+07
2910.000000 1.38954000e+07
2930.000000 1.30731000e+07
2950.000000 1.29432000e+07
2970.000000 1.38816000e+07
2990.000000 1.40796000e+07
3010.000000 1.46520000e+07
3030.000000 1.44624000e+07
3050.000000 1.44111000e+07
3070.000000 1.45485000e+07
3090.000000 1.51467000e+07
3110.000000 1.45237000e+07
3130.000000 1.44114000e+07
3150.000000 1.51933000e+07
3170.000000 1.51023000e+07
3190.000000 1.40165000e+07
3210.000000 1.48040000e+07
3230.000000 1.40868000e+07
3250.000000 1.48969000e+07
3270.000000 1.52300000e+07
3290.000000 1.54317000e+07
3310.000000 1.58516000e+07
3330.000000 1.54226000e+07
3350.000000 1.52283000e+07
3370.000000 1.50063000e+07
3390.000000 1.52821000e+07
3410.000000 1.56736000e+07
3430.000000 1.59355000e+07
3450.000000 1.58253000e+07
3470.000000 1.55558000e+07
3490.000000 1.54127000e+07
3510.000000 1.60054000e+07
3530.000000 1.60990000e+07
3550.000000 1.66042000e+07
3570.000000 1.57805000e+07
3590.000000 1.57987000e+07
3610.000000 1.59140000e+07
3630.000000 1.61629000e+07
3640.000000 1.58422000e+07
3650.000000 1.66182000e+07
3670.000000 1.63198000e+07
3690.000000 1.67715000e+07
3710.000000 2.08984000e+07
3730.000000 2.57628000e+07
3750.000000 3.72242000e+07
3770.000000 4.04829000e+07
3790.000000 5.13344000e+07
3810.000000 5.90134000e+07
3830.000000 4.58401000e+07
3850.000000 6.27090000e+07
3870.000000 6.85473000e+07
3890.000000 4.19175000e+07
3910.000000 6.55058000e+07
3930.000000 4.89983000e+07
3950.000000 6.37778000e+07
3970.000000 3.54622000e+07
3990.000000 6.50801000e+07
4010.000000 6.78648000e+07
4030.000000 6.65781000e+07
4050.000000 6.59429000e+07
4070.000000 6.41661000e+07
4090.000000 5.71284000e+07
4110.000000 4.38393000e+07
4130.000000 6.21032000e+07
4150.000000 6.37482000e+07
4170.000000 6.19552000e+07
4190.000000 6.15197000e+07
4210.000000 6.10024000e+07
4230.000000 5.96185000e+07
4250.000000 5.95801000e+07
4270.000000 5.74199000e+07
4290.000000 5.81017000e+07
4310.000000 5.42945000e+07
4330.000000 4.67192000e+07
4350.000000 3.98500000e+07
4370.000000 5.54908000e+07
4390.000000 5.46560000e+07
4410.000000 5.32374000e+07
4430.000000 5.31225000e+07
4450.000000 5.35098000e+07
4470.000000 5.30150000e+07
4490.000000 5.25326000e+07
4510.000000 5.34364000e+07
4530.000000 5.12014000e+07
4550.000000 5.00480000e+07
4570.000000 5.16961000e+07
4590.000000 4.94889000e+07
4610.000000 5.09111000e+07
4630.000000 4.90961000e+07
4650.000000 4.95737000e+07
4670.000000 4.91708000e+07
4690.000000 4.75996000e+07
4710.000000 4.59566000e+07
4730.000000 4.75305000e+07
4750.000000 4.75218000e+07
4770.000000 4.64899000e+07
4790.000000 4.60877000e+07
4810.000000 4.53519000e+07
4830.000000 4.43134000e+07
4850.000000 3.70171000e+07
4870.000000 2.94529000e+07
4890.000000 4.21093000e+07
4910.000000 4.27061000e+07
4930.000000 4.16628000e+07
4950.000000 4.22386000e+07
4970.000000 4.23752000e+07
4990.000000 4.07033000e+07
5010.000000 3.91062000e+07
5030.000000 4.00093000e+07
5050.000000 3.93769000e+07
5070.000000 3.97704000e+07
5090.000000 3.91952000e+07
5110.000000 3.89366000e+07
5130.000000 3.79608000e+07
5150.000000 3.71836000e+07
5170.000000 3.64102000e+07
5190.000000 3.60322000e+07
5210.000000 3.59851000e+07
5230.000000 3.55314000e+07
5250.000000 3.60088000e+07
5270.000000 3.39930000e+07
5290.000000 3.51958000e+07
5310.000000 3.43900000e+07
5330.000000 3.35463000e+07
5350.000000 3.43752000e+07
5370.000000 3.38923000e+07
5390.000000 3.34065000e+07
5410.000000 3.27442000e+07
5430.000000 3.26223000e+07
5450.000000 3.28437000e+07
5470.000000 3.24013000e+07
5490.000000 3.22331000e+07
5510.000000 3.18258000e+07
5530.000000 3.14926000e+07
5550.000000 3.14996000e+07
5570.000000 3.09969000e+07
5590.000000 3.06791000e+07
5610.000000 3.05409000e+07
5630.000000 3.04016000e+07
5650.000000 2.99023000e+07
5670.000000 2.95007000e+07
5690.000000 2.95032000e+07
5710.000000 2.92368000e+07
5730.000000 2.92097000e+07
5750.000000 2.87836000e+07
5770.000000 2.85787000e+07
5790.000000 2.82366000e+07
5810.000000 2.80247000e+07
5830.000000 2.77929000e+07
5850.000000 2.75074000e+07
5870.000000 2.72875000e+07
5890.000000 2.66355000e+07
5910.000000 2.67716000e+07
5930.000000 2.65249000e+07
5950.000000 2.62436000e+07
5970.000000 2.60713000e+07
5990.000000 2.56938000e+07
6010.000000 2.53927000e+07
6030.000000 2.53012000e+07
6050.000000 2.50693000e+07
6070.000000 2.49381000e+07
6090.000000 2.46385000e+07
6110.000000 2.43422000e+07
6130.000000 2.39671000e+07
6150.000000 2.34439000e+07
6170.000000 2.35139000e+07
6190.000000 2.35844000e+07
6210.000000 2.34093000e+07
6230.000000 2.30592000e+07
6250.000000 2.23718000e+07
6270.000000 2.28177000e+07
6290.000000 2.26167000e+07
6310.000000 2.21897000e+07
6330.000000 2.21305000e+07
6350.000000 2.17905000e+07
6370.000000 2.16362000e+07
6390.000000 2.15628000e+07
6410.000000 2.12231000e+07
6430.000000 2.11514000e+07
6450.000000 2.07207000e+07
6470.000000 2.08295000e+07
6490.000000 2.03498000e+07
6510.000000 2.03138000e+07
6530.000000 2.00518000e+07
6550.000000 1.80653000e+07
6570.000000 1.42488000e+07
6590.000000 1.91695000e+07
6610.000000 1.94978000e+07
6630.000000 1.94874000e+07
6650.000000 1.93457000e+07
6670.000000 1.91596000e+07
6690.000000 1.90603000e+07
6710.000000 1.88992000e+07
6730.000000 1.87288000e+07
6750.000000 1.85221000e+07
6770.000000 1.84794000e+07
6790.000000 1.82996000e+07
6810.000000 1.81687000e+07
6830.000000 1.79558000e+07
6850.000000 1.78351000e+07
6870.000000 1.77282000e+07
6890.000000 1.75905000e+07
6910.000000 1.74407000e+07
6930.000000 1.72861000e+07
6950.000000 1.71579000e+07
6970.000000 1.70052000e+07
6990.000000 1.68926000e+07
7010.000000 1.66270000e+07
7030.000000 1.65775000e+07
7050.000000 1.64722000e+07
7070.000000 1.63573000e+07
7090.000000 1.62329000e+07
7110.000000 1.57870000e+07
7130.000000 1.58749000e+07
7150.000000 1.57840000e+07
7170.000000 1.56711000e+07
7190.000000 1.55105000e+07
7210.000000 1.54100000e+07
7230.000000 1.52680000e+07
7250.000000 1.51545000e+07
7270.000000 1.50990000e+07
7290.000000 1.49085000e+07
7310.000000 1.47805000e+07
7330.000000 1.47014000e+07
7350.000000 1.46229000e+07
7370.000000 1.45485000e+07
7390.000000 1.43815000e+07
7410.000000 1.42086000e+07
7430.000000 1.40620000e+07
7450.000000 1.40001000e+07
7470.000000 1.38118000e+07
7490.000000 1.37724000e+07
7510.000000 1.36998000e+07
7530.000000 1.36398000e+07
7550.000000 1.35901000e+07
7570.000000 1.34520000e+07
7590.000000 1.33759000e+07
7610.000000 1.32771000e+07
7630.000000 1.31798000e+07
7650.000000 1.30401000e+07
7670.000000 1.29062000e+07
7690.000000 1.28507000e+07
7710.000000 1.27150000e+07
7730.000000 1.26890000e+07
7750.000000 1.25797000e+07
7770.000000 1.22267000e+07
7790.000000 1.24285000e+07
7810.000000 1.23279000e+07
7830.000000 1.21851000e+07
7850.000000 1.20516000e+07
7870.000000 1.19831000e+07
7890.000000 1.18673000e+07
7910.000000 1.18008000e+07
7930.000000 1.17210000e+07
7950.000000 1.15995000e+07
7970.000000 1.16344000e+07
7990.000000 1.14163000e+07
8010.000000 1.14381000e+07
8030.000000 1.13379000e+07
8050.000000 1.12805000e+07
8070.000000 1.11888000e+07
8090.000000 1.11071000e+07
8110.000000 1.10569000e+07
8130.000000 1.09895000e+07
8150.000000 1.09095000e+07
8170.000000 1.08325000e+07
8190.000000 1.06005000e+07
8210.000000 1.05679000e+07
8230.000000 1.04938000e+07
8250.000000 1.04397000e+07
8270.000000 1.04944000e+07
8290.000000 1.04049000e+07
8310.000000 1.03124000e+07
8330.000000 1.01114000e+07
8350.000000 1.01511000e+07
8370.000000 9.98329000e+06
8390.000000 9.89079000e+06
8410.000000 9.80226000e+06
8430.000000 9.89416000e+06
8450.000000 9.69596000e+06
8470.000000 9.35615000e+06
8490.000000 1.01081000e+07
8510.000000 8.97969000e+06
8530.000000 1.02507000e+07
8550.000000 8.32384000e+06
8570.000000 1.04881000e+07
8590.000000 9.66788000e+06
8610.000000 9.33539000e+06
8630.000000 1.06832000e+07
8650.000000 1.03524000e+07
8670.000000 8.05141000e+06
8690.000000 1.03661000e+07
8710.000000 1.08250000e+07
8730.000000 1.05017000e+07
8750.000000 8.22765000e+06
8770.000000 1.01019000e+07
8790.000000 1.06528000e+07
8810.000000 1.05812000e+07
8830.000000 1.02787000e+07
8850.000000 9.53049000e+06
8870.000000 7.99025000e+06
8890.000000 1.00451000e+07
8910.000000 1.02012000e+07
8930.000000 1.01447000e+07
8950.000000 1.01784000e+07
8970.000000 1.00469000e+07
8990.000000 9.77621000e+06
9010.000000 7.88959000e+06
9030.000000 8.76115000e+06
9050.000000 9.69117000e+06
9070.000000 9.49095000e+06
9090.000000 9.34801000e+06
9110.000000 9.53398000e+06
9130.000000 9.55327000e+06
9150.000000 9.53315000e+06
9170.000000 9.41903000e+06
9190.000000 9.24783000e+06
9210.000000 8.80977000e+06
9230.000000 6.92232000e+06
9250.000000 8.47484000e+06
9270.000000 8.78421000e+06
9290.000000 9.04937000e+06
9310.000000 9.02444000e+06
9330.000000 8.95333000e+06
9350.000000 8.91723000e+06
9370.000000 8.87019000e+06
9390.000000 8.73759000e+06
9410.000000 8.45415000e+06
9430.000000 8.60007000e+06
9450.000000 8.57299000e+06
9470.000000 8.53472000e+06
9490.000000 8.47536000e+06
9510.000000 8.33852000e+06
9530.000000 7.87590000e+06
9550.000000 6.33979000e+06
9570.000000 7.88095000e+06
9590.000000 8.13977000e+06
9610.000000 8.06595000e+06
9630.000000 7.93498000e+06
9650.000000 8.02066000e+06
9670.000000 7.88156000e+06
9690.000000 7.86310000e+06
9710.000000 7.91505000e+06
9730.000000 7.85071000e+06
9750.000000 7.74998000e+06
9770.000000 7.75932000e+06
9790.000000 7.70486000e+06
9810.000000 7.64842000e+06
9830.000000 7.58887000e+06
9850.000000 7.49168000e+06
9870.000000 7.45826000e+06
9890.000000 7.37536000e+06
9910.000000 7.36019000e+06
9930.000000 7.32332000e+06
9950.000000 7.27792000e+06
9970.000000 7.25141000e+06
9990.000000 7.18918000e+06
10025.000000 6.72111000e+06
10075.000000 6.37621000e+06
10125.000000 6.81207000e+06
10175.000000 6.77658000e+06
10225.000000 6.69461000e+06
10275.000000 6.60000000e+06
10325.000000 6.46272000e+06
10375.000000 6.38063000e+06
10425.000000 6.28526000e+06
10475.000000 6.11347000e+06
10525.000000 6.05008000e+06
10575.000000 5.97650000e+06
10625.000000 5.88768000e+06
10675.000000 5.69711000e+06
10725.000000 5.67785000e+06
10775.000000 5.60386000e+06
10825.000000 5.52071000e+06
10875.000000 5.42068000e+06
10925.000000 4.75348000e+06
10975.000000 5.11749000e+06
11025.000000 5.23172000e+06
11075.000000 5.17292000e+06
11125.000000 5.08178000e+06
11175.000000 5.01197000e+06
11225.000000 4.94888000e+06
11275.000000 4.78477000e+06
11325.000000 4.72441000e+06
11375.000000 4.71033000e+06
11425.000000 4.61753000e+06
11475.000000 4.60256000e+06
11525.000000 4.54144000e+06
11575.000000 4.46939000e+06
11625.000000 4.35185000e+06
11675.000000 4.26684000e+06
11725.000000 4.28863000e+06
11775.000000 4.14849000e+06
11825.000000 4.12668000e+06
11875.000000 4.04418000e+06
11925.000000 4.06094000e+06
11975.000000 3.96168000e+06
12025.000000 3.93167000e+06
12075.000000 3.86714000e+06
12125.000000 3.81866000e+06
12175.000000 3.78049000e+06
12225.000000 3.72291000e+06
12275.000000 3.66639000e+06
12325.000000 3.62083000e+06
12375.000000 3.57810000e+06
12425.000000 3.53936000e+06
12475.000000 3.48078000e+06
12525.000000 3.43480000e+06
12575.000000 3.36561000e+06
12625.000000 3.33735000e+06
12675.000000 3.30755000e+06
12725.000000 3.26393000e+06
12775.000000 3.18072000e+06
12825.000000 2.79775000e+06
12875.000000 3.10991000e+06
12925.000000 3.09311000e+06
12975.000000 3.05724000e+06
13025.000000 3.02137000e+06
13075.000000 2.98465000e+06
13125.000000 2.94227000e+06
13175.000000 2.89328000e+06
13225.000000 2.87080000e+06
13275.000000 2.83318000e+06
13325.000000 2.79923000e+06
13375.000000 2.76339000e+06
13425.000000 2.72738000e+06
13475.000000 2.69327000e+06
13525.000000 2.65156000e+06
13575.000000 2.61755000e+06
13625.000000 2.59310000e+06
13675.000000 2.55685000e+06
13725.000000 2.50245000e+06
13775.000000 2.49067000e+06
13825.000000 2.46244000e+06
13875.000000 2.44081000e+06
13925.000000 2.40020000e+06
13975.000000 2.37688000e+06
14025.000000 2.34924000e+06
14075.000000 2.32383000e+06
14125.000000 2.29173000e+06
14175.000000 2.26584000e+06
14225.000000 2.23654000e+06
14275.000000 2.20851000e+06
14325.000000 2.18504000e+06
14375.000000 2.16203000e+06
14425.000000 2.09456000e+06
14475.000000 2.10799000e+06
14525.000000 2.06225000e+06
14570.000000 2.06000000e+06
14620.000000 2.03007000e+06
14675.000000 2.01244000e+06
14725.000000 1.98455000e+06
14775.000000 1.95405000e+06
14825.000000 1.93781000e+06
14875.000000 1.90744000e+06
14925.000000 1.90279000e+06
14975.000000 1.87516000e+06
15025.000000 1.84351000e+06
15075.000000 1.82102000e+06
