# Kurucz ODFNEW /NOVER, alpha: 0.0 (2003)
# teff = 7500 K (value for the effective temperature for the model. Temperatures are given in K)
# logg = 1.5 log(cm/s2) (value for Log(G) for the model.)
# lh = 1.25  (l/Hp where l is the  mixing length of the convective element and Hp is the pressure scale height)
# meta = 0  (value for the Metallicity for the model.)
# vtur = 2 km/s (Microturbulence velocity)
# alpha = 0  (Alpha)
#
# column 1: WAVELENGTH (ANGSTROM), Wavelength in Angstrom
# column 2: FLUX (ERG/CM2/S/A), Flux in erg/cm2/s/A
375.000000 2.30011000e-25
385.000000 1.80154000e-24
395.000000 1.26346000e-23
405.000000 8.00864000e-23
414.000000 3.89531000e-22
422.000000 1.49620000e-21
430.000000 5.45025000e-21
441.000000 2.97326000e-20
451.000000 1.28745000e-19
460.000000 4.54461000e-19
470.000000 1.73800000e-18
480.000000 6.26051000e-18
490.000000 2.13360000e-17
500.000000 6.89339000e-17
506.000000 1.80599000e-16
512.000000 3.94673000e-16
520.000000 9.28309000e-16
530.000000 2.61820000e-15
540.000000 6.96239000e-15
550.000000 1.80892000e-14
560.000000 4.50021000e-14
570.000000 1.08092000e-13
580.000000 2.48312000e-13
590.000000 5.65700000e-13
600.000000 1.23693000e-12
610.000000 2.63265000e-12
620.000000 5.45042000e-12
630.000000 1.10038000e-11
640.000000 2.16877000e-11
650.000000 4.18085000e-11
658.000000 6.95511000e-11
665.000000 1.07254000e-10
675.000000 1.96102000e-10
685.000000 3.51611000e-10
695.000000 6.18873000e-10
705.000000 1.06586000e-09
716.000000 1.91445000e-09
726.000000 3.19538000e-09
735.000000 5.00019000e-09
745.000000 8.10509000e-09
755.000000 1.29569000e-08
765.000000 2.04341000e-08
775.000000 3.18030000e-08
785.000000 4.89099000e-08
795.000000 7.35845000e-08
805.000000 1.10962000e-07
815.000000 1.65149000e-07
825.000000 2.42435000e-07
835.000000 3.52169000e-07
845.000000 5.06567000e-07
855.000000 7.21533000e-07
865.000000 1.01817000e-06
875.000000 1.41953000e-06
885.000000 1.97353000e-06
895.000000 2.71335000e-06
905.000000 3.68144000e-06
915.000000 3.16876000e-03
925.000000 9.75083000e-03
935.000000 1.30425000e-02
945.000000 1.77222000e-02
955.000000 2.53249000e-02
965.000000 3.40662000e-02
975.000000 4.41593000e-02
985.000000 5.76884000e-02
995.000000 7.28059000e-02
1005.000000 1.00364000e-01
1015.000000 1.29757000e-01
1025.000000 1.60818000e-01
1035.000000 2.09721000e-01
1045.000000 2.69210000e-01
1055.000000 3.40944000e-01
1065.000000 4.19302000e-01
1075.000000 5.32221000e-01
1085.000000 6.66367000e-01
1095.000000 8.09244000e-01
1105.000000 2.52188000e+00
1115.000000 8.53685000e+00
1125.000000 1.26474000e+01
1135.000000 1.77035000e+01
1145.000000 2.23689000e+01
1155.000000 2.46804000e+01
1165.000000 3.33338000e+01
1175.000000 3.81498000e+01
1185.000000 4.11331000e+01
1195.000000 1.80758000e+01
1205.000000 1.60400000e+01
1215.000000 4.26844000e+00
1225.000000 1.92707000e+01
1235.000000 5.04076000e+01
1245.000000 1.19881000e+02
1255.000000 2.93485000e+02
1265.000000 3.00447000e+02
1275.000000 5.80010000e+02
1285.000000 9.30926000e+02
1295.000000 1.23737000e+03
1305.000000 9.02788000e+02
1315.000000 1.74661000e+03
1325.000000 2.24133000e+03
1335.000000 2.43596000e+03
1345.000000 3.38948000e+03
1355.000000 3.54872000e+03
1365.000000 3.93769000e+03
1375.000000 4.39950000e+03
1385.000000 5.01533000e+03
1395.000000 5.96119000e+03
1405.000000 6.80604000e+03
1415.000000 6.88818000e+03
1425.000000 8.09329000e+03
1435.000000 8.17207000e+03
1442.000000 9.64161000e+03
1447.000000 1.06600000e+04
1455.000000 1.22451000e+04
1465.000000 1.23667000e+04
1475.000000 1.38392000e+04
1485.000000 1.56844000e+04
1495.000000 1.82413000e+04
1505.000000 2.02484000e+04
1512.000000 2.03085000e+04
1517.000000 2.23619000e+04
1525.000000 2.40086000e+04
1535.000000 6.04756000e+04
1545.000000 2.22295000e+05
1555.000000 1.84250000e+05
1565.000000 1.40268000e+05
1575.000000 2.97754000e+05
1585.000000 3.83309000e+05
1595.000000 5.70805000e+05
1605.000000 4.43793000e+05
1615.000000 3.92094000e+05
1625.000000 3.24767000e+05
1635.000000 3.83519000e+05
1645.000000 5.96580000e+05
1655.000000 2.60655000e+05
1665.000000 4.49484000e+05
1672.000000 1.07267000e+05
1677.000000 8.01876000e+05
1685.000000 1.62423000e+06
1695.000000 1.91654000e+06
1705.000000 1.71723000e+06
1715.000000 2.64958000e+06
1725.000000 3.04536000e+06
1735.000000 3.92608000e+06
1745.000000 3.26113000e+06
1755.000000 4.52732000e+06
1765.000000 3.27543000e+06
1775.000000 4.52942000e+06
1785.000000 3.65092000e+06
1795.000000 5.84978000e+06
1805.000000 4.50499000e+06
1815.000000 5.44779000e+06
1825.000000 4.35963000e+06
1835.000000 3.91506000e+06
1845.000000 3.68836000e+06
1855.000000 4.44386000e+06
1865.000000 5.12548000e+06
1875.000000 4.69815000e+06
1885.000000 4.98857000e+06
1895.000000 5.67083000e+06
1905.000000 4.98558000e+06
1915.000000 5.26023000e+06
1925.000000 5.05861000e+06
1935.000000 3.25181000e+06
1945.000000 5.98312000e+06
1955.000000 6.17893000e+06
1967.000000 6.95049000e+06
1976.000000 6.78457000e+06
1984.000000 6.51644000e+06
1995.000000 6.37634000e+06
2005.000000 5.88331000e+06
2015.000000 5.24191000e+06
2025.000000 4.97235000e+06
2035.000000 6.05509000e+06
2045.000000 6.85234000e+06
2055.000000 5.82745000e+06
2065.000000 5.46803000e+06
2074.000000 7.36385000e+06
2078.000000 8.08295000e+06
2085.000000 7.65240000e+06
2095.000000 7.09310000e+06
2105.000000 6.53028000e+06
2115.000000 6.68975000e+06
2125.000000 6.86554000e+06
2135.000000 5.03964000e+06
2145.000000 6.42606000e+06
2155.000000 6.73096000e+06
2165.000000 5.74302000e+06
2175.000000 5.91228000e+06
2185.000000 6.25070000e+06
2195.000000 7.14078000e+06
2205.000000 6.63690000e+06
2215.000000 5.26859000e+06
2225.000000 5.03437000e+06
2235.000000 6.87683000e+06
2245.000000 6.09910000e+06
2255.000000 4.89368000e+06
2265.000000 4.92304000e+06
2275.000000 5.99921000e+06
2285.000000 6.39164000e+06
2295.000000 5.72595000e+06
2305.000000 6.11011000e+06
2315.000000 5.58238000e+06
2325.000000 5.22266000e+06
2335.000000 3.28153000e+06
2345.000000 2.40554000e+06
2355.000000 4.46734000e+06
2365.000000 2.37021000e+06
2375.000000 3.45110000e+06
2385.000000 1.77383000e+06
2395.000000 2.48801000e+06
2405.000000 2.35500000e+06
2415.000000 3.30588000e+06
2425.000000 5.66565000e+06
2435.000000 5.44791000e+06
2445.000000 5.98208000e+06
2455.000000 5.98658000e+06
2465.000000 5.65055000e+06
2475.000000 5.28327000e+06
2485.000000 5.42580000e+06
2495.000000 5.20078000e+06
2505.000000 7.02005000e+06
2513.000000 5.14665000e+06
2518.000000 5.71946000e+06
2525.000000 4.50743000e+06
2535.000000 4.36829000e+06
2545.000000 4.52481000e+06
2555.000000 5.55957000e+06
2565.000000 4.61634000e+06
2575.000000 5.45354000e+06
2585.000000 4.85763000e+06
2595.000000 4.23374000e+06
2605.000000 3.60390000e+06
2615.000000 3.34440000e+06
2625.000000 4.52991000e+06
2635.000000 5.91310000e+06
2645.000000 8.91094000e+06
2655.000000 9.18545000e+06
2665.000000 7.15933000e+06
2675.000000 8.02092000e+06
2685.000000 7.81602000e+06
2695.000000 7.36287000e+06
2705.000000 7.92071000e+06
2715.000000 6.65377000e+06
2725.000000 6.74403000e+06
2735.000000 7.28607000e+06
2745.000000 3.94612000e+06
2755.000000 4.86788000e+06
2765.000000 5.79589000e+06
2775.000000 7.17929000e+06
2785.000000 5.46232000e+06
2795.000000 1.91769000e+06
2805.000000 2.52199000e+06
2815.000000 6.82315000e+06
2825.000000 8.85434000e+06
2835.000000 8.42637000e+06
2845.000000 8.13033000e+06
2855.000000 7.19301000e+06
2865.000000 8.81903000e+06
2875.000000 8.50756000e+06
2885.000000 8.82074000e+06
2895.000000 8.24118000e+06
2910.000000 1.01820000e+07
2930.000000 9.53617000e+06
2950.000000 9.41466000e+06
2970.000000 1.02603000e+07
2990.000000 1.04080000e+07
3010.000000 1.09550000e+07
3030.000000 1.08277000e+07
3050.000000 1.08185000e+07
3070.000000 1.09039000e+07
3090.000000 1.14722000e+07
3110.000000 1.09843000e+07
3130.000000 1.08863000e+07
3150.000000 1.15561000e+07
3170.000000 1.14628000e+07
3190.000000 1.05758000e+07
3210.000000 1.12930000e+07
3230.000000 1.06412000e+07
3250.000000 1.14133000e+07
3270.000000 1.17473000e+07
3290.000000 1.18872000e+07
3310.000000 1.22821000e+07
3330.000000 1.19403000e+07
3350.000000 1.17838000e+07
3370.000000 1.15750000e+07
3390.000000 1.18830000e+07
3410.000000 1.22430000e+07
3430.000000 1.24986000e+07
3450.000000 1.24285000e+07
3470.000000 1.22015000e+07
3490.000000 1.20772000e+07
3510.000000 1.26142000e+07
3530.000000 1.27117000e+07
3550.000000 1.32203000e+07
3570.000000 1.24752000e+07
3590.000000 1.25403000e+07
3610.000000 1.26547000e+07
3630.000000 1.29004000e+07
3640.000000 1.26181000e+07
3650.000000 1.32990000e+07
3670.000000 1.30937000e+07
3690.000000 1.39654000e+07
3710.000000 1.79468000e+07
3730.000000 2.35722000e+07
3750.000000 3.50569000e+07
3770.000000 3.75566000e+07
3790.000000 4.68260000e+07
3810.000000 5.29976000e+07
3830.000000 4.16128000e+07
3850.000000 5.52215000e+07
3870.000000 5.95019000e+07
3890.000000 3.89424000e+07
3910.000000 5.58930000e+07
3930.000000 3.71390000e+07
3950.000000 5.32117000e+07
3970.000000 3.06219000e+07
3990.000000 5.61281000e+07
4010.000000 5.80413000e+07
4030.000000 5.68589000e+07
4050.000000 5.62459000e+07
4070.000000 5.49780000e+07
4090.000000 5.13721000e+07
4110.000000 4.02285000e+07
4130.000000 5.36948000e+07
4150.000000 5.50553000e+07
4170.000000 5.32351000e+07
4190.000000 5.30049000e+07
4210.000000 5.24536000e+07
4230.000000 5.13250000e+07
4250.000000 5.14897000e+07
4270.000000 4.96262000e+07
4290.000000 5.02965000e+07
4310.000000 4.70605000e+07
4330.000000 4.23991000e+07
4350.000000 3.64256000e+07
4370.000000 4.85705000e+07
4390.000000 4.74917000e+07
4410.000000 4.61495000e+07
4430.000000 4.61119000e+07
4450.000000 4.64574000e+07
4470.000000 4.61218000e+07
4490.000000 4.58240000e+07
4510.000000 4.67335000e+07
4530.000000 4.45924000e+07
4550.000000 4.36225000e+07
4570.000000 4.52583000e+07
4590.000000 4.31695000e+07
4610.000000 4.46340000e+07
4630.000000 4.30156000e+07
4650.000000 4.35088000e+07
4670.000000 4.32216000e+07
4690.000000 4.18398000e+07
4710.000000 4.03882000e+07
4730.000000 4.18121000e+07
4750.000000 4.19199000e+07
4770.000000 4.09200000e+07
4790.000000 4.06513000e+07
4810.000000 4.00827000e+07
4830.000000 3.93622000e+07
4850.000000 3.38284000e+07
4870.000000 2.71036000e+07
4890.000000 3.75357000e+07
4910.000000 3.77900000e+07
4930.000000 3.67384000e+07
4950.000000 3.73954000e+07
4970.000000 3.75557000e+07
4990.000000 3.58512000e+07
5010.000000 3.43333000e+07
5030.000000 3.53130000e+07
5050.000000 3.48020000e+07
5070.000000 3.52182000e+07
5090.000000 3.46715000e+07
5110.000000 3.44641000e+07
5130.000000 3.34916000e+07
5150.000000 3.28102000e+07
5170.000000 3.21861000e+07
5190.000000 3.18434000e+07
5210.000000 3.17826000e+07
5230.000000 3.14753000e+07
5250.000000 3.18851000e+07
5270.000000 2.99887000e+07
5290.000000 3.12123000e+07
5310.000000 3.04578000e+07
5330.000000 2.97085000e+07
5350.000000 3.05253000e+07
5370.000000 3.01507000e+07
5390.000000 2.96681000e+07
5410.000000 2.90732000e+07
5430.000000 2.89757000e+07
5450.000000 2.92708000e+07
5470.000000 2.88418000e+07
5490.000000 2.86908000e+07
5510.000000 2.83092000e+07
5530.000000 2.80814000e+07
5550.000000 2.81093000e+07
5570.000000 2.76577000e+07
5590.000000 2.73830000e+07
5610.000000 2.72850000e+07
5630.000000 2.71676000e+07
5650.000000 2.66983000e+07
5670.000000 2.63075000e+07
5690.000000 2.63835000e+07
5710.000000 2.61505000e+07
5730.000000 2.61794000e+07
5750.000000 2.57879000e+07
5770.000000 2.56208000e+07
5790.000000 2.52913000e+07
5810.000000 2.51219000e+07
5830.000000 2.49188000e+07
5850.000000 2.46706000e+07
5870.000000 2.44929000e+07
5890.000000 2.38729000e+07
5910.000000 2.40309000e+07
5930.000000 2.38080000e+07
5950.000000 2.35631000e+07
5970.000000 2.34298000e+07
5990.000000 2.30730000e+07
6010.000000 2.27967000e+07
6030.000000 2.27348000e+07
6050.000000 2.25271000e+07
6070.000000 2.24331000e+07
6090.000000 2.21427000e+07
6110.000000 2.18618000e+07
6130.000000 2.15118000e+07
6150.000000 2.10464000e+07
6170.000000 2.11210000e+07
6190.000000 2.12237000e+07
6210.000000 2.10803000e+07
6230.000000 2.07297000e+07
6250.000000 2.00524000e+07
6270.000000 2.05619000e+07
6290.000000 2.03818000e+07
6310.000000 1.99463000e+07
6330.000000 1.99323000e+07
6350.000000 1.96491000e+07
6370.000000 1.95045000e+07
6390.000000 1.94380000e+07
6410.000000 1.91188000e+07
6430.000000 1.90693000e+07
6450.000000 1.86778000e+07
6470.000000 1.88100000e+07
6490.000000 1.83347000e+07
6510.000000 1.83457000e+07
6530.000000 1.81876000e+07
6550.000000 1.65707000e+07
6570.000000 1.30802000e+07
6590.000000 1.74389000e+07
6610.000000 1.76371000e+07
6630.000000 1.76431000e+07
6650.000000 1.75133000e+07
6670.000000 1.73305000e+07
6690.000000 1.72514000e+07
6710.000000 1.71052000e+07
6730.000000 1.69605000e+07
6750.000000 1.67650000e+07
6770.000000 1.67442000e+07
6790.000000 1.65722000e+07
6810.000000 1.64677000e+07
6830.000000 1.62648000e+07
6850.000000 1.61595000e+07
6870.000000 1.60775000e+07
6890.000000 1.59565000e+07
6910.000000 1.58225000e+07
6930.000000 1.56826000e+07
6950.000000 1.55699000e+07
6970.000000 1.54326000e+07
6990.000000 1.53352000e+07
7010.000000 1.50753000e+07
7030.000000 1.50506000e+07
7050.000000 1.49615000e+07
7070.000000 1.48597000e+07
7090.000000 1.47497000e+07
7110.000000 1.43278000e+07
7130.000000 1.44150000e+07
7150.000000 1.43426000e+07
7170.000000 1.42422000e+07
7190.000000 1.40858000e+07
7210.000000 1.40005000e+07
7230.000000 1.38691000e+07
7250.000000 1.37798000e+07
7270.000000 1.37354000e+07
7290.000000 1.35524000e+07
7310.000000 1.34311000e+07
7330.000000 1.33699000e+07
7350.000000 1.33007000e+07
7370.000000 1.32508000e+07
7390.000000 1.30874000e+07
7410.000000 1.29242000e+07
7430.000000 1.27920000e+07
7450.000000 1.27437000e+07
7470.000000 1.25736000e+07
7490.000000 1.25415000e+07
7510.000000 1.24768000e+07
7530.000000 1.24292000e+07
7550.000000 1.23985000e+07
7570.000000 1.22627000e+07
7590.000000 1.22034000e+07
7610.000000 1.21166000e+07
7630.000000 1.20305000e+07
7650.000000 1.18949000e+07
7670.000000 1.17702000e+07
7690.000000 1.17314000e+07
7710.000000 1.16009000e+07
7730.000000 1.15876000e+07
7750.000000 1.14883000e+07
7770.000000 1.11684000e+07
7790.000000 1.13607000e+07
7810.000000 1.12674000e+07
7830.000000 1.11319000e+07
7850.000000 1.10055000e+07
7870.000000 1.09570000e+07
7890.000000 1.08482000e+07
7910.000000 1.07862000e+07
7930.000000 1.07151000e+07
7950.000000 1.06052000e+07
7970.000000 1.06487000e+07
7990.000000 1.04492000e+07
8010.000000 1.04687000e+07
8030.000000 1.03745000e+07
8050.000000 1.03283000e+07
8070.000000 1.02447000e+07
8090.000000 1.01700000e+07
8110.000000 1.01313000e+07
8130.000000 1.00724000e+07
8150.000000 9.99980000e+06
8170.000000 9.93058000e+06
8190.000000 9.70691000e+06
8210.000000 9.68538000e+06
8230.000000 9.62168000e+06
8250.000000 9.57121000e+06
8270.000000 9.62908000e+06
8290.000000 9.54211000e+06
8310.000000 9.44550000e+06
8330.000000 9.24546000e+06
8350.000000 9.30983000e+06
8370.000000 9.11429000e+06
8390.000000 9.07142000e+06
8410.000000 9.01288000e+06
8430.000000 9.16949000e+06
8450.000000 8.97629000e+06
8470.000000 8.68662000e+06
8490.000000 9.40777000e+06
8510.000000 8.34921000e+06
8530.000000 9.55377000e+06
8550.000000 7.67605000e+06
8570.000000 9.82181000e+06
8590.000000 9.13640000e+06
8610.000000 8.83991000e+06
8630.000000 1.00342000e+07
8650.000000 9.76634000e+06
8670.000000 7.54121000e+06
8690.000000 9.72154000e+06
8710.000000 1.01105000e+07
8730.000000 9.85757000e+06
8750.000000 7.86451000e+06
8770.000000 9.54352000e+06
8790.000000 9.91361000e+06
8810.000000 9.82400000e+06
8830.000000 9.55680000e+06
8850.000000 9.01149000e+06
8870.000000 7.62874000e+06
8890.000000 9.40821000e+06
8910.000000 9.47849000e+06
8930.000000 9.40585000e+06
8950.000000 9.43769000e+06
8970.000000 9.33104000e+06
8990.000000 9.13715000e+06
9010.000000 7.51834000e+06
9030.000000 8.32085000e+06
9050.000000 9.04353000e+06
9070.000000 8.80357000e+06
9090.000000 8.65864000e+06
9110.000000 8.83719000e+06
9130.000000 8.85862000e+06
9150.000000 8.85369000e+06
9170.000000 8.74432000e+06
9190.000000 8.60505000e+06
9210.000000 8.28036000e+06
9230.000000 6.62206000e+06
9250.000000 7.97907000e+06
9270.000000 8.18097000e+06
9290.000000 8.40813000e+06
9310.000000 8.38465000e+06
9330.000000 8.30763000e+06
9350.000000 8.27471000e+06
9370.000000 8.23427000e+06
9390.000000 8.10865000e+06
9410.000000 7.82959000e+06
9430.000000 7.97477000e+06
9450.000000 7.95455000e+06
9470.000000 7.93569000e+06
9490.000000 7.88721000e+06
9510.000000 7.78159000e+06
9530.000000 7.44492000e+06
9550.000000 6.07501000e+06
9570.000000 7.42641000e+06
9590.000000 7.59414000e+06
9610.000000 7.50382000e+06
9630.000000 7.37438000e+06
9650.000000 7.45024000e+06
9670.000000 7.31712000e+06
9690.000000 7.29858000e+06
9710.000000 7.35885000e+06
9730.000000 7.29839000e+06
9750.000000 7.19476000e+06
9770.000000 7.21467000e+06
9790.000000 7.16479000e+06
9810.000000 7.11172000e+06
9830.000000 7.05903000e+06
9850.000000 6.96128000e+06
9870.000000 6.93503000e+06
9890.000000 6.85886000e+06
9910.000000 6.84463000e+06
9930.000000 6.81365000e+06
9950.000000 6.77145000e+06
9970.000000 6.75757000e+06
9990.000000 6.70223000e+06
10025.000000 6.33426000e+06
10075.000000 6.02029000e+06
10125.000000 6.34720000e+06
10175.000000 6.30899000e+06
10225.000000 6.23519000e+06
10275.000000 6.15181000e+06
10325.000000 6.01781000e+06
10375.000000 5.94700000e+06
10425.000000 5.86063000e+06
10475.000000 5.69460000e+06
10525.000000 5.63926000e+06
10575.000000 5.57427000e+06
10625.000000 5.49223000e+06
10675.000000 5.31428000e+06
10725.000000 5.29826000e+06
10775.000000 5.23005000e+06
10825.000000 5.15420000e+06
10875.000000 5.07283000e+06
10925.000000 4.51738000e+06
10975.000000 4.82349000e+06
11025.000000 4.89699000e+06
11075.000000 4.83752000e+06
11125.000000 4.75061000e+06
11175.000000 4.68647000e+06
11225.000000 4.62956000e+06
11275.000000 4.47332000e+06
11325.000000 4.41745000e+06
11375.000000 4.40724000e+06
11425.000000 4.31709000e+06
11475.000000 4.30959000e+06
11525.000000 4.25384000e+06
11575.000000 4.18568000e+06
11625.000000 4.07253000e+06
11675.000000 3.99378000e+06
11725.000000 4.01925000e+06
11775.000000 3.88602000e+06
11825.000000 3.86588000e+06
11875.000000 3.78825000e+06
11925.000000 3.80953000e+06
11975.000000 3.71290000e+06
12025.000000 3.68782000e+06
12075.000000 3.62788000e+06
12125.000000 3.58291000e+06
12175.000000 3.54845000e+06
12225.000000 3.49428000e+06
12275.000000 3.44237000e+06
12325.000000 3.40011000e+06
12375.000000 3.36039000e+06
12425.000000 3.32535000e+06
12475.000000 3.27066000e+06
12525.000000 3.22635000e+06
12575.000000 3.16191000e+06
12625.000000 3.13692000e+06
12675.000000 3.10964000e+06
12725.000000 3.07292000e+06
12775.000000 3.00644000e+06
12825.000000 2.68116000e+06
12875.000000 2.93605000e+06
12925.000000 2.91203000e+06
12975.000000 2.87687000e+06
13025.000000 2.84395000e+06
13075.000000 2.80990000e+06
13125.000000 2.76972000e+06
13175.000000 2.72356000e+06
13225.000000 2.70322000e+06
13275.000000 2.66836000e+06
13325.000000 2.63692000e+06
13375.000000 2.60355000e+06
13425.000000 2.56998000e+06
13475.000000 2.53829000e+06
13525.000000 2.49896000e+06
13575.000000 2.46648000e+06
13625.000000 2.44476000e+06
13675.000000 2.41039000e+06
13725.000000 2.35786000e+06
13775.000000 2.34832000e+06
13825.000000 2.32210000e+06
13875.000000 2.30285000e+06
13925.000000 2.26400000e+06
13975.000000 2.24262000e+06
14025.000000 2.21689000e+06
14075.000000 2.19337000e+06
14125.000000 2.16296000e+06
14175.000000 2.13910000e+06
14225.000000 2.11143000e+06
14275.000000 2.08502000e+06
14325.000000 2.06351000e+06
14375.000000 2.04243000e+06
14425.000000 1.97652000e+06
14475.000000 1.99130000e+06
14525.000000 1.94708000e+06
14570.000000 1.94607000e+06
14620.000000 1.91815000e+06
14675.000000 1.90240000e+06
14725.000000 1.87526000e+06
14775.000000 1.84671000e+06
14825.000000 1.83153000e+06
14875.000000 1.80221000e+06
14925.000000 1.79845000e+06
14975.000000 1.77251000e+06
15025.000000 1.74004000e+06
15075.000000 1.71973000e+06
15125.000000 1.70690000e+06
