# Kurucz ODFNEW /NOVER, alpha: 0.0 (2003)
# teff = 28000 K (value for the effective temperature for the model. Temperatures are given in K)
# logg = 4 log(cm/s2) (value for Log(G) for the model.)
# lh = 1.25  (l/Hp where l is the  mixing length of the convective element and Hp is the pressure scale height)
# meta = -0.5  (value for the Metallicity for the model.)
# vtur = 2 km/s (Microturbulence velocity)
# alpha = 0  (Alpha)
#
# column 1: WAVELENGTH (ANGSTROM), Wavelength in Angstrom
# column 2: FLUX (ERG/CM2/S/A), Flux in erg/cm2/s/A
147.200000 4.29379000e-11
151.000000 1.58371000e-10
155.200000 6.25520000e-10
158.800000 1.92417000e-09
162.000000 5.02550000e-09
166.000000 1.58834000e-08
170.300000 5.16329000e-08
173.400000 1.16724000e-07
176.800000 2.76477000e-07
180.200000 6.34413000e-07
181.700000 9.06287000e-07
186.100000 2.49991000e-06
191.000000 7.33074000e-06
193.900000 1.35072000e-05
198.400000 3.36603000e-05
201.800000 6.53146000e-05
205.000000 1.19442000e-04
210.500000 3.23096000e-04
216.200000 8.58276000e-04
219.800000 1.54920000e-03
223.000000 2.57633000e-03
226.800000 4.63589000e-03
230.000000 1.32867000e+00
234.000000 3.06284000e+00
240.000000 6.04356000e+00
246.500000 1.25322000e+01
252.400000 2.36070000e+01
256.800000 3.35123000e+01
260.000000 5.38913000e+01
264.000000 7.82799000e+01
268.500000 1.21021000e+02
273.500000 1.88369000e+02
278.500000 2.83875000e+02
284.000000 4.99357000e+02
290.000000 7.92252000e+02
296.000000 1.22643000e+03
301.000000 1.70150000e+03
308.000000 2.76622000e+03
318.000000 6.06498000e+03
328.000000 1.07335000e+04
338.000000 1.97578000e+04
348.000000 3.39076000e+04
357.000000 8.55828000e+04
366.000000 1.47080000e+05
375.000000 2.06846000e+05
385.000000 3.19810000e+05
395.000000 5.09735000e+05
405.000000 7.13587000e+05
414.000000 9.89828000e+05
422.000000 1.23678000e+06
430.000000 1.61694000e+06
441.000000 2.23406000e+06
451.000000 2.91436000e+06
460.000000 3.61578000e+06
470.000000 4.73410000e+06
480.000000 6.00331000e+06
490.000000 7.60127000e+06
500.000000 9.52236000e+06
506.000000 4.52497000e+07
512.000000 2.09186000e+08
520.000000 2.15240000e+08
530.000000 2.28961000e+08
540.000000 2.24294000e+08
550.000000 2.90611000e+08
560.000000 3.33158000e+08
570.000000 3.69633000e+08
580.000000 3.50647000e+08
590.000000 4.17443000e+08
600.000000 4.31031000e+08
610.000000 4.83937000e+08
620.000000 5.34134000e+08
630.000000 5.55887000e+08
640.000000 5.43912000e+08
650.000000 5.49829000e+08
658.000000 6.09761000e+08
665.000000 6.67758000e+08
675.000000 6.86427000e+08
685.000000 6.79538000e+08
695.000000 8.19871000e+08
705.000000 8.03902000e+08
716.000000 9.03361000e+08
726.000000 9.18387000e+08
735.000000 9.42268000e+08
745.000000 1.02255000e+09
755.000000 1.05658000e+09
765.000000 1.10800000e+09
775.000000 1.15924000e+09
785.000000 1.22362000e+09
795.000000 1.25156000e+09
805.000000 1.27792000e+09
815.000000 1.29394000e+09
825.000000 1.37579000e+09
835.000000 1.26199000e+09
845.000000 1.40509000e+09
855.000000 1.42993000e+09
865.000000 1.49327000e+09
875.000000 1.55755000e+09
885.000000 1.63246000e+09
895.000000 1.68131000e+09
905.000000 1.68373000e+09
915.000000 2.19403000e+09
925.000000 1.29179000e+10
935.000000 2.57127000e+10
945.000000 4.28059000e+10
955.000000 4.81350000e+10
965.000000 5.61640000e+10
975.000000 1.85344000e+10
985.000000 4.94100000e+10
995.000000 4.59446000e+10
1005.000000 4.93093000e+10
1015.000000 4.94870000e+10
1025.000000 3.10552000e+10
1035.000000 4.40375000e+10
1045.000000 5.44417000e+10
1055.000000 5.12821000e+10
1065.000000 4.44280000e+10
1075.000000 4.76411000e+10
1085.000000 4.34164000e+10
1095.000000 4.70352000e+10
1105.000000 4.43766000e+10
1115.000000 4.37054000e+10
1125.000000 3.72942000e+10
1135.000000 4.27022000e+10
1145.000000 3.95400000e+10
1155.000000 3.97705000e+10
1165.000000 3.90546000e+10
1175.000000 2.70907000e+10
1185.000000 3.61779000e+10
1195.000000 3.47018000e+10
1205.000000 3.02364000e+10
1215.000000 2.09696000e+10
1225.000000 3.19685000e+10
1235.000000 3.41699000e+10
1245.000000 3.30301000e+10
1255.000000 3.27570000e+10
1265.000000 3.28886000e+10
1275.000000 3.31719000e+10
1285.000000 3.26941000e+10
1295.000000 2.84261000e+10
1305.000000 2.92332000e+10
1315.000000 3.12499000e+10
1325.000000 2.97414000e+10
1335.000000 2.87965000e+10
1345.000000 2.86427000e+10
1355.000000 2.84349000e+10
1365.000000 2.70452000e+10
1375.000000 2.64321000e+10
1385.000000 2.58593000e+10
1395.000000 2.08476000e+10
1405.000000 2.16970000e+10
1415.000000 2.37339000e+10
1425.000000 2.23816000e+10
1435.000000 2.30202000e+10
1442.000000 2.32466000e+10
1447.000000 2.28487000e+10
1455.000000 2.21426000e+10
1465.000000 2.12200000e+10
1475.000000 2.11774000e+10
1485.000000 2.09170000e+10
1495.000000 2.03718000e+10
1505.000000 1.92438000e+10
1512.000000 1.80196000e+10
1517.000000 1.83168000e+10
1525.000000 1.82353000e+10
1535.000000 1.60255000e+10
1545.000000 1.54667000e+10
1555.000000 1.48998000e+10
1565.000000 1.58599000e+10
1575.000000 1.64975000e+10
1585.000000 1.63860000e+10
1595.000000 1.62315000e+10
1605.000000 1.56218000e+10
1615.000000 1.51069000e+10
1625.000000 1.51698000e+10
1635.000000 1.54865000e+10
1645.000000 1.51721000e+10
1655.000000 1.52341000e+10
1665.000000 1.50788000e+10
1672.000000 1.44542000e+10
1677.000000 1.56260000e+10
1685.000000 1.50268000e+10
1695.000000 1.44449000e+10
1705.000000 1.40582000e+10
1715.000000 1.34938000e+10
1725.000000 1.31796000e+10
1735.000000 1.34348000e+10
1745.000000 1.31922000e+10
1755.000000 1.31133000e+10
1765.000000 1.28562000e+10
1775.000000 1.23459000e+10
1785.000000 1.24196000e+10
1795.000000 1.23892000e+10
1805.000000 1.23806000e+10
1815.000000 1.16259000e+10
1825.000000 1.17228000e+10
1835.000000 1.15014000e+10
1845.000000 1.05989000e+10
1855.000000 1.06931000e+10
1865.000000 1.08003000e+10
1875.000000 1.08423000e+10
1885.000000 9.93334000e+09
1895.000000 9.35984000e+09
1905.000000 9.86102000e+09
1915.000000 9.46656000e+09
1925.000000 9.00603000e+09
1935.000000 9.43648000e+09
1945.000000 9.60031000e+09
1955.000000 8.73815000e+09
1967.000000 9.19339000e+09
1976.000000 9.53629000e+09
1984.000000 8.92683000e+09
1995.000000 8.72682000e+09
2005.000000 8.85290000e+09
2015.000000 8.84476000e+09
2025.000000 8.93971000e+09
2035.000000 8.35537000e+09
2045.000000 8.33808000e+09
2055.000000 7.73419000e+09
2065.000000 7.66388000e+09
2074.000000 7.96886000e+09
2078.000000 7.54011000e+09
2085.000000 7.74981000e+09
2095.000000 7.58476000e+09
2105.000000 7.79462000e+09
2115.000000 7.75756000e+09
2125.000000 7.78516000e+09
2135.000000 7.63587000e+09
2145.000000 7.35556000e+09
2155.000000 7.47160000e+09
2165.000000 7.36118000e+09
2175.000000 7.27016000e+09
2185.000000 7.12998000e+09
2195.000000 7.12975000e+09
2205.000000 7.03780000e+09
2215.000000 6.92610000e+09
2225.000000 6.80029000e+09
2235.000000 6.67117000e+09
2245.000000 6.65260000e+09
2255.000000 6.50187000e+09
2265.000000 6.47660000e+09
2275.000000 6.39300000e+09
2285.000000 6.31234000e+09
2295.000000 5.90977000e+09
2305.000000 6.10436000e+09
2315.000000 6.00169000e+09
2325.000000 5.92710000e+09
2335.000000 5.81654000e+09
2345.000000 5.80664000e+09
2355.000000 5.73114000e+09
2365.000000 5.66136000e+09
2375.000000 5.55761000e+09
2385.000000 5.47468000e+09
2395.000000 5.40745000e+09
2405.000000 5.34557000e+09
2415.000000 5.26703000e+09
2425.000000 5.22208000e+09
2435.000000 5.11549000e+09
2445.000000 5.07341000e+09
2455.000000 5.02666000e+09
2465.000000 4.96036000e+09
2475.000000 4.88499000e+09
2485.000000 4.80769000e+09
2495.000000 4.23908000e+09
2505.000000 4.65672000e+09
2513.000000 4.49820000e+09
2518.000000 4.58190000e+09
2525.000000 4.57839000e+09
2535.000000 4.52827000e+09
2545.000000 4.40906000e+09
2555.000000 4.38506000e+09
2565.000000 4.34469000e+09
2575.000000 4.30005000e+09
2585.000000 4.24807000e+09
2595.000000 4.19777000e+09
2605.000000 4.16344000e+09
2615.000000 4.10615000e+09
2625.000000 4.06251000e+09
2635.000000 4.01199000e+09
2645.000000 3.95538000e+09
2655.000000 3.91115000e+09
2665.000000 3.82674000e+09
2675.000000 3.79060000e+09
2685.000000 3.77517000e+09
2695.000000 3.67163000e+09
2705.000000 3.64289000e+09
2715.000000 3.61319000e+09
2725.000000 3.56567000e+09
2735.000000 3.53138000e+09
2745.000000 3.49030000e+09
2755.000000 3.45840000e+09
2765.000000 3.39593000e+09
2775.000000 3.39146000e+09
2785.000000 3.34301000e+09
2795.000000 3.24742000e+09
2805.000000 3.24902000e+09
2815.000000 3.23605000e+09
2825.000000 3.17570000e+09
2835.000000 3.10876000e+09
2845.000000 3.12395000e+09
2855.000000 3.07659000e+09
2865.000000 3.04744000e+09
2875.000000 3.01370000e+09
2885.000000 2.98166000e+09
2895.000000 2.94352000e+09
2910.000000 2.88652000e+09
2930.000000 2.83105000e+09
2950.000000 2.74739000e+09
2970.000000 2.70432000e+09
2990.000000 2.64129000e+09
3010.000000 2.56772000e+09
3030.000000 2.52811000e+09
3050.000000 2.47882000e+09
3070.000000 2.43004000e+09
3090.000000 2.35181000e+09
3110.000000 2.32470000e+09
3130.000000 2.27097000e+09
3150.000000 2.22548000e+09
3170.000000 2.17623000e+09
3190.000000 2.12134000e+09
3210.000000 2.08954000e+09
3230.000000 2.04367000e+09
3250.000000 2.00643000e+09
3270.000000 1.96382000e+09
3290.000000 1.92265000e+09
3310.000000 1.88714000e+09
3330.000000 1.84656000e+09
3350.000000 1.80924000e+09
3370.000000 1.77446000e+09
3390.000000 1.74267000e+09
3410.000000 1.70894000e+09
3430.000000 1.66954000e+09
3450.000000 1.63166000e+09
3470.000000 1.60311000e+09
3490.000000 1.57152000e+09
3510.000000 1.54568000e+09
3530.000000 1.52056000e+09
3550.000000 1.49143000e+09
3570.000000 1.46966000e+09
3590.000000 1.43085000e+09
3610.000000 1.40741000e+09
3630.000000 1.38022000e+09
3640.000000 1.37688000e+09
3650.000000 1.34692000e+09
3670.000000 1.32932000e+09
3690.000000 1.30122000e+09
3710.000000 1.25592000e+09
3730.000000 1.20948000e+09
3750.000000 1.24679000e+09
3770.000000 1.23413000e+09
3790.000000 1.27632000e+09
3810.000000 1.31351000e+09
3830.000000 1.17185000e+09
3850.000000 1.32367000e+09
3870.000000 1.31027000e+09
3890.000000 1.11059000e+09
3910.000000 1.28929000e+09
3930.000000 1.25645000e+09
3950.000000 1.23914000e+09
3970.000000 1.02901000e+09
3990.000000 1.19519000e+09
4010.000000 1.18184000e+09
4030.000000 1.12734000e+09
4050.000000 1.14839000e+09
4070.000000 1.10843000e+09
4090.000000 1.04564000e+09
4110.000000 9.42353000e+08
4130.000000 1.05130000e+09
4150.000000 1.04146000e+09
4170.000000 1.03251000e+09
4190.000000 1.01596000e+09
4210.000000 1.00257000e+09
4230.000000 9.84391000e+08
4250.000000 9.62279000e+08
4270.000000 9.39236000e+08
4290.000000 9.27858000e+08
4310.000000 9.05780000e+08
4330.000000 8.44828000e+08
4350.000000 7.78564000e+08
4370.000000 8.61687000e+08
4390.000000 8.42124000e+08
4410.000000 8.40140000e+08
4430.000000 8.29980000e+08
4450.000000 8.16943000e+08
4470.000000 7.80217000e+08
4490.000000 7.90922000e+08
4510.000000 7.80774000e+08
4530.000000 7.68480000e+08
4550.000000 7.55024000e+08
4570.000000 7.42820000e+08
4590.000000 7.30621000e+08
4610.000000 7.18055000e+08
4630.000000 7.06856000e+08
4650.000000 6.85056000e+08
4670.000000 6.84608000e+08
4690.000000 6.75202000e+08
4710.000000 6.55317000e+08
4730.000000 6.55545000e+08
4750.000000 6.44527000e+08
4770.000000 6.38819000e+08
4790.000000 6.28684000e+08
4810.000000 6.17898000e+08
4830.000000 6.05573000e+08
4850.000000 5.72674000e+08
4870.000000 5.19183000e+08
4890.000000 5.79303000e+08
4910.000000 5.73124000e+08
4930.000000 5.54456000e+08
4950.000000 5.55427000e+08
4970.000000 5.49761000e+08
4990.000000 5.41444000e+08
5010.000000 5.24717000e+08
5030.000000 5.25526000e+08
5050.000000 5.15153000e+08
5070.000000 5.10921000e+08
5090.000000 5.03264000e+08
5110.000000 4.95898000e+08
5130.000000 4.87916000e+08
5150.000000 4.81222000e+08
5170.000000 4.75068000e+08
5190.000000 4.68756000e+08
5210.000000 4.62055000e+08
5230.000000 4.55650000e+08
5250.000000 4.49314000e+08
5270.000000 4.42858000e+08
5290.000000 4.37012000e+08
5310.000000 4.30907000e+08
5330.000000 4.25093000e+08
5350.000000 4.19157000e+08
5370.000000 4.13611000e+08
5390.000000 4.07798000e+08
5410.000000 4.02240000e+08
5430.000000 3.97008000e+08
5450.000000 3.91575000e+08
5470.000000 3.86350000e+08
5490.000000 3.81190000e+08
5510.000000 3.76306000e+08
5530.000000 3.71113000e+08
5550.000000 3.66425000e+08
5570.000000 3.61528000e+08
5590.000000 3.56824000e+08
5610.000000 3.52141000e+08
5630.000000 3.47611000e+08
5650.000000 3.42783000e+08
5670.000000 3.37720000e+08
5690.000000 3.32453000e+08
5710.000000 3.29458000e+08
5730.000000 3.25407000e+08
5750.000000 3.20652000e+08
5770.000000 3.17369000e+08
5790.000000 3.13214000e+08
5810.000000 3.09275000e+08
5830.000000 3.05062000e+08
5850.000000 3.01472000e+08
5870.000000 2.90226000e+08
5890.000000 2.92917000e+08
5910.000000 2.90042000e+08
5930.000000 2.86247000e+08
5950.000000 2.82676000e+08
5970.000000 2.79781000e+08
5990.000000 2.75910000e+08
6010.000000 2.72805000e+08
6030.000000 2.69289000e+08
6050.000000 2.66111000e+08
6070.000000 2.63001000e+08
6090.000000 2.59834000e+08
6110.000000 2.56702000e+08
6130.000000 2.53637000e+08
6150.000000 2.50237000e+08
6170.000000 2.47370000e+08
6190.000000 2.44545000e+08
6210.000000 2.41702000e+08
6230.000000 2.38862000e+08
6250.000000 2.35909000e+08
6270.000000 2.33189000e+08
6290.000000 2.30490000e+08
6310.000000 2.27725000e+08
6330.000000 2.25132000e+08
6350.000000 2.22380000e+08
6370.000000 2.19899000e+08
6390.000000 2.17326000e+08
6410.000000 2.14825000e+08
6430.000000 2.12380000e+08
6450.000000 2.09923000e+08
6470.000000 2.07251000e+08
6490.000000 2.04947000e+08
6510.000000 2.02765000e+08
6530.000000 1.99881000e+08
6550.000000 1.93306000e+08
6570.000000 1.73724000e+08
6590.000000 1.91895000e+08
6610.000000 1.91408000e+08
6630.000000 1.89424000e+08
6650.000000 1.87306000e+08
6670.000000 1.83754000e+08
6690.000000 1.81731000e+08
6710.000000 1.81219000e+08
6730.000000 1.79020000e+08
6750.000000 1.77266000e+08
6770.000000 1.75325000e+08
6790.000000 1.72961000e+08
6810.000000 1.71443000e+08
6830.000000 1.69552000e+08
6850.000000 1.67777000e+08
6870.000000 1.65955000e+08
6890.000000 1.64073000e+08
6910.000000 1.62241000e+08
6930.000000 1.60647000e+08
6950.000000 1.58936000e+08
6970.000000 1.57234000e+08
6990.000000 1.55549000e+08
7010.000000 1.53896000e+08
7030.000000 1.52244000e+08
7050.000000 1.50646000e+08
7070.000000 1.46909000e+08
7090.000000 1.47490000e+08
7110.000000 1.45789000e+08
7130.000000 1.44320000e+08
7150.000000 1.42903000e+08
7170.000000 1.41396000e+08
7190.000000 1.39947000e+08
7210.000000 1.38498000e+08
7230.000000 1.36046000e+08
7250.000000 1.35533000e+08
7270.000000 1.34254000e+08
7290.000000 1.31888000e+08
7310.000000 1.31498000e+08
7330.000000 1.30158000e+08
7350.000000 1.28851000e+08
7370.000000 1.27549000e+08
7390.000000 1.26252000e+08
7410.000000 1.24982000e+08
7430.000000 1.23716000e+08
7450.000000 1.22482000e+08
7470.000000 1.21071000e+08
7490.000000 1.20023000e+08
7510.000000 1.18810000e+08
7530.000000 1.17641000e+08
7550.000000 1.16503000e+08
7570.000000 1.15350000e+08
7590.000000 1.14206000e+08
7610.000000 1.13021000e+08
7630.000000 1.11964000e+08
7650.000000 1.10870000e+08
7670.000000 1.09787000e+08
7690.000000 1.08713000e+08
7710.000000 1.07649000e+08
7730.000000 1.06595000e+08
7750.000000 1.05581000e+08
7770.000000 1.04489000e+08
7790.000000 1.03556000e+08
7810.000000 1.02508000e+08
7830.000000 1.01579000e+08
7850.000000 1.00671000e+08
7870.000000 9.96674000e+07
7890.000000 9.86362000e+07
7910.000000 9.78190000e+07
7930.000000 9.68589000e+07
7950.000000 9.59489000e+07
7970.000000 9.49342000e+07
7990.000000 9.40583000e+07
8010.000000 9.31253000e+07
8030.000000 9.22647000e+07
8050.000000 9.14347000e+07
8070.000000 9.06061000e+07
8090.000000 8.96291000e+07
8110.000000 8.86893000e+07
8130.000000 8.81508000e+07
8150.000000 8.72139000e+07
8170.000000 8.65561000e+07
8190.000000 8.55441000e+07
8210.000000 8.45801000e+07
8230.000000 8.39137000e+07
8250.000000 8.32970000e+07
8270.000000 8.20353000e+07
8290.000000 8.17057000e+07
8310.000000 8.10074000e+07
8330.000000 8.02497000e+07
8350.000000 7.91795000e+07
8370.000000 7.86725000e+07
8390.000000 7.80784000e+07
8410.000000 7.73560000e+07
8430.000000 7.66130000e+07
8450.000000 7.54593000e+07
8470.000000 7.51454000e+07
8490.000000 7.44311000e+07
8510.000000 7.35875000e+07
8530.000000 7.31859000e+07
8550.000000 7.16534000e+07
8570.000000 7.26017000e+07
8590.000000 6.99564000e+07
8610.000000 6.96927000e+07
8630.000000 7.12164000e+07
8650.000000 6.93517000e+07
8670.000000 6.55790000e+07
8690.000000 6.93982000e+07
8710.000000 6.95020000e+07
8730.000000 6.75922000e+07
8750.000000 6.19989000e+07
8770.000000 6.57280000e+07
8790.000000 6.73601000e+07
8810.000000 6.69430000e+07
8830.000000 6.61327000e+07
8850.000000 6.25922000e+07
8870.000000 5.84413000e+07
8890.000000 6.39370000e+07
8910.000000 6.41533000e+07
8930.000000 6.36678000e+07
8950.000000 6.32801000e+07
8970.000000 6.26518000e+07
8990.000000 6.10821000e+07
9010.000000 5.51543000e+07
9030.000000 5.75899000e+07
9050.000000 6.02381000e+07
9070.000000 5.96109000e+07
9090.000000 5.95313000e+07
9110.000000 5.92611000e+07
9130.000000 5.88029000e+07
9150.000000 5.83121000e+07
9170.000000 5.76235000e+07
9190.000000 5.70339000e+07
9210.000000 5.48323000e+07
9230.000000 4.91204000e+07
9250.000000 5.40465000e+07
9270.000000 5.50761000e+07
9290.000000 5.49222000e+07
9310.000000 5.43257000e+07
9330.000000 5.40281000e+07
9350.000000 5.36335000e+07
9370.000000 5.32417000e+07
9390.000000 5.28144000e+07
9410.000000 5.23689000e+07
9430.000000 5.19521000e+07
9450.000000 5.15341000e+07
9470.000000 5.08378000e+07
9490.000000 5.06028000e+07
9510.000000 4.95988000e+07
9530.000000 4.77399000e+07
9550.000000 4.30749000e+07
9570.000000 4.78928000e+07
9590.000000 4.84593000e+07
9610.000000 4.81232000e+07
9630.000000 4.76879000e+07
9650.000000 4.75673000e+07
9670.000000 4.71935000e+07
9690.000000 4.67782000e+07
9710.000000 4.62820000e+07
9730.000000 4.60840000e+07
9750.000000 4.57207000e+07
9770.000000 4.53680000e+07
9790.000000 4.50099000e+07
9810.000000 4.46425000e+07
9830.000000 4.43129000e+07
9850.000000 4.39623000e+07
9870.000000 4.36141000e+07
9890.000000 4.32608000e+07
9910.000000 4.28178000e+07
9930.000000 4.26226000e+07
9950.000000 4.22954000e+07
9970.000000 4.19553000e+07
9990.000000 4.15836000e+07
10025.000000 3.96257000e+07
10075.000000 3.83575000e+07
10125.000000 3.94128000e+07
10175.000000 3.88189000e+07
10225.000000 3.80763000e+07
10275.000000 3.73855000e+07
10325.000000 3.65649000e+07
10375.000000 3.60208000e+07
10425.000000 3.53606000e+07
10475.000000 3.47149000e+07
10525.000000 3.40832000e+07
10575.000000 3.34689000e+07
10625.000000 3.28666000e+07
10675.000000 3.22226000e+07
10725.000000 3.17027000e+07
10775.000000 3.11399000e+07
10825.000000 3.02848000e+07
10875.000000 2.99840000e+07
10925.000000 2.74714000e+07
10975.000000 2.85056000e+07
11025.000000 2.83368000e+07
11075.000000 2.79971000e+07
11125.000000 2.75302000e+07
11175.000000 2.70596000e+07
11225.000000 2.65847000e+07
11275.000000 2.61423000e+07
11325.000000 2.56908000e+07
11375.000000 2.52680000e+07
11425.000000 2.48407000e+07
11475.000000 2.44301000e+07
11525.000000 2.40243000e+07
11575.000000 2.36213000e+07
11625.000000 2.32337000e+07
11675.000000 2.28455000e+07
11725.000000 2.24803000e+07
11775.000000 2.21127000e+07
11825.000000 2.17536000e+07
11875.000000 2.14028000e+07
11925.000000 2.10581000e+07
11975.000000 2.05406000e+07
12025.000000 2.03889000e+07
12075.000000 2.00646000e+07
12125.000000 1.97462000e+07
12175.000000 1.94344000e+07
12225.000000 1.91288000e+07
12275.000000 1.88293000e+07
12325.000000 1.85352000e+07
12375.000000 1.82467000e+07
12425.000000 1.79645000e+07
12475.000000 1.76840000e+07
12525.000000 1.73786000e+07
12575.000000 1.71458000e+07
12625.000000 1.68848000e+07
12675.000000 1.66306000e+07
12725.000000 1.63776000e+07
12775.000000 1.58837000e+07
12825.000000 1.47917000e+07
12875.000000 1.55737000e+07
12925.000000 1.54173000e+07
12975.000000 1.50944000e+07
13025.000000 1.49616000e+07
13075.000000 1.47441000e+07
