# Kurucz ODFNEW /NOVER, alpha: 0.0 (2003)
# teff = 21000 K (value for the effective temperature for the model. Temperatures are given in K)
# logg = 3 log(cm/s2) (value for Log(G) for the model.)
# lh = 1.25  (l/Hp where l is the  mixing length of the convective element and Hp is the pressure scale height)
# meta = 0.5  (value for the Metallicity for the model.)
# vtur = 2 km/s (Microturbulence velocity)
# alpha = 0  (Alpha)
#
# column 1: WAVELENGTH (ANGSTROM), Wavelength in Angstrom
# column 2: FLUX (ERG/CM2/S/A), Flux in erg/cm2/s/A
147.200000 1.17252000e-19
151.000000 6.71689000e-19
155.200000 4.21054000e-18
158.800000 1.88862000e-17
162.000000 6.80895000e-17
166.000000 3.16849000e-16
170.300000 1.52863000e-15
173.400000 4.57024000e-15
176.800000 1.45301000e-14
180.200000 4.43044000e-14
181.700000 7.14961000e-14
186.100000 2.79774000e-13
191.000000 1.19387000e-12
193.900000 2.72538000e-12
198.400000 9.37666000e-12
201.800000 2.30368000e-11
205.000000 5.23127000e-11
210.500000 2.02749000e-10
216.200000 7.69837000e-10
219.800000 1.72769000e-09
223.000000 3.47040000e-09
226.800000 7.75163000e-09
230.000000 2.08298000e-07
234.000000 5.35014000e-07
240.000000 1.55558000e-06
246.500000 4.66387000e-06
252.400000 1.21755000e-05
256.800000 2.33226000e-05
260.000000 4.11883000e-05
264.000000 7.32638000e-05
268.500000 1.37837000e-04
273.500000 2.70285000e-04
278.500000 5.23404000e-04
284.000000 1.10993000e-03
290.000000 2.27977000e-03
296.000000 4.57324000e-03
301.000000 7.94158000e-03
308.000000 1.75867000e-02
318.000000 5.00771000e-02
328.000000 1.26430000e-01
338.000000 3.19401000e-01
348.000000 7.40524000e-01
357.000000 2.89329000e+00
366.000000 5.94837000e+00
375.000000 1.05104000e+01
385.000000 1.99933000e+01
395.000000 3.88718000e+01
405.000000 6.83453000e+01
414.000000 1.13131000e+02
422.000000 1.76455000e+02
430.000000 2.74448000e+02
441.000000 4.69166000e+02
451.000000 7.23710000e+02
460.000000 1.06266000e+03
470.000000 1.65202000e+03
480.000000 2.46771000e+03
490.000000 3.67582000e+03
500.000000 5.29862000e+03
506.000000 2.58494000e+04
512.000000 7.50846000e+05
520.000000 9.06129000e+05
530.000000 1.14796000e+06
540.000000 1.26899000e+06
550.000000 2.18877000e+06
560.000000 2.70138000e+06
570.000000 3.49956000e+06
580.000000 3.26559000e+06
590.000000 4.80484000e+06
600.000000 5.93862000e+06
610.000000 7.50492000e+06
620.000000 8.41212000e+06
630.000000 9.15541000e+06
640.000000 8.33873000e+06
650.000000 5.76088000e+06
658.000000 1.03909000e+07
665.000000 1.30289000e+07
675.000000 1.37851000e+07
685.000000 1.39010000e+07
695.000000 2.00155000e+07
705.000000 2.06312000e+07
716.000000 2.37513000e+07
726.000000 2.45697000e+07
735.000000 2.64221000e+07
745.000000 3.14185000e+07
755.000000 3.44877000e+07
765.000000 3.79333000e+07
775.000000 4.13093000e+07
785.000000 4.49697000e+07
795.000000 4.72896000e+07
805.000000 4.96025000e+07
815.000000 5.19421000e+07
825.000000 5.83782000e+07
835.000000 4.77660000e+07
845.000000 6.06809000e+07
855.000000 6.20938000e+07
865.000000 6.80527000e+07
875.000000 7.42363000e+07
885.000000 8.28470000e+07
895.000000 8.81312000e+07
905.000000 8.31723000e+07
915.000000 1.84521000e+08
925.000000 2.58604000e+09
935.000000 4.74583000e+09
945.000000 6.70290000e+09
955.000000 8.16803000e+09
965.000000 6.25964000e+09
975.000000 8.86912000e+08
985.000000 3.28785000e+09
995.000000 5.62264000e+09
1005.000000 8.72760000e+09
1015.000000 9.09877000e+09
1025.000000 7.08117000e+09
1035.000000 6.00917000e+09
1045.000000 1.21410000e+10
1055.000000 1.09865000e+10
1065.000000 7.68322000e+09
1075.000000 1.01267000e+10
1085.000000 8.26470000e+09
1095.000000 1.05375000e+10
1105.000000 8.75161000e+09
1115.000000 7.48989000e+09
1125.000000 5.52909000e+09
1135.000000 9.56457000e+09
1145.000000 8.69277000e+09
1155.000000 9.13058000e+09
1165.000000 8.78270000e+09
1175.000000 4.02782000e+09
1185.000000 8.41710000e+09
1195.000000 6.95961000e+09
1205.000000 2.42063000e+09
1215.000000 4.80231000e+09
1225.000000 7.89698000e+09
1235.000000 9.64260000e+09
1245.000000 9.11622000e+09
1255.000000 9.08585000e+09
1265.000000 9.19043000e+09
1275.000000 9.63593000e+09
1285.000000 9.66016000e+09
1295.000000 4.70557000e+09
1305.000000 5.51946000e+09
1315.000000 9.32594000e+09
1325.000000 8.56642000e+09
1335.000000 7.73318000e+09
1345.000000 8.85291000e+09
1355.000000 8.50728000e+09
1365.000000 7.30823000e+09
1375.000000 7.10946000e+09
1385.000000 6.63068000e+09
1395.000000 3.95270000e+09
1405.000000 4.67528000e+09
1415.000000 5.69791000e+09
1425.000000 6.00392000e+09
1435.000000 6.34461000e+09
1442.000000 6.58735000e+09
1447.000000 6.42442000e+09
1455.000000 6.16569000e+09
1465.000000 5.44076000e+09
1475.000000 5.83927000e+09
1485.000000 5.81864000e+09
1495.000000 5.65931000e+09
1505.000000 4.95997000e+09
1512.000000 4.25401000e+09
1517.000000 4.51331000e+09
1525.000000 4.78553000e+09
1535.000000 3.84816000e+09
1545.000000 3.69813000e+09
1555.000000 3.69076000e+09
1565.000000 4.08212000e+09
1575.000000 4.43183000e+09
1585.000000 4.63927000e+09
1595.000000 4.48206000e+09
1605.000000 4.72384000e+09
1615.000000 4.70842000e+09
1625.000000 4.51740000e+09
1635.000000 5.03983000e+09
1645.000000 5.03596000e+09
1655.000000 4.89551000e+09
1665.000000 5.18776000e+09
1672.000000 4.85132000e+09
1677.000000 5.39121000e+09
1685.000000 5.34438000e+09
1695.000000 4.89233000e+09
1705.000000 4.84029000e+09
1715.000000 4.40782000e+09
1725.000000 4.43574000e+09
1735.000000 4.78373000e+09
1745.000000 4.57726000e+09
1755.000000 4.69563000e+09
1765.000000 4.61403000e+09
1775.000000 4.22834000e+09
1785.000000 4.43921000e+09
1795.000000 4.73761000e+09
1805.000000 4.88172000e+09
1815.000000 4.00079000e+09
1825.000000 4.35714000e+09
1835.000000 4.18973000e+09
1845.000000 3.70496000e+09
1855.000000 3.59954000e+09
1865.000000 3.71690000e+09
1875.000000 4.24337000e+09
1885.000000 3.58310000e+09
1895.000000 3.26360000e+09
1905.000000 3.81907000e+09
1915.000000 3.32122000e+09
1925.000000 3.17751000e+09
1935.000000 3.55145000e+09
1945.000000 3.60873000e+09
1955.000000 3.15319000e+09
1967.000000 3.65582000e+09
1976.000000 3.79395000e+09
1984.000000 3.51362000e+09
1995.000000 3.40682000e+09
2005.000000 3.75546000e+09
2015.000000 3.62652000e+09
2025.000000 3.80549000e+09
2035.000000 3.35445000e+09
2045.000000 3.55188000e+09
2055.000000 3.37199000e+09
2065.000000 3.28243000e+09
2074.000000 3.66108000e+09
2078.000000 3.06752000e+09
2085.000000 3.43571000e+09
2095.000000 3.20823000e+09
2105.000000 3.35288000e+09
2115.000000 3.42282000e+09
2125.000000 3.43540000e+09
2135.000000 3.37668000e+09
2145.000000 3.17283000e+09
2155.000000 3.37457000e+09
2165.000000 3.41709000e+09
2175.000000 3.39784000e+09
2185.000000 3.17995000e+09
2195.000000 3.31775000e+09
2205.000000 3.33561000e+09
2215.000000 3.22555000e+09
2225.000000 3.13103000e+09
2235.000000 3.12585000e+09
2245.000000 3.18282000e+09
2255.000000 3.02397000e+09
2265.000000 3.14170000e+09
2275.000000 3.09580000e+09
2285.000000 3.13586000e+09
2295.000000 2.70225000e+09
2305.000000 3.00248000e+09
2315.000000 2.86068000e+09
2325.000000 2.82762000e+09
2335.000000 2.68357000e+09
2345.000000 2.73246000e+09
2355.000000 2.75807000e+09
2365.000000 2.72874000e+09
2375.000000 2.69051000e+09
2385.000000 2.65753000e+09
2395.000000 2.66481000e+09
2405.000000 2.56851000e+09
2415.000000 2.60464000e+09
2425.000000 2.60896000e+09
2435.000000 2.49691000e+09
2445.000000 2.56217000e+09
2455.000000 2.58334000e+09
2465.000000 2.50160000e+09
2475.000000 2.44600000e+09
2485.000000 2.39744000e+09
2495.000000 1.93030000e+09
2505.000000 2.30696000e+09
2513.000000 2.21522000e+09
2518.000000 2.35533000e+09
2525.000000 2.29378000e+09
2535.000000 2.27050000e+09
2545.000000 2.14834000e+09
2555.000000 2.25085000e+09
2565.000000 2.21380000e+09
2575.000000 2.26647000e+09
2585.000000 2.22106000e+09
2595.000000 2.20442000e+09
2605.000000 2.19514000e+09
2615.000000 2.15442000e+09
2625.000000 2.14962000e+09
2635.000000 2.14403000e+09
2645.000000 2.13775000e+09
2655.000000 2.14798000e+09
2665.000000 2.00856000e+09
2675.000000 2.06049000e+09
2685.000000 2.04360000e+09
2695.000000 1.95771000e+09
2705.000000 1.88997000e+09
2715.000000 1.91236000e+09
2725.000000 1.93569000e+09
2735.000000 1.92927000e+09
2745.000000 1.85319000e+09
2755.000000 1.85307000e+09
2765.000000 1.85284000e+09
2775.000000 1.88589000e+09
2785.000000 1.85081000e+09
2795.000000 1.77422000e+09
2805.000000 1.80703000e+09
2815.000000 1.81290000e+09
2825.000000 1.80372000e+09
2835.000000 1.69615000e+09
2845.000000 1.71785000e+09
2855.000000 1.68883000e+09
2865.000000 1.71938000e+09
2875.000000 1.70074000e+09
2885.000000 1.68408000e+09
2895.000000 1.64203000e+09
2910.000000 1.62381000e+09
2930.000000 1.61089000e+09
2950.000000 1.55713000e+09
2970.000000 1.54110000e+09
2990.000000 1.51293000e+09
3010.000000 1.44440000e+09
3030.000000 1.46290000e+09
3050.000000 1.44289000e+09
3070.000000 1.42539000e+09
3090.000000 1.36040000e+09
3110.000000 1.36353000e+09
3130.000000 1.33178000e+09
3150.000000 1.31606000e+09
3170.000000 1.27465000e+09
3190.000000 1.25572000e+09
3210.000000 1.23975000e+09
3230.000000 1.21108000e+09
3250.000000 1.19812000e+09
3270.000000 1.16962000e+09
3290.000000 1.14772000e+09
3310.000000 1.12842000e+09
3330.000000 1.10414000e+09
3350.000000 1.08828000e+09
3370.000000 1.06594000e+09
3390.000000 1.05340000e+09
3410.000000 1.03571000e+09
3430.000000 1.01249000e+09
3450.000000 9.92363000e+08
3470.000000 9.75982000e+08
3490.000000 9.56662000e+08
3510.000000 9.41051000e+08
3530.000000 9.32686000e+08
3550.000000 9.15958000e+08
3570.000000 9.02236000e+08
3590.000000 8.72773000e+08
3610.000000 8.56654000e+08
3630.000000 8.50986000e+08
3640.000000 8.51036000e+08
3650.000000 8.36115000e+08
3670.000000 8.27838000e+08
3690.000000 8.00599000e+08
3710.000000 7.89938000e+08
3730.000000 7.87284000e+08
3750.000000 8.53036000e+08
3770.000000 8.43665000e+08
3790.000000 8.54140000e+08
3810.000000 8.81088000e+08
3830.000000 7.92116000e+08
3850.000000 8.65925000e+08
3870.000000 8.40698000e+08
3890.000000 7.61147000e+08
3910.000000 8.41204000e+08
3930.000000 8.05687000e+08
3950.000000 8.03198000e+08
3970.000000 7.05300000e+08
3990.000000 7.78940000e+08
4010.000000 7.70463000e+08
4030.000000 7.38502000e+08
4050.000000 7.41079000e+08
4070.000000 7.06705000e+08
4090.000000 6.83572000e+08
4110.000000 6.32532000e+08
4130.000000 6.77463000e+08
4150.000000 6.72568000e+08
4170.000000 6.70183000e+08
4190.000000 6.65903000e+08
4210.000000 6.60782000e+08
4230.000000 6.45242000e+08
4250.000000 6.27211000e+08
4270.000000 6.09242000e+08
4290.000000 6.03288000e+08
4310.000000 5.83587000e+08
4330.000000 5.57592000e+08
4350.000000 5.22235000e+08
4370.000000 5.55658000e+08
4390.000000 5.61494000e+08
4410.000000 5.53081000e+08
4430.000000 5.47062000e+08
4450.000000 5.40634000e+08
4470.000000 5.25531000e+08
4490.000000 5.25886000e+08
4510.000000 5.22233000e+08
4530.000000 5.13152000e+08
4550.000000 5.08214000e+08
4570.000000 4.99320000e+08
4590.000000 4.91706000e+08
4610.000000 4.77965000e+08
4630.000000 4.71999000e+08
4650.000000 4.57372000e+08
4670.000000 4.59595000e+08
4690.000000 4.57688000e+08
4710.000000 4.39119000e+08
4730.000000 4.39270000e+08
4750.000000 4.32807000e+08
4770.000000 4.35874000e+08
4790.000000 4.26906000e+08
4810.000000 4.17485000e+08
4830.000000 4.12500000e+08
4850.000000 4.00697000e+08
4870.000000 3.64738000e+08
4890.000000 3.96973000e+08
4910.000000 3.91901000e+08
4930.000000 3.80436000e+08
4950.000000 3.79013000e+08
4970.000000 3.77661000e+08
4990.000000 3.70646000e+08
5010.000000 3.52113000e+08
5030.000000 3.59057000e+08
5050.000000 3.50043000e+08
5070.000000 3.50248000e+08
5090.000000 3.44723000e+08
5110.000000 3.38207000e+08
5130.000000 3.28589000e+08
5150.000000 3.27377000e+08
5170.000000 3.26681000e+08
5190.000000 3.22686000e+08
5210.000000 3.15869000e+08
5230.000000 3.13141000e+08
5250.000000 3.09735000e+08
5270.000000 3.04133000e+08
5290.000000 3.01864000e+08
5310.000000 2.97123000e+08
5330.000000 2.93492000e+08
5350.000000 2.88945000e+08
5370.000000 2.86536000e+08
5390.000000 2.82455000e+08
5410.000000 2.79418000e+08
5430.000000 2.74642000e+08
5450.000000 2.71184000e+08
5470.000000 2.67530000e+08
5490.000000 2.64422000e+08
5510.000000 2.62171000e+08
5530.000000 2.57531000e+08
5550.000000 2.55874000e+08
5570.000000 2.52048000e+08
5590.000000 2.49585000e+08
5610.000000 2.45893000e+08
5630.000000 2.43507000e+08
5650.000000 2.37503000e+08
5670.000000 2.33451000e+08
5690.000000 2.30359000e+08
5710.000000 2.29892000e+08
5730.000000 2.27532000e+08
5750.000000 2.23856000e+08
5770.000000 2.22906000e+08
5790.000000 2.19728000e+08
5810.000000 2.17214000e+08
5830.000000 2.13753000e+08
5850.000000 2.11721000e+08
5870.000000 2.04530000e+08
5890.000000 2.03936000e+08
5910.000000 2.02968000e+08
5930.000000 2.00037000e+08
5950.000000 1.97130000e+08
5970.000000 1.97493000e+08
5990.000000 1.93226000e+08
6010.000000 1.92411000e+08
6030.000000 1.89293000e+08
6050.000000 1.87323000e+08
6070.000000 1.85865000e+08
6090.000000 1.83682000e+08
6110.000000 1.81593000e+08
6130.000000 1.79798000e+08
6150.000000 1.75912000e+08
6170.000000 1.74575000e+08
6190.000000 1.73272000e+08
6210.000000 1.71630000e+08
6230.000000 1.69831000e+08
6250.000000 1.66913000e+08
6270.000000 1.65438000e+08
6290.000000 1.63855000e+08
6310.000000 1.61692000e+08
6330.000000 1.60389000e+08
6350.000000 1.57493000e+08
6370.000000 1.56385000e+08
6390.000000 1.54734000e+08
6410.000000 1.53147000e+08
6430.000000 1.51758000e+08
6450.000000 1.49895000e+08
6470.000000 1.47548000e+08
6490.000000 1.45978000e+08
6510.000000 1.44789000e+08
6530.000000 1.42896000e+08
6550.000000 1.39812000e+08
6570.000000 1.25233000e+08
6590.000000 1.36637000e+08
6610.000000 1.36837000e+08
6630.000000 1.35644000e+08
6650.000000 1.34114000e+08
6670.000000 1.31837000e+08
6690.000000 1.30537000e+08
6710.000000 1.30086000e+08
6730.000000 1.28175000e+08
6750.000000 1.27416000e+08
6770.000000 1.26073000e+08
6790.000000 1.22847000e+08
6810.000000 1.22947000e+08
6830.000000 1.21719000e+08
6850.000000 1.20728000e+08
6870.000000 1.19460000e+08
6890.000000 1.18021000e+08
6910.000000 1.16637000e+08
6930.000000 1.15674000e+08
6950.000000 1.14588000e+08
6970.000000 1.13435000e+08
6990.000000 1.12186000e+08
7010.000000 1.11002000e+08
7030.000000 1.09869000e+08
7050.000000 1.08700000e+08
7070.000000 1.05825000e+08
7090.000000 1.06555000e+08
7110.000000 1.03229000e+08
7130.000000 1.02429000e+08
7150.000000 1.03234000e+08
7170.000000 1.02308000e+08
7190.000000 1.01338000e+08
7210.000000 1.00299000e+08
7230.000000 9.71212000e+07
7250.000000 9.80052000e+07
7270.000000 9.72600000e+07
7290.000000 9.55503000e+07
7310.000000 9.53243000e+07
7330.000000 9.43000000e+07
7350.000000 9.35016000e+07
7370.000000 9.25994000e+07
7390.000000 9.16850000e+07
7410.000000 9.07859000e+07
7430.000000 8.97724000e+07
7450.000000 8.89584000e+07
7470.000000 8.74970000e+07
7490.000000 8.71513000e+07
7510.000000 8.63070000e+07
7530.000000 8.53707000e+07
7550.000000 8.47472000e+07
7570.000000 8.39515000e+07
7590.000000 8.30912000e+07
7610.000000 8.21996000e+07
7630.000000 8.14975000e+07
7650.000000 8.07500000e+07
7670.000000 7.99965000e+07
7690.000000 7.92178000e+07
7710.000000 7.84334000e+07
7730.000000 7.76561000e+07
7750.000000 7.70237000e+07
7770.000000 7.55544000e+07
7790.000000 7.55829000e+07
7810.000000 7.48257000e+07
7830.000000 7.41859000e+07
7850.000000 7.33559000e+07
7870.000000 7.26247000e+07
7890.000000 7.16458000e+07
7910.000000 7.12358000e+07
7930.000000 7.05234000e+07
7950.000000 6.97518000e+07
7970.000000 6.92658000e+07
7990.000000 6.84355000e+07
8010.000000 6.80061000e+07
8030.000000 6.74107000e+07
8050.000000 6.68785000e+07
8070.000000 6.63103000e+07
8090.000000 6.56202000e+07
8110.000000 6.47299000e+07
8130.000000 6.45600000e+07
8150.000000 6.38862000e+07
8170.000000 6.34722000e+07
8190.000000 6.25448000e+07
8210.000000 6.18827000e+07
8230.000000 6.11095000e+07
8250.000000 6.10848000e+07
8270.000000 5.98588000e+07
8290.000000 5.98938000e+07
8310.000000 5.94040000e+07
8330.000000 5.89453000e+07
8350.000000 5.81500000e+07
8370.000000 5.76089000e+07
8390.000000 5.72757000e+07
8410.000000 5.66681000e+07
8430.000000 5.61927000e+07
8450.000000 5.51304000e+07
8470.000000 5.47863000e+07
8490.000000 5.50355000e+07
8510.000000 5.34610000e+07
8530.000000 5.44532000e+07
8550.000000 5.17715000e+07
8570.000000 5.42795000e+07
8590.000000 5.16223000e+07
8610.000000 5.11236000e+07
8630.000000 5.34161000e+07
8650.000000 5.20717000e+07
8670.000000 4.78775000e+07
8690.000000 5.21422000e+07
8710.000000 5.20818000e+07
8730.000000 5.08400000e+07
8750.000000 4.60052000e+07
8770.000000 4.97503000e+07
8790.000000 5.04116000e+07
8810.000000 5.00762000e+07
8830.000000 4.94824000e+07
8850.000000 4.74620000e+07
8870.000000 4.38667000e+07
8890.000000 4.82304000e+07
8910.000000 4.79999000e+07
8930.000000 4.75111000e+07
8950.000000 4.73178000e+07
8970.000000 4.69198000e+07
8990.000000 4.59691000e+07
9010.000000 4.16847000e+07
9030.000000 4.39970000e+07
9050.000000 4.52839000e+07
9070.000000 4.46269000e+07
9090.000000 4.44586000e+07
9110.000000 4.42527000e+07
9130.000000 4.39194000e+07
9150.000000 4.35665000e+07
9170.000000 4.31025000e+07
9190.000000 4.27906000e+07
9210.000000 4.15177000e+07
9230.000000 3.71096000e+07
9250.000000 4.08966000e+07
9270.000000 4.09277000e+07
9290.000000 4.11183000e+07
9310.000000 4.06432000e+07
9330.000000 4.03151000e+07
9350.000000 4.01424000e+07
9370.000000 3.98433000e+07
9390.000000 3.95388000e+07
9410.000000 3.90828000e+07
9430.000000 3.88982000e+07
9450.000000 3.85751000e+07
9470.000000 3.81107000e+07
9490.000000 3.79465000e+07
9510.000000 3.73267000e+07
9530.000000 3.63970000e+07
9550.000000 3.29410000e+07
9570.000000 3.64221000e+07
9590.000000 3.65153000e+07
9610.000000 3.60636000e+07
9630.000000 3.56361000e+07
9650.000000 3.57123000e+07
9670.000000 3.54144000e+07
9690.000000 3.51099000e+07
9710.000000 3.47237000e+07
9730.000000 3.46030000e+07
9750.000000 3.43133000e+07
9770.000000 3.40901000e+07
9790.000000 3.38118000e+07
9810.000000 3.35073000e+07
9830.000000 3.32896000e+07
9850.000000 3.30331000e+07
9870.000000 3.27338000e+07
9890.000000 3.24167000e+07
9910.000000 3.20309000e+07
9930.000000 3.20556000e+07
9950.000000 3.17944000e+07
9970.000000 3.15070000e+07
9990.000000 3.13266000e+07
10025.000000 3.01325000e+07
10075.000000 2.91083000e+07
10125.000000 2.96413000e+07
10175.000000 2.92376000e+07
10225.000000 2.87004000e+07
10275.000000 2.81834000e+07
10325.000000 2.75737000e+07
10375.000000 2.71759000e+07
10425.000000 2.66909000e+07
10475.000000 2.62094000e+07
10525.000000 2.57144000e+07
10575.000000 2.52808000e+07
10625.000000 2.48382000e+07
10675.000000 2.43389000e+07
10725.000000 2.39730000e+07
10775.000000 2.35482000e+07
10825.000000 2.28531000e+07
10875.000000 2.27368000e+07
10925.000000 2.10109000e+07
10975.000000 2.17692000e+07
11025.000000 2.14733000e+07
11075.000000 2.12230000e+07
11125.000000 2.08622000e+07
11175.000000 2.05113000e+07
11225.000000 2.01585000e+07
11275.000000 1.97712000e+07
11325.000000 1.94340000e+07
11375.000000 1.91721000e+07
11425.000000 1.88355000e+07
11475.000000 1.85484000e+07
11525.000000 1.82454000e+07
11575.000000 1.79256000e+07
11625.000000 1.76419000e+07
11675.000000 1.73521000e+07
11725.000000 1.70887000e+07
11775.000000 1.67934000e+07
11825.000000 1.65434000e+07
11875.000000 1.62823000e+07
11925.000000 1.60268000e+07
11975.000000 1.56594000e+07
12025.000000 1.55222000e+07
12075.000000 1.52812000e+07
12125.000000 1.50386000e+07
12175.000000 1.48053000e+07
12225.000000 1.45768000e+07
12275.000000 1.43525000e+07
12325.000000 1.41279000e+07
12375.000000 1.39122000e+07
12425.000000 1.37031000e+07
12475.000000 1.34692000e+07
12525.000000 1.32515000e+07
12575.000000 1.30689000e+07
12625.000000 1.28807000e+07
12675.000000 1.26970000e+07
12725.000000 1.25092000e+07
12775.000000 1.21643000e+07
12825.000000 1.14542000e+07
12875.000000 1.19401000e+07
12925.000000 1.17832000e+07
12975.000000 1.15408000e+07
13025.000000 1.14364000e+07
13075.000000 1.12764000e+07
