# Kurucz ODFNEW /NOVER, alpha: 0.0 (2003)
# teff = 28000 K (value for the effective temperature for the model. Temperatures are given in K)
# logg = 4.5 log(cm/s2) (value for Log(G) for the model.)
# lh = 1.25  (l/Hp where l is the  mixing length of the convective element and Hp is the pressure scale height)
# meta = -1.5  (value for the Metallicity for the model.)
# vtur = 2 km/s (Microturbulence velocity)
# alpha = 0  (Alpha)
#
# column 1: WAVELENGTH (ANGSTROM), Wavelength in Angstrom
# column 2: FLUX (ERG/CM2/S/A), Flux in erg/cm2/s/A
147.200000 6.98192000e-11
151.000000 2.68276000e-10
155.200000 1.10067000e-09
158.800000 3.48025000e-09
162.000000 9.28129000e-09
166.000000 2.99869000e-08
170.300000 9.94767000e-08
173.400000 2.27547000e-07
176.800000 5.45119000e-07
180.200000 1.26307000e-06
181.700000 1.81171000e-06
186.100000 5.04605000e-06
191.000000 1.49232000e-05
193.900000 2.76145000e-05
198.400000 6.92033000e-05
201.800000 1.34750000e-04
205.000000 2.47158000e-04
210.500000 6.71495000e-04
216.200000 1.79046000e-03
219.800000 3.23719000e-03
223.000000 5.39106000e-03
226.800000 9.69320000e-03
230.000000 6.68784000e-01
234.000000 1.59895000e+00
240.000000 3.30574000e+00
246.500000 7.02094000e+00
252.400000 1.35740000e+01
256.800000 1.96716000e+01
260.000000 2.97148000e+01
264.000000 4.33475000e+01
268.500000 6.67421000e+01
273.500000 1.05305000e+02
278.500000 1.63180000e+02
284.000000 2.61472000e+02
290.000000 4.22766000e+02
296.000000 6.69390000e+02
301.000000 9.53872000e+02
308.000000 1.46464000e+03
318.000000 3.11844000e+03
328.000000 5.76454000e+03
338.000000 1.04672000e+04
348.000000 1.81054000e+04
357.000000 2.93346000e+04
366.000000 4.61589000e+04
375.000000 6.88333000e+04
385.000000 1.07429000e+05
395.000000 1.61924000e+05
405.000000 2.38222000e+05
414.000000 3.33811000e+05
422.000000 4.37815000e+05
430.000000 5.71757000e+05
441.000000 8.14745000e+05
451.000000 1.10757000e+06
460.000000 1.42637000e+06
470.000000 1.88893000e+06
480.000000 2.44923000e+06
490.000000 3.14532000e+06
500.000000 4.00087000e+06
506.000000 2.22033000e+07
512.000000 7.77519000e+07
520.000000 8.55346000e+07
530.000000 1.00444000e+08
540.000000 1.01141000e+08
550.000000 1.26046000e+08
560.000000 1.37682000e+08
570.000000 1.54820000e+08
580.000000 1.51487000e+08
590.000000 1.80280000e+08
600.000000 1.96517000e+08
610.000000 2.16237000e+08
620.000000 2.32290000e+08
630.000000 2.51893000e+08
640.000000 2.60878000e+08
650.000000 2.85699000e+08
658.000000 3.04158000e+08
665.000000 3.19733000e+08
675.000000 3.32299000e+08
685.000000 3.47581000e+08
695.000000 3.89696000e+08
705.000000 4.02678000e+08
716.000000 4.37321000e+08
726.000000 4.57328000e+08
735.000000 4.81950000e+08
745.000000 5.14114000e+08
755.000000 5.40563000e+08
765.000000 5.67503000e+08
775.000000 5.98414000e+08
785.000000 6.31403000e+08
795.000000 6.54959000e+08
805.000000 6.83958000e+08
815.000000 7.07773000e+08
825.000000 7.44354000e+08
835.000000 7.42949000e+08
845.000000 7.94217000e+08
855.000000 8.21149000e+08
865.000000 8.56600000e+08
875.000000 8.94113000e+08
885.000000 9.28758000e+08
895.000000 9.59384000e+08
905.000000 9.79099000e+08
915.000000 1.22685000e+09
925.000000 6.43362000e+09
935.000000 1.51472000e+10
945.000000 3.52403000e+10
955.000000 4.46156000e+10
965.000000 5.77377000e+10
975.000000 2.37176000e+10
985.000000 5.98162000e+10
995.000000 5.58421000e+10
1005.000000 5.86341000e+10
1015.000000 5.44164000e+10
1025.000000 2.31013000e+10
1035.000000 4.91122000e+10
1045.000000 5.77156000e+10
1055.000000 5.58143000e+10
1065.000000 5.06425000e+10
1075.000000 5.21496000e+10
1085.000000 4.76054000e+10
1095.000000 5.07584000e+10
1105.000000 4.85820000e+10
1115.000000 4.76357000e+10
1125.000000 4.39380000e+10
1135.000000 4.57114000e+10
1145.000000 4.29164000e+10
1155.000000 4.33485000e+10
1165.000000 4.24992000e+10
1175.000000 3.53365000e+10
1185.000000 3.98373000e+10
1195.000000 3.79203000e+10
1205.000000 3.35574000e+10
1215.000000 1.56561000e+10
1225.000000 3.31158000e+10
1235.000000 3.57803000e+10
1245.000000 3.48894000e+10
1255.000000 3.45437000e+10
1265.000000 3.38091000e+10
1275.000000 3.34824000e+10
1285.000000 3.27603000e+10
1295.000000 3.01199000e+10
1305.000000 3.02640000e+10
1315.000000 3.06094000e+10
1325.000000 2.94646000e+10
1335.000000 2.83611000e+10
1345.000000 2.83095000e+10
1355.000000 2.80471000e+10
1365.000000 2.70675000e+10
1375.000000 2.65875000e+10
1385.000000 2.60636000e+10
1395.000000 2.40418000e+10
1405.000000 2.39909000e+10
1415.000000 2.42344000e+10
1425.000000 2.35485000e+10
1435.000000 2.33514000e+10
1442.000000 2.32321000e+10
1447.000000 2.29135000e+10
1455.000000 2.24718000e+10
1465.000000 2.19098000e+10
1475.000000 2.14856000e+10
1485.000000 2.10844000e+10
1495.000000 2.06162000e+10
1505.000000 1.98775000e+10
1512.000000 1.94598000e+10
1517.000000 1.93907000e+10
1525.000000 1.90679000e+10
1535.000000 1.79649000e+10
1545.000000 1.76652000e+10
1555.000000 1.71069000e+10
1565.000000 1.73104000e+10
1575.000000 1.72538000e+10
1585.000000 1.70068000e+10
1595.000000 1.67365000e+10
1605.000000 1.60825000e+10
1615.000000 1.57193000e+10
1625.000000 1.56349000e+10
1635.000000 1.54879000e+10
1645.000000 1.49034000e+10
1655.000000 1.50264000e+10
1665.000000 1.48084000e+10
1672.000000 1.45027000e+10
1677.000000 1.46964000e+10
1685.000000 1.44019000e+10
1695.000000 1.40554000e+10
1705.000000 1.37109000e+10
1715.000000 1.33299000e+10
1725.000000 1.31163000e+10
1735.000000 1.30406000e+10
1745.000000 1.27852000e+10
1755.000000 1.26301000e+10
1765.000000 1.22395000e+10
1775.000000 1.20589000e+10
1785.000000 1.19538000e+10
1795.000000 1.18104000e+10
1805.000000 1.16788000e+10
1815.000000 1.13439000e+10
1825.000000 1.12085000e+10
1835.000000 1.10178000e+10
1845.000000 1.04960000e+10
1855.000000 1.02876000e+10
1865.000000 1.02776000e+10
1875.000000 1.02531000e+10
1885.000000 9.73020000e+09
1895.000000 9.38019000e+09
1905.000000 9.56849000e+09
1915.000000 9.22977000e+09
1925.000000 8.99993000e+09
1935.000000 9.08071000e+09
1945.000000 9.07979000e+09
1955.000000 8.59809000e+09
1967.000000 8.72008000e+09
1976.000000 8.77928000e+09
1984.000000 8.46179000e+09
1995.000000 8.19959000e+09
2005.000000 8.26110000e+09
2015.000000 8.22589000e+09
2025.000000 8.17185000e+09
2035.000000 7.90907000e+09
2045.000000 7.79326000e+09
2055.000000 7.42874000e+09
2065.000000 7.31977000e+09
2074.000000 7.41491000e+09
2078.000000 7.21731000e+09
2085.000000 7.22924000e+09
2095.000000 7.10280000e+09
2105.000000 7.17142000e+09
2115.000000 7.11699000e+09
2125.000000 7.06034000e+09
2135.000000 6.93940000e+09
2145.000000 6.79616000e+09
2155.000000 6.73972000e+09
2165.000000 6.64811000e+09
2175.000000 6.54738000e+09
2185.000000 6.45594000e+09
2195.000000 6.38419000e+09
2205.000000 6.29132000e+09
2215.000000 6.19724000e+09
2225.000000 6.10773000e+09
2235.000000 6.01322000e+09
2245.000000 5.94557000e+09
2255.000000 5.84532000e+09
2265.000000 5.78067000e+09
2275.000000 5.70136000e+09
2285.000000 5.62422000e+09
2295.000000 5.45579000e+09
2305.000000 5.45968000e+09
2315.000000 5.38548000e+09
2325.000000 5.31395000e+09
2335.000000 5.23323000e+09
2345.000000 5.17471000e+09
2355.000000 5.10715000e+09
2365.000000 5.03866000e+09
2375.000000 4.96713000e+09
2385.000000 4.89411000e+09
2395.000000 4.83434000e+09
2405.000000 4.77182000e+09
2415.000000 4.70680000e+09
2425.000000 4.65013000e+09
2435.000000 4.58304000e+09
2445.000000 4.52666000e+09
2455.000000 4.47104000e+09
2465.000000 4.41239000e+09
2475.000000 4.35430000e+09
2485.000000 4.29785000e+09
2495.000000 4.12615000e+09
2505.000000 4.18459000e+09
2513.000000 4.09685000e+09
2518.000000 4.11327000e+09
2525.000000 4.08199000e+09
2535.000000 4.03073000e+09
2545.000000 3.96038000e+09
2555.000000 3.92315000e+09
2565.000000 3.87945000e+09
2575.000000 3.83251000e+09
2585.000000 3.78532000e+09
2595.000000 3.73858000e+09
2605.000000 3.71321000e+09
2615.000000 3.66740000e+09
2625.000000 3.62294000e+09
2635.000000 3.57586000e+09
2645.000000 3.53029000e+09
2655.000000 3.48408000e+09
2665.000000 3.43199000e+09
2675.000000 3.38779000e+09
2685.000000 3.36788000e+09
2695.000000 3.29781000e+09
2705.000000 3.28351000e+09
2715.000000 3.24577000e+09
2725.000000 3.18273000e+09
2735.000000 3.16564000e+09
2745.000000 3.12932000e+09
2755.000000 3.09453000e+09
2765.000000 3.03301000e+09
2775.000000 3.02450000e+09
2785.000000 2.98825000e+09
2795.000000 2.92929000e+09
2805.000000 2.91198000e+09
2815.000000 2.88643000e+09
2825.000000 2.82279000e+09
2835.000000 2.79171000e+09
2845.000000 2.78785000e+09
2855.000000 2.75477000e+09
2865.000000 2.72428000e+09
2875.000000 2.69338000e+09
2885.000000 2.66320000e+09
2895.000000 2.63287000e+09
2910.000000 2.58769000e+09
2930.000000 2.53055000e+09
2950.000000 2.45557000e+09
2970.000000 2.42039000e+09
2990.000000 2.36680000e+09
3010.000000 2.31391000e+09
3030.000000 2.26623000e+09
3050.000000 2.21793000e+09
3070.000000 2.17082000e+09
3090.000000 2.12013000e+09
3110.000000 2.07955000e+09
3130.000000 2.03687000e+09
3150.000000 1.99472000e+09
3170.000000 1.95276000e+09
3190.000000 1.89596000e+09
3210.000000 1.87226000e+09
3230.000000 1.83398000e+09
3250.000000 1.79675000e+09
3270.000000 1.76229000e+09
3290.000000 1.72436000e+09
3310.000000 1.69269000e+09
3330.000000 1.65886000e+09
3350.000000 1.62327000e+09
3370.000000 1.59417000e+09
3390.000000 1.56326000e+09
3410.000000 1.53292000e+09
3430.000000 1.49633000e+09
3450.000000 1.46223000e+09
3470.000000 1.43838000e+09
3490.000000 1.41084000e+09
3510.000000 1.38679000e+09
3530.000000 1.36350000e+09
3550.000000 1.33811000e+09
3570.000000 1.32115000e+09
3590.000000 1.28674000e+09
3610.000000 1.26732000e+09
3630.000000 1.24015000e+09
3640.000000 1.23852000e+09
3650.000000 1.21512000e+09
3670.000000 1.19830000e+09
3690.000000 1.17564000e+09
3710.000000 1.13585000e+09
3730.000000 1.09077000e+09
3750.000000 1.10162000e+09
3770.000000 1.08537000e+09
3790.000000 1.13236000e+09
3810.000000 1.17568000e+09
3830.000000 1.03111000e+09
3850.000000 1.20208000e+09
3870.000000 1.21441000e+09
3890.000000 9.71767000e+08
3910.000000 1.19112000e+09
3930.000000 1.17749000e+09
3950.000000 1.15179000e+09
3970.000000 9.02067000e+08
3990.000000 1.10335000e+09
4010.000000 1.09979000e+09
4030.000000 1.03456000e+09
4050.000000 1.07368000e+09
4070.000000 1.04716000e+09
4090.000000 9.60375000e+08
4110.000000 8.42596000e+08
4130.000000 9.82435000e+08
4150.000000 9.74564000e+08
4170.000000 9.66798000e+08
4190.000000 9.52290000e+08
4210.000000 9.36951000e+08
4230.000000 9.20911000e+08
4250.000000 9.04505000e+08
4270.000000 8.86113000e+08
4290.000000 8.72671000e+08
4310.000000 8.52463000e+08
4330.000000 7.69578000e+08
4350.000000 7.03308000e+08
4370.000000 8.08620000e+08
4390.000000 7.80118000e+08
4410.000000 7.89853000e+08
4430.000000 7.75654000e+08
4450.000000 7.65996000e+08
4470.000000 7.18789000e+08
4490.000000 7.40655000e+08
4510.000000 7.30137000e+08
4530.000000 7.18435000e+08
4550.000000 7.06583000e+08
4570.000000 6.95289000e+08
4590.000000 6.84361000e+08
4610.000000 6.73738000e+08
4630.000000 6.63221000e+08
4650.000000 6.50315000e+08
4670.000000 6.42545000e+08
4690.000000 6.32024000e+08
4710.000000 6.14730000e+08
4730.000000 6.13533000e+08
4750.000000 6.03819000e+08
4770.000000 5.95537000e+08
4790.000000 5.86404000e+08
4810.000000 5.76246000e+08
4830.000000 5.63942000e+08
4850.000000 5.18749000e+08
4870.000000 4.64890000e+08
4890.000000 5.37033000e+08
4910.000000 5.33354000e+08
4930.000000 5.13721000e+08
4950.000000 5.19818000e+08
4970.000000 5.12577000e+08
4990.000000 5.05057000e+08
5010.000000 4.91082000e+08
5030.000000 4.90490000e+08
5050.000000 4.80497000e+08
5070.000000 4.76509000e+08
5090.000000 4.69674000e+08
5110.000000 4.62975000e+08
5130.000000 4.56280000e+08
5150.000000 4.49788000e+08
5170.000000 4.43553000e+08
5190.000000 4.37344000e+08
5210.000000 4.31189000e+08
5230.000000 4.25198000e+08
5250.000000 4.19285000e+08
5270.000000 4.13464000e+08
5290.000000 4.07759000e+08
5310.000000 4.02127000e+08
5330.000000 3.96622000e+08
5350.000000 3.91188000e+08
5370.000000 3.85889000e+08
5390.000000 3.80631000e+08
5410.000000 3.75415000e+08
5430.000000 3.70419000e+08
5450.000000 3.65435000e+08
5470.000000 3.60539000e+08
5490.000000 3.55729000e+08
5510.000000 3.51017000e+08
5530.000000 3.46352000e+08
5550.000000 3.41781000e+08
5570.000000 3.37279000e+08
5590.000000 3.32856000e+08
5610.000000 3.28488000e+08
5630.000000 3.24209000e+08
5650.000000 3.19971000e+08
5670.000000 3.15737000e+08
5690.000000 3.11543000e+08
5710.000000 3.07735000e+08
5730.000000 3.03789000e+08
5750.000000 2.99834000e+08
5770.000000 2.96107000e+08
5790.000000 2.92345000e+08
5810.000000 2.88640000e+08
5830.000000 2.84978000e+08
5850.000000 2.81415000e+08
5870.000000 2.69212000e+08
5890.000000 2.73826000e+08
5910.000000 2.70973000e+08
5930.000000 2.67573000e+08
5950.000000 2.64256000e+08
5970.000000 2.61051000e+08
5990.000000 2.57809000e+08
6010.000000 2.54667000e+08
6030.000000 2.51540000e+08
6050.000000 2.48491000e+08
6070.000000 2.45475000e+08
6090.000000 2.42505000e+08
6110.000000 2.39578000e+08
6130.000000 2.36693000e+08
6150.000000 2.33822000e+08
6170.000000 2.31042000e+08
6190.000000 2.28293000e+08
6210.000000 2.25584000e+08
6230.000000 2.22905000e+08
6250.000000 2.20266000e+08
6270.000000 2.17674000e+08
6290.000000 2.15112000e+08
6310.000000 2.12586000e+08
6330.000000 2.10107000e+08
6350.000000 2.07637000e+08
6370.000000 2.05239000e+08
6390.000000 2.02868000e+08
6410.000000 2.00522000e+08
6430.000000 1.98220000e+08
6450.000000 1.95942000e+08
6470.000000 1.93661000e+08
6490.000000 1.91459000e+08
6510.000000 1.89093000e+08
6530.000000 1.86125000e+08
6550.000000 1.77474000e+08
6570.000000 1.57875000e+08
6590.000000 1.78605000e+08
6610.000000 1.78380000e+08
6630.000000 1.76859000e+08
6650.000000 1.74971000e+08
6670.000000 1.71171000e+08
6690.000000 1.69307000e+08
6710.000000 1.69228000e+08
6730.000000 1.67334000e+08
6750.000000 1.65517000e+08
6770.000000 1.63702000e+08
6790.000000 1.61849000e+08
6810.000000 1.60136000e+08
6830.000000 1.58392000e+08
6850.000000 1.56681000e+08
6870.000000 1.54980000e+08
6890.000000 1.53304000e+08
6910.000000 1.51645000e+08
6930.000000 1.50025000e+08
6950.000000 1.48422000e+08
6970.000000 1.46843000e+08
6990.000000 1.45271000e+08
7010.000000 1.43730000e+08
7030.000000 1.42212000e+08
7050.000000 1.40709000e+08
7070.000000 1.36952000e+08
7090.000000 1.37762000e+08
7110.000000 1.36317000e+08
7130.000000 1.34894000e+08
7150.000000 1.33485000e+08
7170.000000 1.32082000e+08
7190.000000 1.30728000e+08
7210.000000 1.29381000e+08
7230.000000 1.27772000e+08
7250.000000 1.26717000e+08
7270.000000 1.25422000e+08
7290.000000 1.23098000e+08
7310.000000 1.22855000e+08
7330.000000 1.21624000e+08
7350.000000 1.20385000e+08
7370.000000 1.19170000e+08
7390.000000 1.17961000e+08
7410.000000 1.16776000e+08
7430.000000 1.15595000e+08
7450.000000 1.14453000e+08
7470.000000 1.13294000e+08
7490.000000 1.12179000e+08
7510.000000 1.11021000e+08
7530.000000 1.09954000e+08
7550.000000 1.08870000e+08
7570.000000 1.07789000e+08
7590.000000 1.06732000e+08
7610.000000 1.05677000e+08
7630.000000 1.04645000e+08
7650.000000 1.03622000e+08
7670.000000 1.02608000e+08
7690.000000 1.01610000e+08
7710.000000 1.00621000e+08
7730.000000 9.96472000e+07
7750.000000 9.86819000e+07
7770.000000 9.77191000e+07
7790.000000 9.67896000e+07
7810.000000 9.58127000e+07
7830.000000 9.49429000e+07
7850.000000 9.41235000e+07
7870.000000 9.32260000e+07
7890.000000 9.22820000e+07
7910.000000 9.14727000e+07
7930.000000 9.06045000e+07
7950.000000 8.97379000e+07
7970.000000 8.87484000e+07
7990.000000 8.78975000e+07
8010.000000 8.70422000e+07
8030.000000 8.62119000e+07
8050.000000 8.54120000e+07
8070.000000 8.46825000e+07
8090.000000 8.37578000e+07
8110.000000 8.30817000e+07
8130.000000 8.23828000e+07
8150.000000 8.15422000e+07
8170.000000 8.09008000e+07
8190.000000 8.00456000e+07
8210.000000 7.91140000e+07
8230.000000 7.85853000e+07
8250.000000 7.79058000e+07
8270.000000 7.68299000e+07
8290.000000 7.64487000e+07
8310.000000 7.57866000e+07
8330.000000 7.50648000e+07
8350.000000 7.40410000e+07
8370.000000 7.36177000e+07
8390.000000 7.30637000e+07
8410.000000 7.24077000e+07
8430.000000 7.17094000e+07
8450.000000 7.05894000e+07
8470.000000 7.04140000e+07
8490.000000 6.96279000e+07
8510.000000 6.90566000e+07
8530.000000 6.83862000e+07
8550.000000 6.74019000e+07
8570.000000 6.77134000e+07
8590.000000 6.54481000e+07
8610.000000 6.54138000e+07
8630.000000 6.63604000e+07
8650.000000 6.45635000e+07
8670.000000 6.17701000e+07
8690.000000 6.46190000e+07
8710.000000 6.48142000e+07
8730.000000 6.28073000e+07
8750.000000 5.79887000e+07
8770.000000 6.09523000e+07
8790.000000 6.28743000e+07
8810.000000 6.26328000e+07
8830.000000 6.17213000e+07
8850.000000 5.78207000e+07
8870.000000 5.41654000e+07
8890.000000 5.93894000e+07
8910.000000 6.00675000e+07
8930.000000 5.97373000e+07
8950.000000 5.94001000e+07
8970.000000 5.87000000e+07
8990.000000 5.67750000e+07
9010.000000 5.08245000e+07
9030.000000 5.30114000e+07
9050.000000 5.61765000e+07
9070.000000 5.58008000e+07
9090.000000 5.58838000e+07
9110.000000 5.56614000e+07
9130.000000 5.53003000e+07
9150.000000 5.47438000e+07
9170.000000 5.40528000e+07
9190.000000 5.33762000e+07
9210.000000 5.07241000e+07
9230.000000 4.50609000e+07
9250.000000 4.99121000e+07
9270.000000 5.15426000e+07
9290.000000 5.15436000e+07
9310.000000 5.10138000e+07
9330.000000 5.09251000e+07
9350.000000 5.04834000e+07
9370.000000 5.01179000e+07
9390.000000 4.97081000e+07
9410.000000 4.93013000e+07
9430.000000 4.89060000e+07
9450.000000 4.85052000e+07
9470.000000 4.76872000e+07
9490.000000 4.75032000e+07
9510.000000 4.63497000e+07
9530.000000 4.40315000e+07
9550.000000 3.94056000e+07
9570.000000 4.43224000e+07
9590.000000 4.53584000e+07
9610.000000 4.51779000e+07
9630.000000 4.47955000e+07
9650.000000 4.47718000e+07
9670.000000 4.44176000e+07
9690.000000 4.40258000e+07
9710.000000 4.35849000e+07
9730.000000 4.33781000e+07
9750.000000 4.30378000e+07
9770.000000 4.27039000e+07
9790.000000 4.23685000e+07
9810.000000 4.20354000e+07
9830.000000 4.17124000e+07
9850.000000 4.13879000e+07
9870.000000 4.10657000e+07
9890.000000 4.07495000e+07
9910.000000 4.04011000e+07
9930.000000 4.01239000e+07
9950.000000 3.98143000e+07
9970.000000 3.94425000e+07
9990.000000 3.90394000e+07
10025.000000 3.67731000e+07
10075.000000 3.55583000e+07
10125.000000 3.70278000e+07
10175.000000 3.65410000e+07
10225.000000 3.58433000e+07
10275.000000 3.51952000e+07
10325.000000 3.43958000e+07
10375.000000 3.39100000e+07
10425.000000 3.32895000e+07
10475.000000 3.26830000e+07
10525.000000 3.20903000e+07
10575.000000 3.15110000e+07
10625.000000 3.09444000e+07
10675.000000 3.03260000e+07
10725.000000 2.98496000e+07
10775.000000 2.93198000e+07
10825.000000 2.84841000e+07
10875.000000 2.81473000e+07
10925.000000 2.53759000e+07
10975.000000 2.65495000e+07
11025.000000 2.66111000e+07
11075.000000 2.63462000e+07
11125.000000 2.59245000e+07
11175.000000 2.54807000e+07
11225.000000 2.50321000e+07
11275.000000 2.46203000e+07
11325.000000 2.42039000e+07
11375.000000 2.37968000e+07
11425.000000 2.33973000e+07
11475.000000 2.30071000e+07
11525.000000 2.26246000e+07
11575.000000 2.22494000e+07
11625.000000 2.18828000e+07
11675.000000 2.15233000e+07
11725.000000 2.11716000e+07
11775.000000 2.08267000e+07
11825.000000 2.04890000e+07
11875.000000 2.01579000e+07
11925.000000 1.98334000e+07
11975.000000 1.92859000e+07
12025.000000 1.92040000e+07
12075.000000 1.88985000e+07
12125.000000 1.85992000e+07
12175.000000 1.83060000e+07
12225.000000 1.80182000e+07
12275.000000 1.77361000e+07
12325.000000 1.74596000e+07
12375.000000 1.71887000e+07
12425.000000 1.69227000e+07
12475.000000 1.66615000e+07
12525.000000 1.63681000e+07
12575.000000 1.61550000e+07
12625.000000 1.59089000e+07
12675.000000 1.56673000e+07
12725.000000 1.54065000e+07
12775.000000 1.48720000e+07
12825.000000 1.36610000e+07
12875.000000 1.46046000e+07
12925.000000 1.45128000e+07
12975.000000 1.41903000e+07
13025.000000 1.40992000e+07
13075.000000 1.38917000e+07
