# Kurucz ODFNEW /NOVER, alpha: 0.0 (2003)
# teff = 22000 K (value for the effective temperature for the model. Temperatures are given in K)
# logg = 3.5 log(cm/s2) (value for Log(G) for the model.)
# lh = 1.25  (l/Hp where l is the  mixing length of the convective element and Hp is the pressure scale height)
# meta = -2  (value for the Metallicity for the model.)
# vtur = 2 km/s (Microturbulence velocity)
# alpha = 0  (Alpha)
#
# column 1: WAVELENGTH (ANGSTROM), Wavelength in Angstrom
# column 2: FLUX (ERG/CM2/S/A), Flux in erg/cm2/s/A
147.200000 2.24774000e-17
151.000000 1.35346000e-16
155.200000 8.87667000e-16
158.800000 4.10635000e-15
162.000000 1.51171000e-14
166.000000 7.17052000e-14
170.300000 3.51580000e-13
173.400000 1.05178000e-12
176.800000 3.34267000e-12
180.200000 1.01554000e-11
181.700000 1.63552000e-11
186.100000 6.32135000e-11
191.000000 2.64023000e-10
193.900000 5.93854000e-10
198.400000 1.98947000e-09
201.800000 4.77776000e-09
205.000000 1.05995000e-08
210.500000 3.92975000e-08
216.200000 1.41947000e-07
219.800000 3.08132000e-07
223.000000 6.00279000e-07
226.800000 1.29150000e-06
230.000000 4.96343000e-06
234.000000 1.14658000e-05
240.000000 3.22117000e-05
246.500000 9.31249000e-05
252.400000 2.34131000e-04
256.800000 4.41173000e-04
260.000000 7.13278000e-04
264.000000 1.24820000e-03
268.500000 2.29223000e-03
273.500000 4.39446000e-03
278.500000 8.23428000e-03
284.000000 1.59896000e-02
290.000000 3.19911000e-02
296.000000 6.20888000e-02
301.000000 1.05670000e-01
308.000000 2.12935000e-01
318.000000 5.66376000e-01
328.000000 1.39428000e+00
338.000000 3.24611000e+00
348.000000 7.17598000e+00
357.000000 1.40678000e+01
366.000000 2.66463000e+01
375.000000 4.87598000e+01
385.000000 9.21561000e+01
395.000000 1.68105000e+02
405.000000 2.97020000e+02
414.000000 4.83320000e+02
422.000000 7.30595000e+02
430.000000 1.08540000e+03
441.000000 1.82642000e+03
451.000000 2.85935000e+03
460.000000 4.20082000e+03
470.000000 6.32066000e+03
480.000000 9.32896000e+03
490.000000 1.35310000e+04
500.000000 1.92961000e+04
506.000000 1.28067000e+05
512.000000 3.73231000e+05
520.000000 4.68975000e+05
530.000000 6.62998000e+05
540.000000 7.29364000e+05
550.000000 1.04844000e+06
560.000000 1.26966000e+06
570.000000 1.56118000e+06
580.000000 1.57949000e+06
590.000000 2.10075000e+06
600.000000 2.64307000e+06
610.000000 3.14991000e+06
620.000000 3.66606000e+06
630.000000 4.29172000e+06
640.000000 4.87274000e+06
650.000000 5.64087000e+06
658.000000 6.39293000e+06
665.000000 6.99500000e+06
675.000000 7.81001000e+06
685.000000 8.81156000e+06
695.000000 1.02016000e+07
705.000000 1.13779000e+07
716.000000 1.28901000e+07
726.000000 1.43079000e+07
735.000000 1.58202000e+07
745.000000 1.76349000e+07
755.000000 1.94998000e+07
765.000000 2.14331000e+07
775.000000 2.36133000e+07
785.000000 2.58779000e+07
795.000000 2.81576000e+07
805.000000 3.06575000e+07
815.000000 3.31665000e+07
825.000000 3.60780000e+07
835.000000 3.84367000e+07
845.000000 4.18034000e+07
855.000000 4.47953000e+07
865.000000 4.83383000e+07
875.000000 5.20102000e+07
885.000000 5.57332000e+07
895.000000 5.94565000e+07
905.000000 6.25747000e+07
915.000000 1.15652000e+08
925.000000 1.26304000e+09
935.000000 4.11103000e+09
945.000000 1.05540000e+10
955.000000 1.33285000e+10
965.000000 1.66061000e+10
975.000000 6.76875000e+09
985.000000 1.74378000e+10
995.000000 1.67587000e+10
1005.000000 1.73828000e+10
1015.000000 1.61940000e+10
1025.000000 6.66773000e+09
1035.000000 1.44675000e+10
1045.000000 1.74678000e+10
1055.000000 1.69365000e+10
1065.000000 1.55428000e+10
1075.000000 1.62669000e+10
1085.000000 1.51812000e+10
1095.000000 1.60297000e+10
1105.000000 1.53021000e+10
1115.000000 1.52283000e+10
1125.000000 1.43366000e+10
1135.000000 1.48256000e+10
1145.000000 1.40795000e+10
1155.000000 1.43832000e+10
1165.000000 1.42173000e+10
1175.000000 1.23607000e+10
1185.000000 1.36438000e+10
1195.000000 1.27519000e+10
1205.000000 1.10744000e+10
1215.000000 4.55834000e+09
1225.000000 1.13140000e+10
1235.000000 1.23643000e+10
1245.000000 1.22350000e+10
1255.000000 1.20224000e+10
1265.000000 1.17916000e+10
1275.000000 1.18180000e+10
1285.000000 1.15947000e+10
1295.000000 1.06642000e+10
1305.000000 1.07204000e+10
1315.000000 1.09998000e+10
1325.000000 1.06440000e+10
1335.000000 1.02006000e+10
1345.000000 1.03459000e+10
1355.000000 1.02924000e+10
1365.000000 1.00099000e+10
1375.000000 9.83517000e+09
1385.000000 9.70858000e+09
1395.000000 9.21155000e+09
1405.000000 9.20036000e+09
1415.000000 9.18687000e+09
1425.000000 9.05152000e+09
1435.000000 8.95106000e+09
1442.000000 8.89281000e+09
1447.000000 8.79997000e+09
1455.000000 8.67233000e+09
1465.000000 8.49255000e+09
1475.000000 8.36393000e+09
1485.000000 8.21494000e+09
1495.000000 8.07861000e+09
1505.000000 7.85401000e+09
1512.000000 7.70681000e+09
1517.000000 7.69898000e+09
1525.000000 7.59363000e+09
1535.000000 7.27789000e+09
1545.000000 7.25832000e+09
1555.000000 7.04779000e+09
1565.000000 7.09860000e+09
1575.000000 7.04823000e+09
1585.000000 6.94098000e+09
1595.000000 6.85348000e+09
1605.000000 6.63935000e+09
1615.000000 6.53514000e+09
1625.000000 6.50304000e+09
1635.000000 6.45164000e+09
1645.000000 6.28350000e+09
1655.000000 6.24768000e+09
1665.000000 6.18468000e+09
1672.000000 6.04663000e+09
1677.000000 6.10506000e+09
1685.000000 6.01684000e+09
1695.000000 5.88731000e+09
1705.000000 5.76882000e+09
1715.000000 5.63450000e+09
1725.000000 5.57164000e+09
1735.000000 5.51673000e+09
1745.000000 5.42226000e+09
1755.000000 5.38658000e+09
1765.000000 5.19583000e+09
1775.000000 5.16651000e+09
1785.000000 5.13006000e+09
1795.000000 5.07984000e+09
1805.000000 5.02834000e+09
1815.000000 4.90538000e+09
1825.000000 4.85743000e+09
1835.000000 4.78449000e+09
1845.000000 4.59919000e+09
1855.000000 4.49017000e+09
1865.000000 4.48905000e+09
1875.000000 4.50034000e+09
1885.000000 4.29675000e+09
1895.000000 4.15858000e+09
1905.000000 4.24376000e+09
1915.000000 4.10422000e+09
1925.000000 4.02946000e+09
1935.000000 4.05272000e+09
1945.000000 4.04949000e+09
1955.000000 3.86751000e+09
1967.000000 3.91940000e+09
1976.000000 3.93356000e+09
1984.000000 3.81222000e+09
1995.000000 3.70432000e+09
2005.000000 3.73410000e+09
2015.000000 3.72283000e+09
2025.000000 3.70149000e+09
2035.000000 3.60143000e+09
2045.000000 3.55504000e+09
2055.000000 3.46075000e+09
2065.000000 3.43553000e+09
2074.000000 3.47541000e+09
2078.000000 3.38247000e+09
2085.000000 3.38354000e+09
2095.000000 3.29862000e+09
2105.000000 3.30578000e+09
2115.000000 3.27746000e+09
2125.000000 3.25986000e+09
2135.000000 3.21072000e+09
2145.000000 3.14933000e+09
2155.000000 3.13031000e+09
2165.000000 3.09439000e+09
2175.000000 3.05031000e+09
2185.000000 3.01638000e+09
2195.000000 2.98411000e+09
2205.000000 2.94517000e+09
2215.000000 2.90942000e+09
2225.000000 2.86811000e+09
2235.000000 2.83149000e+09
2245.000000 2.80371000e+09
2255.000000 2.76415000e+09
2265.000000 2.73583000e+09
2275.000000 2.70208000e+09
2285.000000 2.67191000e+09
2295.000000 2.61299000e+09
2305.000000 2.60632000e+09
2315.000000 2.57036000e+09
2325.000000 2.54111000e+09
2335.000000 2.50482000e+09
2345.000000 2.47562000e+09
2355.000000 2.45301000e+09
2365.000000 2.42147000e+09
2375.000000 2.39324000e+09
2385.000000 2.36168000e+09
2395.000000 2.33531000e+09
2405.000000 2.30883000e+09
2415.000000 2.27954000e+09
2425.000000 2.25930000e+09
2435.000000 2.23030000e+09
2445.000000 2.20586000e+09
2455.000000 2.18255000e+09
2465.000000 2.15619000e+09
2475.000000 2.13173000e+09
2485.000000 2.10692000e+09
2495.000000 2.05575000e+09
2505.000000 2.05841000e+09
2513.000000 2.02635000e+09
2518.000000 2.02800000e+09
2525.000000 2.01180000e+09
2535.000000 1.98822000e+09
2545.000000 1.96018000e+09
2555.000000 1.94579000e+09
2565.000000 1.92298000e+09
2575.000000 1.90426000e+09
2585.000000 1.88296000e+09
2595.000000 1.86193000e+09
2605.000000 1.85572000e+09
2615.000000 1.83637000e+09
2625.000000 1.81535000e+09
2635.000000 1.79015000e+09
2645.000000 1.77400000e+09
2655.000000 1.75270000e+09
2665.000000 1.73082000e+09
2675.000000 1.71180000e+09
2685.000000 1.70435000e+09
2695.000000 1.67248000e+09
2705.000000 1.66729000e+09
2715.000000 1.64951000e+09
2725.000000 1.61891000e+09
2735.000000 1.61475000e+09
2745.000000 1.59311000e+09
2755.000000 1.57764000e+09
2765.000000 1.55038000e+09
2775.000000 1.54804000e+09
2785.000000 1.53135000e+09
2795.000000 1.50031000e+09
2805.000000 1.49389000e+09
2815.000000 1.48453000e+09
2825.000000 1.45487000e+09
2835.000000 1.44228000e+09
2845.000000 1.43877000e+09
2855.000000 1.42400000e+09
2865.000000 1.40976000e+09
2875.000000 1.39527000e+09
2885.000000 1.38118000e+09
2895.000000 1.36712000e+09
2910.000000 1.34634000e+09
2930.000000 1.31907000e+09
2950.000000 1.28445000e+09
2970.000000 1.26751000e+09
2990.000000 1.24218000e+09
3010.000000 1.21783000e+09
3030.000000 1.19462000e+09
3050.000000 1.17152000e+09
3070.000000 1.14891000e+09
3090.000000 1.12623000e+09
3110.000000 1.10533000e+09
3130.000000 1.08567000e+09
3150.000000 1.06490000e+09
3170.000000 1.04439000e+09
3190.000000 1.01700000e+09
3210.000000 1.00594000e+09
3230.000000 9.87132000e+08
3250.000000 9.68850000e+08
3270.000000 9.52243000e+08
3290.000000 9.33497000e+08
3310.000000 9.18055000e+08
3330.000000 9.01522000e+08
3350.000000 8.83606000e+08
3370.000000 8.69567000e+08
3390.000000 8.54157000e+08
3410.000000 8.39048000e+08
3430.000000 8.20070000e+08
3450.000000 8.02708000e+08
3470.000000 7.91292000e+08
3490.000000 7.77918000e+08
3510.000000 7.68620000e+08
3530.000000 7.56307000e+08
3550.000000 7.43744000e+08
3570.000000 7.34369000e+08
3590.000000 7.18171000e+08
3610.000000 7.06911000e+08
3630.000000 6.94140000e+08
3640.000000 6.92464000e+08
3650.000000 6.79880000e+08
3670.000000 6.71288000e+08
3690.000000 6.51663000e+08
3710.000000 6.38087000e+08
3730.000000 6.27715000e+08
3750.000000 6.90985000e+08
3770.000000 6.97563000e+08
3790.000000 7.28092000e+08
3810.000000 7.58462000e+08
3830.000000 6.65605000e+08
3850.000000 7.74681000e+08
3870.000000 7.71172000e+08
3890.000000 6.34799000e+08
3910.000000 7.57840000e+08
3930.000000 7.42878000e+08
3950.000000 7.33297000e+08
3970.000000 5.89538000e+08
3990.000000 7.05914000e+08
4010.000000 6.96547000e+08
4030.000000 6.62325000e+08
4050.000000 6.80421000e+08
4070.000000 6.66859000e+08
4090.000000 6.26415000e+08
4110.000000 5.49457000e+08
4130.000000 6.27349000e+08
4150.000000 6.20398000e+08
4170.000000 6.14158000e+08
4190.000000 6.06098000e+08
4210.000000 5.96421000e+08
4230.000000 5.86773000e+08
4250.000000 5.77259000e+08
4270.000000 5.66802000e+08
4290.000000 5.58889000e+08
4310.000000 5.48258000e+08
4330.000000 5.06655000e+08
4350.000000 4.62408000e+08
4370.000000 5.22042000e+08
4390.000000 5.04688000e+08
4410.000000 5.08276000e+08
4430.000000 4.98322000e+08
4450.000000 4.92959000e+08
4470.000000 4.68006000e+08
4490.000000 4.77655000e+08
4510.000000 4.70743000e+08
4530.000000 4.63566000e+08
4550.000000 4.56497000e+08
4570.000000 4.49570000e+08
4590.000000 4.42907000e+08
4610.000000 4.36289000e+08
4630.000000 4.29769000e+08
4650.000000 4.23031000e+08
4670.000000 4.17135000e+08
4690.000000 4.10999000e+08
4710.000000 4.00129000e+08
4730.000000 3.98874000e+08
4750.000000 3.92851000e+08
4770.000000 3.87659000e+08
4790.000000 3.82048000e+08
4810.000000 3.76451000e+08
4830.000000 3.69674000e+08
4850.000000 3.46820000e+08
4870.000000 3.10398000e+08
4890.000000 3.53379000e+08
4910.000000 3.50131000e+08
4930.000000 3.38461000e+08
4950.000000 3.40652000e+08
4970.000000 3.35933000e+08
4990.000000 3.31233000e+08
5010.000000 3.22845000e+08
5030.000000 3.22100000e+08
5050.000000 3.15668000e+08
5070.000000 3.13300000e+08
5090.000000 3.09011000e+08
5110.000000 3.04793000e+08
5130.000000 3.00603000e+08
5150.000000 2.96512000e+08
5170.000000 2.92545000e+08
5190.000000 2.88602000e+08
5210.000000 2.84697000e+08
5230.000000 2.80926000e+08
5250.000000 2.77177000e+08
5270.000000 2.73490000e+08
5290.000000 2.69865000e+08
5310.000000 2.66299000e+08
5330.000000 2.62806000e+08
5350.000000 2.59331000e+08
5370.000000 2.55966000e+08
5390.000000 2.52630000e+08
5410.000000 2.49350000e+08
5430.000000 2.46111000e+08
5450.000000 2.42938000e+08
5470.000000 2.39818000e+08
5490.000000 2.36749000e+08
5510.000000 2.33730000e+08
5530.000000 2.30749000e+08
5550.000000 2.27817000e+08
5570.000000 2.24933000e+08
5590.000000 2.22109000e+08
5610.000000 2.19307000e+08
5630.000000 2.16563000e+08
5650.000000 2.13829000e+08
5670.000000 2.11151000e+08
5690.000000 2.08518000e+08
5710.000000 2.05997000e+08
5730.000000 2.03448000e+08
5750.000000 2.00941000e+08
5770.000000 1.98487000e+08
5790.000000 1.96062000e+08
5810.000000 1.93676000e+08
5830.000000 1.91319000e+08
5850.000000 1.89011000e+08
5870.000000 1.81669000e+08
5890.000000 1.84314000e+08
5910.000000 1.82270000e+08
5930.000000 1.80089000e+08
5950.000000 1.77934000e+08
5970.000000 1.75824000e+08
5990.000000 1.73738000e+08
6010.000000 1.71687000e+08
6030.000000 1.69659000e+08
6050.000000 1.67674000e+08
6070.000000 1.65712000e+08
6090.000000 1.63772000e+08
6110.000000 1.61864000e+08
6130.000000 1.59988000e+08
6150.000000 1.58132000e+08
6170.000000 1.56317000e+08
6190.000000 1.54522000e+08
6210.000000 1.52747000e+08
6230.000000 1.51001000e+08
6250.000000 1.49274000e+08
6270.000000 1.47576000e+08
6290.000000 1.45906000e+08
6310.000000 1.44254000e+08
6330.000000 1.42629000e+08
6350.000000 1.41003000e+08
6370.000000 1.39441000e+08
6390.000000 1.37887000e+08
6410.000000 1.36350000e+08
6430.000000 1.34837000e+08
6450.000000 1.33342000e+08
6470.000000 1.31861000e+08
6490.000000 1.30406000e+08
6510.000000 1.28975000e+08
6530.000000 1.27232000e+08
6550.000000 1.22636000e+08
6570.000000 1.09410000e+08
6590.000000 1.22523000e+08
6610.000000 1.22024000e+08
6630.000000 1.20783000e+08
6650.000000 1.19572000e+08
6670.000000 1.17256000e+08
6690.000000 1.16017000e+08
6710.000000 1.15770000e+08
6730.000000 1.14534000e+08
6750.000000 1.13319000e+08
6770.000000 1.12116000e+08
6790.000000 1.10917000e+08
6810.000000 1.09763000e+08
6830.000000 1.08604000e+08
6850.000000 1.07465000e+08
6870.000000 1.06345000e+08
6890.000000 1.05229000e+08
6910.000000 1.04139000e+08
6930.000000 1.03045000e+08
6950.000000 1.01992000e+08
6970.000000 1.00935000e+08
6990.000000 9.98878000e+07
7010.000000 9.88664000e+07
7030.000000 9.78549000e+07
7050.000000 9.68532000e+07
7070.000000 9.43540000e+07
7090.000000 9.48941000e+07
7110.000000 9.39288000e+07
7130.000000 9.29802000e+07
7150.000000 9.20407000e+07
7170.000000 9.10956000e+07
7190.000000 9.02033000e+07
7210.000000 8.92977000e+07
7230.000000 8.82854000e+07
7250.000000 8.75267000e+07
7270.000000 8.66608000e+07
7290.000000 8.51014000e+07
7310.000000 8.49325000e+07
7330.000000 8.41120000e+07
7350.000000 8.32853000e+07
7370.000000 8.24663000e+07
7390.000000 8.16618000e+07
7410.000000 8.08648000e+07
7430.000000 8.00752000e+07
7450.000000 7.93132000e+07
7470.000000 7.85380000e+07
7490.000000 7.77834000e+07
7510.000000 7.70023000e+07
7530.000000 7.62882000e+07
7550.000000 7.55607000e+07
7570.000000 7.48332000e+07
7590.000000 7.41189000e+07
7610.000000 7.34111000e+07
7630.000000 7.27161000e+07
7650.000000 7.20274000e+07
7670.000000 7.13449000e+07
7690.000000 7.06685000e+07
7710.000000 6.99981000e+07
7730.000000 6.93464000e+07
7750.000000 6.86941000e+07
7770.000000 6.80414000e+07
7790.000000 6.74255000e+07
7810.000000 6.67410000e+07
7830.000000 6.61731000e+07
7850.000000 6.56407000e+07
7870.000000 6.50338000e+07
7890.000000 6.43777000e+07
7910.000000 6.38418000e+07
7930.000000 6.31368000e+07
7950.000000 6.25155000e+07
7970.000000 6.18997000e+07
7990.000000 6.13601000e+07
8010.000000 6.07781000e+07
8030.000000 6.02361000e+07
8050.000000 5.97454000e+07
8070.000000 5.92471000e+07
8090.000000 5.85689000e+07
8110.000000 5.81372000e+07
8130.000000 5.76919000e+07
8150.000000 5.70631000e+07
8170.000000 5.66825000e+07
8190.000000 5.60993000e+07
8210.000000 5.54049000e+07
8230.000000 5.51026000e+07
8250.000000 5.46265000e+07
8270.000000 5.38426000e+07
8290.000000 5.35941000e+07
8310.000000 5.31433000e+07
8330.000000 5.26664000e+07
8350.000000 5.19357000e+07
8370.000000 5.16109000e+07
8390.000000 5.12335000e+07
8410.000000 5.07557000e+07
8430.000000 5.02300000e+07
8450.000000 4.95187000e+07
8470.000000 4.91170000e+07
8490.000000 4.90129000e+07
8510.000000 4.80165000e+07
8530.000000 4.83938000e+07
8550.000000 4.64165000e+07
8570.000000 4.83781000e+07
8590.000000 4.58515000e+07
8610.000000 4.55711000e+07
8630.000000 4.77264000e+07
8650.000000 4.62382000e+07
8670.000000 4.24587000e+07
8690.000000 4.66870000e+07
8710.000000 4.68970000e+07
8730.000000 4.53902000e+07
8750.000000 4.05335000e+07
8770.000000 4.41170000e+07
8790.000000 4.55006000e+07
8810.000000 4.51671000e+07
8830.000000 4.46941000e+07
8850.000000 4.19541000e+07
8870.000000 3.86374000e+07
8890.000000 4.32152000e+07
8910.000000 4.33399000e+07
8930.000000 4.29886000e+07
8950.000000 4.27958000e+07
8970.000000 4.23706000e+07
8990.000000 4.12864000e+07
9010.000000 3.67689000e+07
9030.000000 3.87670000e+07
9050.000000 4.07844000e+07
9070.000000 4.03291000e+07
9090.000000 4.02776000e+07
9110.000000 4.01046000e+07
9130.000000 3.98112000e+07
9150.000000 3.94866000e+07
9170.000000 3.90166000e+07
9190.000000 3.86609000e+07
9210.000000 3.71031000e+07
9230.000000 3.29011000e+07
9250.000000 3.66618000e+07
9270.000000 3.73885000e+07
9290.000000 3.72652000e+07
9310.000000 3.68210000e+07
9330.000000 3.67118000e+07
9350.000000 3.63894000e+07
9370.000000 3.61317000e+07
9390.000000 3.58442000e+07
9410.000000 3.55571000e+07
9430.000000 3.52785000e+07
9450.000000 3.49998000e+07
9470.000000 3.45010000e+07
9490.000000 3.44017000e+07
9510.000000 3.37003000e+07
9530.000000 3.23921000e+07
9550.000000 2.90396000e+07
9570.000000 3.25859000e+07
9590.000000 3.29626000e+07
9610.000000 3.27211000e+07
9630.000000 3.24378000e+07
9650.000000 3.23593000e+07
9670.000000 3.21092000e+07
9690.000000 3.18267000e+07
9710.000000 3.15124000e+07
9730.000000 3.13734000e+07
9750.000000 3.11327000e+07
9770.000000 3.08944000e+07
9790.000000 3.06583000e+07
9810.000000 3.04246000e+07
9830.000000 3.01929000e+07
9850.000000 2.99636000e+07
9870.000000 2.97364000e+07
9890.000000 2.95114000e+07
9910.000000 2.92789000e+07
9930.000000 2.90679000e+07
9950.000000 2.88488000e+07
9970.000000 2.86319000e+07
9990.000000 2.83857000e+07
10025.000000 2.70306000e+07
10075.000000 2.61710000e+07
10125.000000 2.69425000e+07
10175.000000 2.65248000e+07
10225.000000 2.60271000e+07
10275.000000 2.55675000e+07
10325.000000 2.50137000e+07
10375.000000 2.46532000e+07
10425.000000 2.42110000e+07
10475.000000 2.37792000e+07
10525.000000 2.33566000e+07
10575.000000 2.29435000e+07
10625.000000 2.25396000e+07
10675.000000 2.20992000e+07
10725.000000 2.17580000e+07
10775.000000 2.13800000e+07
10825.000000 2.07766000e+07
10875.000000 2.06092000e+07
10925.000000 1.88690000e+07
10975.000000 1.96086000e+07
11025.000000 1.94823000e+07
11075.000000 1.92662000e+07
11125.000000 1.89516000e+07
11175.000000 1.86334000e+07
11225.000000 1.83102000e+07
11275.000000 1.80165000e+07
11325.000000 1.77180000e+07
11375.000000 1.74254000e+07
11425.000000 1.71390000e+07
11475.000000 1.68584000e+07
11525.000000 1.65834000e+07
11575.000000 1.63142000e+07
11625.000000 1.60504000e+07
11675.000000 1.57919000e+07
11725.000000 1.55383000e+07
11775.000000 1.52900000e+07
11825.000000 1.50467000e+07
11875.000000 1.48084000e+07
11925.000000 1.45745000e+07
11975.000000 1.42284000e+07
12025.000000 1.41208000e+07
12075.000000 1.39005000e+07
12125.000000 1.36846000e+07
12175.000000 1.34728000e+07
12225.000000 1.32650000e+07
12275.000000 1.30611000e+07
12325.000000 1.28614000e+07
12375.000000 1.26654000e+07
12425.000000 1.24732000e+07
12475.000000 1.22843000e+07
12525.000000 1.20747000e+07
12575.000000 1.19177000e+07
12625.000000 1.17396000e+07
12675.000000 1.15646000e+07
12725.000000 1.13927000e+07
12775.000000 1.10592000e+07
12825.000000 1.03105000e+07
12875.000000 1.08465000e+07
12925.000000 1.07373000e+07
12975.000000 1.05148000e+07
13025.000000 1.04276000e+07
13075.000000 1.02768000e+07
