# Kurucz ODFNEW /NOVER, alpha: 0.0 (2003)
# teff = 7250 K (value for the effective temperature for the model. Temperatures are given in K)
# logg = 2 log(cm/s2) (value for Log(G) for the model.)
# lh = 1.25  (l/Hp where l is the  mixing length of the convective element and Hp is the pressure scale height)
# meta = -1.5  (value for the Metallicity for the model.)
# vtur = 2 km/s (Microturbulence velocity)
# alpha = 0  (Alpha)
#
# column 1: WAVELENGTH (ANGSTROM), Wavelength in Angstrom
# column 2: FLUX (ERG/CM2/S/A), Flux in erg/cm2/s/A
366.000000 8.81330000e-25
375.000000 6.31405000e-23
385.000000 3.72269000e-23
395.000000 2.42131000e-22
405.000000 1.42839000e-21
414.000000 6.53247000e-21
422.000000 2.38053000e-20
430.000000 8.24465000e-20
441.000000 4.20777000e-19
451.000000 1.71978000e-18
460.000000 5.77592000e-18
470.000000 2.09478000e-17
480.000000 7.17094000e-17
490.000000 2.32753000e-16
500.000000 7.17579000e-16
506.000000 1.83041000e-15
512.000000 3.89500000e-15
520.000000 8.85063000e-15
530.000000 2.39516000e-14
540.000000 6.12857000e-14
550.000000 1.52996000e-13
560.000000 3.66518000e-13
570.000000 8.49143000e-13
580.000000 1.88454000e-12
590.000000 4.15171000e-12
600.000000 8.79025000e-12
610.000000 1.81166000e-11
620.000000 3.63901000e-11
630.000000 7.13347000e-11
640.000000 1.36693000e-10
650.000000 2.56265000e-10
658.000000 4.17256000e-10
665.000000 6.32430000e-10
675.000000 1.12674000e-09
685.000000 1.96994000e-09
695.000000 3.38345000e-09
705.000000 5.71145000e-09
716.000000 9.97202000e-09
726.000000 1.62792000e-08
735.000000 2.49891000e-08
745.000000 3.96919000e-08
755.000000 6.21801000e-08
765.000000 9.61224000e-08
775.000000 1.46734000e-07
785.000000 2.21260000e-07
795.000000 3.29560000e-07
805.000000 4.85869000e-07
815.000000 7.08340000e-07
825.000000 1.02205000e-06
835.000000 1.46013000e-06
845.000000 2.06592000e-06
855.000000 2.89592000e-06
865.000000 4.02315000e-06
875.000000 5.54004000e-06
885.000000 7.56850000e-06
895.000000 1.02556000e-05
905.000000 1.37845000e-05
915.000000 5.55358000e-02
925.000000 2.44810000e-01
935.000000 3.26645000e-01
945.000000 4.60669000e-01
955.000000 6.53599000e-01
965.000000 8.22334000e-01
975.000000 8.44349000e-01
985.000000 1.37890000e+00
995.000000 1.67560000e+00
1005.000000 2.17934000e+00
1015.000000 2.39719000e+00
1025.000000 2.54625000e+00
1035.000000 3.92019000e+00
1045.000000 5.28030000e+00
1055.000000 6.58195000e+00
1065.000000 7.90975000e+00
1075.000000 9.79684000e+00
1085.000000 1.19622000e+01
1095.000000 1.41423000e+01
1105.000000 3.66879000e+01
1115.000000 9.25259000e+01
1125.000000 1.17237000e+02
1135.000000 1.46203000e+02
1145.000000 1.60384000e+02
1155.000000 1.51177000e+02
1165.000000 1.61112000e+02
1175.000000 1.44741000e+02
1185.000000 2.72388000e+02
1195.000000 6.12175000e+01
1205.000000 3.78150000e+01
1215.000000 1.03582000e+01
1225.000000 4.44130000e+01
1235.000000 1.12686000e+02
1245.000000 1.74948000e+02
1255.000000 3.07430000e+02
1265.000000 4.63571000e+02
1275.000000 6.71827000e+02
1285.000000 1.01438000e+03
1295.000000 1.40352000e+03
1305.000000 1.68802000e+03
1315.000000 2.27141000e+03
1325.000000 2.88787000e+03
1335.000000 3.54106000e+03
1345.000000 4.47571000e+03
1355.000000 5.18324000e+03
1365.000000 6.31163000e+03
1375.000000 7.48507000e+03
1385.000000 8.74193000e+03
1395.000000 1.04395000e+04
1405.000000 1.30453000e+04
1415.000000 1.69261000e+04
1425.000000 2.05245000e+04
1435.000000 2.27019000e+04
1442.000000 3.02055000e+04
1447.000000 3.04992000e+04
1455.000000 3.98844000e+04
1465.000000 4.07548000e+04
1475.000000 4.79980000e+04
1485.000000 5.73817000e+04
1495.000000 6.87325000e+04
1505.000000 8.26334000e+04
1512.000000 8.42792000e+04
1517.000000 8.53960000e+04
1525.000000 1.03135000e+05
1535.000000 2.23170000e+05
1545.000000 2.85377000e+05
1555.000000 2.65811000e+05
1565.000000 1.98438000e+05
1575.000000 2.28912000e+05
1585.000000 2.24698000e+05
1595.000000 2.26420000e+05
1605.000000 2.31169000e+05
1615.000000 3.73072000e+05
1625.000000 6.24923000e+05
1635.000000 1.06845000e+06
1645.000000 1.82390000e+06
1655.000000 1.33192000e+06
1665.000000 2.67644000e+06
1672.000000 1.66414000e+06
1677.000000 3.01415000e+06
1685.000000 3.69972000e+06
1695.000000 3.70183000e+06
1705.000000 3.72087000e+06
1715.000000 4.28896000e+06
1725.000000 4.36876000e+06
1735.000000 4.91626000e+06
1745.000000 4.77422000e+06
1755.000000 5.43599000e+06
1765.000000 4.54365000e+06
1775.000000 5.25690000e+06
1785.000000 5.35767000e+06
1795.000000 6.17039000e+06
1805.000000 5.64569000e+06
1815.000000 5.94034000e+06
1825.000000 5.40816000e+06
1835.000000 5.64564000e+06
1845.000000 5.11016000e+06
1855.000000 5.46029000e+06
1865.000000 5.71361000e+06
1875.000000 5.84936000e+06
1885.000000 5.97862000e+06
1895.000000 6.19139000e+06
1905.000000 5.82676000e+06
1915.000000 6.37884000e+06
1925.000000 6.57950000e+06
1935.000000 5.88997000e+06
1945.000000 6.89093000e+06
1955.000000 6.91593000e+06
1967.000000 7.28797000e+06
1976.000000 7.10354000e+06
1984.000000 7.02139000e+06
1995.000000 6.87934000e+06
2005.000000 6.65757000e+06
2015.000000 6.69419000e+06
2025.000000 6.25928000e+06
2035.000000 6.93532000e+06
2045.000000 7.40843000e+06
2055.000000 7.13230000e+06
2065.000000 6.96144000e+06
2074.000000 7.78003000e+06
2078.000000 7.92251000e+06
2085.000000 7.77849000e+06
2095.000000 7.52785000e+06
2105.000000 7.28816000e+06
2115.000000 7.42574000e+06
2125.000000 7.62915000e+06
2135.000000 6.36036000e+06
2145.000000 7.33034000e+06
2155.000000 7.38326000e+06
2165.000000 7.00714000e+06
2175.000000 6.98936000e+06
2185.000000 7.30050000e+06
2195.000000 7.91456000e+06
2205.000000 7.62745000e+06
2215.000000 6.98123000e+06
2225.000000 7.09379000e+06
2235.000000 8.09310000e+06
2245.000000 7.27899000e+06
2255.000000 7.02654000e+06
2265.000000 6.96221000e+06
2275.000000 7.61302000e+06
2285.000000 7.84885000e+06
2295.000000 7.34000000e+06
2305.000000 7.59341000e+06
2315.000000 7.58840000e+06
2325.000000 7.51560000e+06
2335.000000 6.97529000e+06
2345.000000 6.07539000e+06
2355.000000 7.63373000e+06
2365.000000 6.37983000e+06
2375.000000 7.27061000e+06
2385.000000 5.69920000e+06
2395.000000 6.56844000e+06
2405.000000 6.36106000e+06
2415.000000 6.64354000e+06
2425.000000 7.67537000e+06
2435.000000 7.50508000e+06
2445.000000 7.92591000e+06
2455.000000 7.76333000e+06
2465.000000 7.78541000e+06
2475.000000 7.39298000e+06
2485.000000 7.66670000e+06
2495.000000 7.48372000e+06
2505.000000 8.50414000e+06
2513.000000 7.54393000e+06
2518.000000 7.72434000e+06
2525.000000 7.14327000e+06
2535.000000 6.94222000e+06
2545.000000 7.02970000e+06
2555.000000 7.64767000e+06
2565.000000 7.63396000e+06
2575.000000 8.25715000e+06
2585.000000 8.25146000e+06
2595.000000 8.04309000e+06
2605.000000 7.68556000e+06
2615.000000 7.45776000e+06
2625.000000 8.32721000e+06
2635.000000 8.55441000e+06
2645.000000 9.85438000e+06
2655.000000 9.86099000e+06
2665.000000 9.07633000e+06
2675.000000 9.46664000e+06
2685.000000 9.60162000e+06
2695.000000 9.02892000e+06
2705.000000 9.24701000e+06
2715.000000 8.72824000e+06
2725.000000 8.85100000e+06
2735.000000 9.53379000e+06
2745.000000 7.80055000e+06
2755.000000 8.33219000e+06
2765.000000 8.80274000e+06
2775.000000 9.55445000e+06
2785.000000 9.31742000e+06
2795.000000 6.03382000e+06
2805.000000 7.00931000e+06
2815.000000 1.00522000e+07
2825.000000 1.01459000e+07
2835.000000 9.87381000e+06
2845.000000 9.62859000e+06
2855.000000 9.18919000e+06
2865.000000 9.84757000e+06
2875.000000 9.67527000e+06
2885.000000 9.97041000e+06
2895.000000 9.67015000e+06
2910.000000 1.06384000e+07
2930.000000 1.03884000e+07
2950.000000 1.03510000e+07
2970.000000 1.05807000e+07
2990.000000 1.07089000e+07
3010.000000 1.08631000e+07
3030.000000 1.09142000e+07
3050.000000 1.09457000e+07
3070.000000 1.09491000e+07
3090.000000 1.11731000e+07
3110.000000 1.10069000e+07
3130.000000 1.10201000e+07
3150.000000 1.12964000e+07
3170.000000 1.13350000e+07
3190.000000 1.09323000e+07
3210.000000 1.12093000e+07
3230.000000 1.09965000e+07
3250.000000 1.12796000e+07
3270.000000 1.14235000e+07
3290.000000 1.16237000e+07
3310.000000 1.17347000e+07
3330.000000 1.15683000e+07
3350.000000 1.14447000e+07
3370.000000 1.14897000e+07
3390.000000 1.15188000e+07
3410.000000 1.17511000e+07
3430.000000 1.18470000e+07
3450.000000 1.17999000e+07
3470.000000 1.17165000e+07
3490.000000 1.17398000e+07
3510.000000 1.19507000e+07
3530.000000 1.20254000e+07
3550.000000 1.21462000e+07
3570.000000 1.19065000e+07
3590.000000 1.19083000e+07
3610.000000 1.19753000e+07
3630.000000 1.20845000e+07
3640.000000 1.20042000e+07
3650.000000 1.22468000e+07
3670.000000 1.21042000e+07
3690.000000 1.26022000e+07
3710.000000 1.58713000e+07
3730.000000 1.96822000e+07
3750.000000 2.70924000e+07
3770.000000 2.87194000e+07
3790.000000 3.44179000e+07
3810.000000 3.94089000e+07
3830.000000 3.14710000e+07
3850.000000 4.24397000e+07
3870.000000 4.60495000e+07
3890.000000 2.88495000e+07
3910.000000 4.54300000e+07
3930.000000 4.26564000e+07
3950.000000 4.53669000e+07
3970.000000 2.70986000e+07
3990.000000 4.42299000e+07
4010.000000 4.67090000e+07
4030.000000 4.63416000e+07
4050.000000 4.58598000e+07
4070.000000 4.43845000e+07
4090.000000 3.79722000e+07
4110.000000 2.97978000e+07
4130.000000 4.29165000e+07
4150.000000 4.36370000e+07
4170.000000 4.31436000e+07
4190.000000 4.26640000e+07
4210.000000 4.22809000e+07
4230.000000 4.15577000e+07
4250.000000 4.12718000e+07
4270.000000 4.07208000e+07
4290.000000 4.02458000e+07
4310.000000 3.83156000e+07
4330.000000 3.21856000e+07
4350.000000 2.78170000e+07
4370.000000 3.82018000e+07
4390.000000 3.82025000e+07
4410.000000 3.77037000e+07
4430.000000 3.79707000e+07
4450.000000 3.75255000e+07
4470.000000 3.71735000e+07
4490.000000 3.68188000e+07
4510.000000 3.65930000e+07
4530.000000 3.59695000e+07
4550.000000 3.52773000e+07
4570.000000 3.55356000e+07
4590.000000 3.50066000e+07
4610.000000 3.51768000e+07
4630.000000 3.44817000e+07
4650.000000 3.44697000e+07
4670.000000 3.41388000e+07
4690.000000 3.36890000e+07
4710.000000 3.28924000e+07
4730.000000 3.31806000e+07
4750.000000 3.29234000e+07
4770.000000 3.25502000e+07
4790.000000 3.21657000e+07
4810.000000 3.17457000e+07
4830.000000 3.09262000e+07
4850.000000 2.63955000e+07
4870.000000 2.17188000e+07
4890.000000 2.96426000e+07
4910.000000 3.02095000e+07
4930.000000 2.97370000e+07
4950.000000 2.98047000e+07
4970.000000 2.97178000e+07
4990.000000 2.93076000e+07
5010.000000 2.87349000e+07
5030.000000 2.88329000e+07
5050.000000 2.85237000e+07
5070.000000 2.83695000e+07
5090.000000 2.80903000e+07
5110.000000 2.78578000e+07
5130.000000 2.75308000e+07
5150.000000 2.72336000e+07
5170.000000 2.65793000e+07
5190.000000 2.64070000e+07
5210.000000 2.64281000e+07
5230.000000 2.60474000e+07
5250.000000 2.61677000e+07
5270.000000 2.55314000e+07
5290.000000 2.56833000e+07
5310.000000 2.53339000e+07
5330.000000 2.50314000e+07
5350.000000 2.50618000e+07
5370.000000 2.47396000e+07
5390.000000 2.45615000e+07
5410.000000 2.42811000e+07
5430.000000 2.41051000e+07
5450.000000 2.39476000e+07
5470.000000 2.37866000e+07
5490.000000 2.36199000e+07
5510.000000 2.34177000e+07
5530.000000 2.31599000e+07
5550.000000 2.30557000e+07
5570.000000 2.28224000e+07
5590.000000 2.26148000e+07
5610.000000 2.24478000e+07
5630.000000 2.22970000e+07
5650.000000 2.20922000e+07
5670.000000 2.18991000e+07
5690.000000 2.17466000e+07
5710.000000 2.15656000e+07
5730.000000 2.14119000e+07
5750.000000 2.12267000e+07
5770.000000 2.10595000e+07
5790.000000 2.08839000e+07
5810.000000 2.07192000e+07
5830.000000 2.05529000e+07
5850.000000 2.03784000e+07
5870.000000 2.02190000e+07
5890.000000 1.98800000e+07
5910.000000 1.98977000e+07
5930.000000 1.97380000e+07
5950.000000 1.95811000e+07
5970.000000 1.94290000e+07
5990.000000 1.92659000e+07
6010.000000 1.91097000e+07
6030.000000 1.89634000e+07
6050.000000 1.88197000e+07
6070.000000 1.86765000e+07
6090.000000 1.85256000e+07
6110.000000 1.83752000e+07
6130.000000 1.82054000e+07
6150.000000 1.80284000e+07
6170.000000 1.79197000e+07
6190.000000 1.78168000e+07
6210.000000 1.76827000e+07
6230.000000 1.75325000e+07
6250.000000 1.73346000e+07
6270.000000 1.72788000e+07
6290.000000 1.71463000e+07
6310.000000 1.69980000e+07
6330.000000 1.68795000e+07
6350.000000 1.67331000e+07
6370.000000 1.66106000e+07
6390.000000 1.64985000e+07
6410.000000 1.63508000e+07
6430.000000 1.62419000e+07
6450.000000 1.60707000e+07
6470.000000 1.59940000e+07
6490.000000 1.58026000e+07
6510.000000 1.56745000e+07
6530.000000 1.54108000e+07
6550.000000 1.41138000e+07
6570.000000 1.14359000e+07
6590.000000 1.48400000e+07
6610.000000 1.50702000e+07
6630.000000 1.50334000e+07
6650.000000 1.49584000e+07
6670.000000 1.48579000e+07
6690.000000 1.47557000e+07
6710.000000 1.46469000e+07
6730.000000 1.45409000e+07
6750.000000 1.44292000e+07
6770.000000 1.43317000e+07
6790.000000 1.42270000e+07
6810.000000 1.41241000e+07
6830.000000 1.40181000e+07
6850.000000 1.39179000e+07
6870.000000 1.38202000e+07
6890.000000 1.37218000e+07
6910.000000 1.36228000e+07
6930.000000 1.35238000e+07
6950.000000 1.34282000e+07
6970.000000 1.33318000e+07
6990.000000 1.32379000e+07
7010.000000 1.31357000e+07
7030.000000 1.30466000e+07
7050.000000 1.29575000e+07
7070.000000 1.28662000e+07
7090.000000 1.27757000e+07
7110.000000 1.26525000e+07
7130.000000 1.25890000e+07
7150.000000 1.25025000e+07
7170.000000 1.24160000e+07
7190.000000 1.23244000e+07
7210.000000 1.22395000e+07
7230.000000 1.21546000e+07
7250.000000 1.20733000e+07
7270.000000 1.19912000e+07
7290.000000 1.19029000e+07
7310.000000 1.18188000e+07
7330.000000 1.17382000e+07
7350.000000 1.16619000e+07
7370.000000 1.15848000e+07
7390.000000 1.15001000e+07
7410.000000 1.14141000e+07
7430.000000 1.13377000e+07
7450.000000 1.12620000e+07
7470.000000 1.11768000e+07
7490.000000 1.11038000e+07
7510.000000 1.10333000e+07
7530.000000 1.09622000e+07
7550.000000 1.08916000e+07
7570.000000 1.08157000e+07
7590.000000 1.07438000e+07
7610.000000 1.06718000e+07
7630.000000 1.05997000e+07
7650.000000 1.05263000e+07
7670.000000 1.04510000e+07
7690.000000 1.03853000e+07
7710.000000 1.03086000e+07
7730.000000 1.02484000e+07
7750.000000 1.01787000e+07
7770.000000 1.00296000e+07
7790.000000 1.00465000e+07
7810.000000 9.97964000e+06
7830.000000 9.90968000e+06
7850.000000 9.84152000e+06
7870.000000 9.77514000e+06
7890.000000 9.70931000e+06
7910.000000 9.64943000e+06
7930.000000 9.58285000e+06
7950.000000 9.51979000e+06
7970.000000 9.46614000e+06
7990.000000 9.39698000e+06
8010.000000 9.34013000e+06
8030.000000 9.27905000e+06
8050.000000 9.21963000e+06
8070.000000 9.15953000e+06
8090.000000 9.09933000e+06
8110.000000 9.04248000e+06
8130.000000 8.98436000e+06
8150.000000 8.92614000e+06
8170.000000 8.86838000e+06
8190.000000 8.78862000e+06
8210.000000 8.76150000e+06
8230.000000 8.70451000e+06
8250.000000 8.64520000e+06
8270.000000 8.61335000e+06
8290.000000 8.55649000e+06
8310.000000 8.49080000e+06
8330.000000 8.38710000e+06
8350.000000 8.37128000e+06
8370.000000 8.24152000e+06
8390.000000 8.19425000e+06
8410.000000 8.11750000e+06
8430.000000 8.18612000e+06
8450.000000 8.11206000e+06
8470.000000 7.80861000e+06
8490.000000 8.31699000e+06
8510.000000 7.59752000e+06
8530.000000 8.37224000e+06
8550.000000 7.29676000e+06
8570.000000 8.45584000e+06
8590.000000 7.94782000e+06
8610.000000 7.69598000e+06
8630.000000 8.54708000e+06
8650.000000 8.34396000e+06
8670.000000 6.99343000e+06
8690.000000 8.42347000e+06
8710.000000 8.57155000e+06
8730.000000 8.37414000e+06
8750.000000 6.93010000e+06
8770.000000 8.09465000e+06
8790.000000 8.41282000e+06
8810.000000 8.38098000e+06
8830.000000 8.27637000e+06
8850.000000 7.78206000e+06
8870.000000 6.73955000e+06
8890.000000 8.02251000e+06
8910.000000 8.11656000e+06
8930.000000 8.08827000e+06
8950.000000 8.07286000e+06
8970.000000 7.99570000e+06
8990.000000 7.81612000e+06
9010.000000 6.60970000e+06
9030.000000 7.19446000e+06
9050.000000 7.73261000e+06
9070.000000 7.69076000e+06
9090.000000 7.60178000e+06
9110.000000 7.66195000e+06
9130.000000 7.65780000e+06
9150.000000 7.59961000e+06
9170.000000 7.53917000e+06
9190.000000 7.44929000e+06
9210.000000 7.16693000e+06
9230.000000 5.95034000e+06
9250.000000 6.98972000e+06
9270.000000 7.21781000e+06
9290.000000 7.26490000e+06
9310.000000 7.23937000e+06
9330.000000 7.20361000e+06
9350.000000 7.16162000e+06
9370.000000 7.11906000e+06
9390.000000 7.07253000e+06
9410.000000 6.96167000e+06
9430.000000 6.98173000e+06
9450.000000 6.94335000e+06
9470.000000 6.89347000e+06
9490.000000 6.83600000e+06
9510.000000 6.74605000e+06
9530.000000 6.45436000e+06
9550.000000 5.44012000e+06
9570.000000 6.44865000e+06
9590.000000 6.59833000e+06
9610.000000 6.58028000e+06
9630.000000 6.53875000e+06
9650.000000 6.53838000e+06
9670.000000 6.46422000e+06
9690.000000 6.45923000e+06
9710.000000 6.42746000e+06
9730.000000 6.38952000e+06
9750.000000 6.34709000e+06
9770.000000 6.31442000e+06
9790.000000 6.27724000e+06
9810.000000 6.23993000e+06
9830.000000 6.20365000e+06
9850.000000 6.16295000e+06
9870.000000 6.12795000e+06
9890.000000 6.08123000e+06
9910.000000 6.05594000e+06
9930.000000 6.01935000e+06
9950.000000 5.98718000e+06
9970.000000 5.94651000e+06
9990.000000 5.89706000e+06
10025.000000 5.59393000e+06
10075.000000 5.35000000e+06
10125.000000 5.67066000e+06
10175.000000 5.61033000e+06
10225.000000 5.53254000e+06
10275.000000 5.45492000e+06
10325.000000 5.37394000e+06
10375.000000 5.30162000e+06
10425.000000 5.22801000e+06
10475.000000 5.13942000e+06
10525.000000 5.08084000e+06
10575.000000 5.01068000e+06
10625.000000 4.93927000e+06
10675.000000 4.82963000e+06
10725.000000 4.78667000e+06
10775.000000 4.73554000e+06
10825.000000 4.66746000e+06
10875.000000 4.58673000e+06
10925.000000 4.10674000e+06
10975.000000 4.36622000e+06
11025.000000 4.42155000e+06
11075.000000 4.37250000e+06
11125.000000 4.31259000e+06
11175.000000 4.25568000e+06
11225.000000 4.20021000e+06
11275.000000 4.13430000e+06
11325.000000 4.07526000e+06
11375.000000 4.03368000e+06
11425.000000 3.97796000e+06
11475.000000 3.93136000e+06
11525.000000 3.88059000e+06
11575.000000 3.82998000e+06
11625.000000 3.77202000e+06
11675.000000 3.71324000e+06
11725.000000 3.68411000e+06
11775.000000 3.61023000e+06
11825.000000 3.57653000e+06
11875.000000 3.53071000e+06
11925.000000 3.49984000e+06
11975.000000 3.44152000e+06
12025.000000 3.40983000e+06
12075.000000 3.36434000e+06
12125.000000 3.32384000e+06
12175.000000 3.28465000e+06
12225.000000 3.24321000e+06
12275.000000 3.20109000e+06
12325.000000 3.16253000e+06
12375.000000 3.12398000e+06
12425.000000 3.08620000e+06
12475.000000 3.04771000e+06
12525.000000 3.00998000e+06
12575.000000 2.96989000e+06
12625.000000 2.93389000e+06
12675.000000 2.90141000e+06
12725.000000 2.86236000e+06
12775.000000 2.79499000e+06
12825.000000 2.49518000e+06
12875.000000 2.73856000e+06
12925.000000 2.72824000e+06
12975.000000 2.69808000e+06
13025.000000 2.66630000e+06
13075.000000 2.63471000e+06
13125.000000 2.60286000e+06
13175.000000 2.57120000e+06
13225.000000 2.54211000e+06
13275.000000 2.51209000e+06
13325.000000 2.48266000e+06
13375.000000 2.45340000e+06
13425.000000 2.42491000e+06
13475.000000 2.39637000e+06
13525.000000 2.36777000e+06
13575.000000 2.34034000e+06
13625.000000 2.31407000e+06
13675.000000 2.28710000e+06
13725.000000 2.25547000e+06
13775.000000 2.23376000e+06
13825.000000 2.20837000e+06
13875.000000 2.18407000e+06
13925.000000 2.15831000e+06
13975.000000 2.13421000e+06
14025.000000 2.11002000e+06
14075.000000 2.08631000e+06
14125.000000 2.06231000e+06
14175.000000 2.03935000e+06
14225.000000 2.01592000e+06
14275.000000 1.99313000e+06
14325.000000 1.97117000e+06
14375.000000 1.94927000e+06
14425.000000 1.91641000e+06
14475.000000 1.90589000e+06
14525.000000 1.87851000e+06
14570.000000 1.86550000e+06
14620.000000 1.84483000e+06
14675.000000 1.82473000e+06
14725.000000 1.80472000e+06
14775.000000 1.78372000e+06
14825.000000 1.76554000e+06
14875.000000 1.74296000e+06
14925.000000 1.72775000e+06
14975.000000 1.70868000e+06
15025.000000 1.68197000e+06
15075.000000 1.66635000e+06
