# Kurucz ODFNEW /NOVER, alpha: 0.0 (2003)
# teff = 31000 K (value for the effective temperature for the model. Temperatures are given in K)
# logg = 4 log(cm/s2) (value for Log(G) for the model.)
# lh = 1.25  (l/Hp where l is the  mixing length of the convective element and Hp is the pressure scale height)
# meta = -0.5  (value for the Metallicity for the model.)
# vtur = 2 km/s (Microturbulence velocity)
# alpha = 0  (Alpha)
#
# column 1: WAVELENGTH (ANGSTROM), Wavelength in Angstrom
# column 2: FLUX (ERG/CM2/S/A), Flux in erg/cm2/s/A
147.200000 7.95105000e-08
151.000000 2.37015000e-07
155.200000 7.47796000e-07
158.800000 1.91327000e-06
162.000000 4.26684000e-06
166.000000 1.11608000e-05
170.300000 2.98907000e-05
173.400000 5.91301000e-05
176.800000 1.21703000e-04
180.200000 2.43936000e-04
181.700000 3.29056000e-04
186.100000 7.70478000e-04
191.000000 1.90136000e-03
193.900000 3.17779000e-03
198.400000 6.85285000e-03
201.800000 1.19754000e-02
205.000000 1.99207000e-02
210.500000 4.61400000e-02
216.200000 1.05308000e-01
219.800000 1.73751000e-01
223.000000 2.67413000e-01
226.800000 4.39464000e-01
230.000000 4.01299000e+02
234.000000 9.92117000e+02
240.000000 1.67285000e+03
246.500000 3.00876000e+03
252.400000 5.05783000e+03
256.800000 6.46503000e+03
260.000000 1.12099000e+04
264.000000 1.68197000e+04
268.500000 2.47816000e+04
273.500000 3.49220000e+04
278.500000 4.61951000e+04
284.000000 9.07867000e+04
290.000000 1.32290000e+05
296.000000 1.79735000e+05
301.000000 2.32825000e+05
308.000000 4.37355000e+05
318.000000 9.78929000e+05
328.000000 1.46698000e+06
338.000000 2.49459000e+06
348.000000 3.84245000e+06
357.000000 6.73950000e+06
366.000000 1.09048000e+07
375.000000 1.38063000e+07
385.000000 1.95752000e+07
395.000000 2.79556000e+07
405.000000 3.55656000e+07
414.000000 4.54701000e+07
422.000000 5.26115000e+07
430.000000 6.28378000e+07
441.000000 7.98938000e+07
451.000000 9.60266000e+07
460.000000 1.09620000e+08
470.000000 1.32582000e+08
480.000000 1.57716000e+08
490.000000 1.82559000e+08
500.000000 2.19091000e+08
506.000000 7.14184000e+08
512.000000 3.71119000e+09
520.000000 3.51247000e+09
530.000000 3.27844000e+09
540.000000 3.02908000e+09
550.000000 3.59991000e+09
560.000000 4.20241000e+09
570.000000 4.40747000e+09
580.000000 4.04559000e+09
590.000000 4.38742000e+09
600.000000 3.99396000e+09
610.000000 4.52146000e+09
620.000000 5.08075000e+09
630.000000 5.02761000e+09
640.000000 4.95230000e+09
650.000000 5.02865000e+09
658.000000 4.77442000e+09
665.000000 5.21028000e+09
675.000000 5.46558000e+09
685.000000 4.88759000e+09
695.000000 5.84150000e+09
705.000000 5.28024000e+09
716.000000 6.19618000e+09
726.000000 6.12501000e+09
735.000000 6.20166000e+09
745.000000 6.26191000e+09
755.000000 6.27815000e+09
765.000000 6.41842000e+09
775.000000 6.57273000e+09
785.000000 6.81778000e+09
795.000000 6.83272000e+09
805.000000 6.74599000e+09
815.000000 6.76238000e+09
825.000000 7.03837000e+09
835.000000 6.26887000e+09
845.000000 6.94920000e+09
855.000000 6.97982000e+09
865.000000 7.16376000e+09
875.000000 7.26371000e+09
885.000000 7.40833000e+09
895.000000 7.50802000e+09
905.000000 7.39729000e+09
915.000000 8.78484000e+09
925.000000 3.34489000e+10
935.000000 5.29656000e+10
945.000000 7.18803000e+10
955.000000 7.71118000e+10
965.000000 8.62668000e+10
975.000000 4.10920000e+10
985.000000 7.46295000e+10
995.000000 6.90197000e+10
1005.000000 7.16440000e+10
1015.000000 7.27843000e+10
1025.000000 5.58160000e+10
1035.000000 6.91616000e+10
1045.000000 7.74279000e+10
1055.000000 7.44168000e+10
1065.000000 6.64161000e+10
1075.000000 6.83093000e+10
1085.000000 6.33213000e+10
1095.000000 6.69804000e+10
1105.000000 6.42186000e+10
1115.000000 6.30203000e+10
1125.000000 5.48295000e+10
1135.000000 6.07195000e+10
1145.000000 5.75256000e+10
1155.000000 5.64067000e+10
1165.000000 5.50622000e+10
1175.000000 4.00762000e+10
1185.000000 5.05955000e+10
1195.000000 4.93829000e+10
1205.000000 4.66493000e+10
1215.000000 3.58527000e+10
1225.000000 4.57511000e+10
1235.000000 4.79623000e+10
1245.000000 4.62300000e+10
1255.000000 4.59937000e+10
1265.000000 4.63924000e+10
1275.000000 4.64369000e+10
1285.000000 4.59611000e+10
1295.000000 4.26751000e+10
1305.000000 4.26939000e+10
1315.000000 4.38988000e+10
1325.000000 4.22430000e+10
1335.000000 4.09552000e+10
1345.000000 4.09024000e+10
1355.000000 4.00608000e+10
1365.000000 3.87218000e+10
1375.000000 3.79255000e+10
1385.000000 3.69674000e+10
1395.000000 3.12743000e+10
1405.000000 3.17086000e+10
1415.000000 3.45717000e+10
1425.000000 3.19287000e+10
1435.000000 3.30348000e+10
1442.000000 3.30101000e+10
1447.000000 3.26169000e+10
1455.000000 3.14691000e+10
1465.000000 3.07794000e+10
1475.000000 3.04985000e+10
1485.000000 3.03010000e+10
1495.000000 2.93728000e+10
1505.000000 2.85862000e+10
1512.000000 2.78673000e+10
1517.000000 2.78836000e+10
1525.000000 2.71982000e+10
1535.000000 2.44227000e+10
1545.000000 2.24725000e+10
1555.000000 2.20816000e+10
1565.000000 2.33815000e+10
1575.000000 2.41304000e+10
1585.000000 2.41073000e+10
1595.000000 2.37853000e+10
1605.000000 2.24500000e+10
1615.000000 2.16586000e+10
1625.000000 2.18751000e+10
1635.000000 2.19451000e+10
1645.000000 2.14174000e+10
1655.000000 2.17824000e+10
1665.000000 2.13857000e+10
1672.000000 2.02664000e+10
1677.000000 2.22126000e+10
1685.000000 2.13759000e+10
1695.000000 2.07363000e+10
1705.000000 2.03137000e+10
1715.000000 1.96125000e+10
1725.000000 1.90452000e+10
1735.000000 1.94796000e+10
1745.000000 1.91469000e+10
1755.000000 1.88167000e+10
1765.000000 1.85183000e+10
1775.000000 1.80746000e+10
1785.000000 1.80725000e+10
1795.000000 1.77384000e+10
1805.000000 1.76731000e+10
1815.000000 1.71083000e+10
1825.000000 1.69134000e+10
1835.000000 1.67967000e+10
1845.000000 1.58714000e+10
1855.000000 1.58311000e+10
1865.000000 1.58134000e+10
1875.000000 1.56130000e+10
1885.000000 1.48191000e+10
1895.000000 1.43872000e+10
1905.000000 1.47223000e+10
1915.000000 1.42649000e+10
1925.000000 1.36047000e+10
1935.000000 1.40732000e+10
1945.000000 1.41499000e+10
1955.000000 1.31529000e+10
1967.000000 1.35138000e+10
1976.000000 1.37181000e+10
1984.000000 1.31847000e+10
1995.000000 1.28087000e+10
2005.000000 1.29427000e+10
2015.000000 1.28962000e+10
2025.000000 1.28362000e+10
2035.000000 1.23574000e+10
2045.000000 1.21927000e+10
2055.000000 1.04811000e+10
2065.000000 1.01890000e+10
2074.000000 1.05378000e+10
2078.000000 1.03865000e+10
2085.000000 1.08186000e+10
2095.000000 1.10735000e+10
2105.000000 1.12236000e+10
2115.000000 1.12196000e+10
2125.000000 1.10726000e+10
2135.000000 1.09302000e+10
2145.000000 1.07123000e+10
2155.000000 1.07007000e+10
2165.000000 1.03915000e+10
2175.000000 1.04109000e+10
2185.000000 1.01611000e+10
2195.000000 1.01868000e+10
2205.000000 1.00342000e+10
2215.000000 9.76488000e+09
2225.000000 9.72981000e+09
2235.000000 9.57053000e+09
2245.000000 9.45482000e+09
2255.000000 9.20519000e+09
2265.000000 9.19826000e+09
2275.000000 9.07972000e+09
2285.000000 8.91167000e+09
2295.000000 8.34494000e+09
2305.000000 8.57050000e+09
2315.000000 8.52966000e+09
2325.000000 8.43275000e+09
2335.000000 8.29987000e+09
2345.000000 8.21416000e+09
2355.000000 8.09156000e+09
2365.000000 7.98017000e+09
2375.000000 7.84966000e+09
2385.000000 7.62635000e+09
2395.000000 7.59826000e+09
2405.000000 7.53846000e+09
2415.000000 7.43095000e+09
2425.000000 7.34801000e+09
2435.000000 7.22424000e+09
2445.000000 7.14132000e+09
2455.000000 7.04951000e+09
2465.000000 6.95894000e+09
2475.000000 6.86162000e+09
2485.000000 6.73818000e+09
2495.000000 5.77075000e+09
2505.000000 6.51994000e+09
2513.000000 6.27567000e+09
2518.000000 6.37852000e+09
2525.000000 6.42061000e+09
2535.000000 6.34837000e+09
2545.000000 6.21889000e+09
2555.000000 6.15472000e+09
2565.000000 6.09309000e+09
2575.000000 6.01631000e+09
2585.000000 5.94335000e+09
2595.000000 5.86127000e+09
2605.000000 5.81136000e+09
2615.000000 5.72513000e+09
2625.000000 5.66191000e+09
2635.000000 5.58863000e+09
2645.000000 5.51038000e+09
2655.000000 5.44222000e+09
2665.000000 5.34629000e+09
2675.000000 5.26849000e+09
2685.000000 5.24499000e+09
2695.000000 5.13233000e+09
2705.000000 5.09131000e+09
2715.000000 5.02950000e+09
2725.000000 4.95927000e+09
2735.000000 4.86913000e+09
2745.000000 4.86092000e+09
2755.000000 4.80465000e+09
2765.000000 4.71886000e+09
2775.000000 4.69880000e+09
2785.000000 4.63297000e+09
2795.000000 4.51683000e+09
2805.000000 4.50580000e+09
2815.000000 4.47494000e+09
2825.000000 4.39658000e+09
2835.000000 4.32793000e+09
2845.000000 4.31785000e+09
2855.000000 4.25910000e+09
2865.000000 4.20706000e+09
2875.000000 4.15989000e+09
2885.000000 4.11241000e+09
2895.000000 4.06324000e+09
2910.000000 3.98413000e+09
2930.000000 3.90280000e+09
2950.000000 3.79050000e+09
2970.000000 3.72134000e+09
2990.000000 3.62802000e+09
3010.000000 3.53885000e+09
3030.000000 3.46192000e+09
3050.000000 3.39297000e+09
3070.000000 3.32617000e+09
3090.000000 3.22955000e+09
3110.000000 3.17884000e+09
3130.000000 3.10554000e+09
3150.000000 3.03791000e+09
3170.000000 2.97184000e+09
3190.000000 2.89871000e+09
3210.000000 2.83787000e+09
3230.000000 2.78623000e+09
3250.000000 2.73267000e+09
3270.000000 2.66919000e+09
3290.000000 2.61547000e+09
3310.000000 2.56357000e+09
3330.000000 2.50603000e+09
3350.000000 2.45199000e+09
3370.000000 2.40483000e+09
3390.000000 2.36178000e+09
3410.000000 2.31385000e+09
3430.000000 2.26251000e+09
3450.000000 2.20996000e+09
3470.000000 2.17038000e+09
3490.000000 2.12659000e+09
3510.000000 2.08936000e+09
3530.000000 2.05173000e+09
3550.000000 2.01062000e+09
3570.000000 1.97801000e+09
3590.000000 1.92914000e+09
3610.000000 1.89508000e+09
3630.000000 1.85641000e+09
3640.000000 1.84410000e+09
3650.000000 1.78593000e+09
3670.000000 1.75889000e+09
3690.000000 1.72310000e+09
3710.000000 1.67069000e+09
3730.000000 1.61984000e+09
3750.000000 1.64491000e+09
3770.000000 1.62305000e+09
3790.000000 1.66278000e+09
3810.000000 1.69784000e+09
3830.000000 1.53954000e+09
3850.000000 1.69164000e+09
3870.000000 1.66643000e+09
3890.000000 1.45836000e+09
3910.000000 1.63423000e+09
3930.000000 1.59308000e+09
3950.000000 1.56743000e+09
3970.000000 1.34816000e+09
3990.000000 1.51623000e+09
4010.000000 1.49210000e+09
4030.000000 1.43349000e+09
4050.000000 1.44856000e+09
4070.000000 1.40408000e+09
4090.000000 1.33607000e+09
4110.000000 1.22100000e+09
4130.000000 1.33136000e+09
4150.000000 1.31416000e+09
4170.000000 1.30117000e+09
4190.000000 1.27771000e+09
4210.000000 1.25603000e+09
4230.000000 1.23842000e+09
4250.000000 1.21200000e+09
4270.000000 1.18538000e+09
4290.000000 1.16963000e+09
4310.000000 1.14393000e+09
4330.000000 1.08064000e+09
4350.000000 1.00481000e+09
4370.000000 1.08885000e+09
4390.000000 1.06253000e+09
4410.000000 1.05603000e+09
4430.000000 1.04298000e+09
4450.000000 1.02632000e+09
4470.000000 9.86598000e+08
4490.000000 9.93339000e+08
4510.000000 9.77325000e+08
4530.000000 9.62968000e+08
4550.000000 9.43493000e+08
4570.000000 9.32060000e+08
4590.000000 9.15694000e+08
4610.000000 9.00870000e+08
4630.000000 8.84669000e+08
4650.000000 8.53728000e+08
4670.000000 8.57349000e+08
4690.000000 8.38372000e+08
4710.000000 8.23455000e+08
4730.000000 8.22282000e+08
4750.000000 8.08726000e+08
4770.000000 7.98697000e+08
4790.000000 7.86278000e+08
4810.000000 7.73451000e+08
4830.000000 7.59211000e+08
4850.000000 7.24967000e+08
4870.000000 6.64398000e+08
4890.000000 7.25207000e+08
4910.000000 7.16420000e+08
4930.000000 6.95445000e+08
4950.000000 6.94080000e+08
4970.000000 6.86156000e+08
4990.000000 6.75886000e+08
5010.000000 6.57803000e+08
5030.000000 6.55575000e+08
5050.000000 6.43775000e+08
5070.000000 6.37269000e+08
5090.000000 6.27822000e+08
5110.000000 6.18632000e+08
5130.000000 6.09280000e+08
5150.000000 6.00594000e+08
5170.000000 5.92207000e+08
5190.000000 5.84071000e+08
5210.000000 5.75876000e+08
5230.000000 5.67706000e+08
5250.000000 5.59384000e+08
5270.000000 5.51443000e+08
5290.000000 5.44118000e+08
5310.000000 5.36486000e+08
5330.000000 5.29099000e+08
5350.000000 5.21742000e+08
5370.000000 5.14584000e+08
5390.000000 5.07348000e+08
5410.000000 4.98559000e+08
5430.000000 4.93730000e+08
5450.000000 4.86955000e+08
5470.000000 4.80328000e+08
5490.000000 4.73848000e+08
5510.000000 4.67523000e+08
5530.000000 4.61166000e+08
5550.000000 4.55108000e+08
5570.000000 4.48980000e+08
5590.000000 4.42796000e+08
5610.000000 4.37190000e+08
5630.000000 4.31427000e+08
5650.000000 4.25640000e+08
5670.000000 4.19655000e+08
5690.000000 4.12044000e+08
5710.000000 4.05684000e+08
5730.000000 4.00597000e+08
5750.000000 3.95069000e+08
5770.000000 3.90524000e+08
5790.000000 3.85482000e+08
5810.000000 3.80534000e+08
5830.000000 3.75533000e+08
5850.000000 3.71330000e+08
5870.000000 3.59172000e+08
5890.000000 3.61797000e+08
5910.000000 3.58047000e+08
5930.000000 3.53761000e+08
5950.000000 3.49599000e+08
5970.000000 3.46257000e+08
5990.000000 3.41701000e+08
6010.000000 3.37710000e+08
6030.000000 3.33401000e+08
6050.000000 3.29348000e+08
6070.000000 3.25392000e+08
6090.000000 3.21399000e+08
6110.000000 3.17452000e+08
6130.000000 3.13610000e+08
6150.000000 3.09551000e+08
6170.000000 3.05855000e+08
6190.000000 3.02289000e+08
6210.000000 2.98685000e+08
6230.000000 2.95091000e+08
6250.000000 2.91489000e+08
6270.000000 2.88060000e+08
6290.000000 2.84651000e+08
6310.000000 2.81193000e+08
6330.000000 2.77934000e+08
6350.000000 2.74588000e+08
6370.000000 2.71418000e+08
6390.000000 2.68209000e+08
6410.000000 2.65061000e+08
6430.000000 2.61994000e+08
6450.000000 2.58923000e+08
6470.000000 2.55731000e+08
6490.000000 2.52834000e+08
6510.000000 2.50003000e+08
6530.000000 2.46503000e+08
6550.000000 2.39820000e+08
6570.000000 2.18140000e+08
6590.000000 2.37307000e+08
6610.000000 2.35960000e+08
6630.000000 2.33373000e+08
6650.000000 2.30736000e+08
6670.000000 2.26441000e+08
6690.000000 2.23835000e+08
6710.000000 2.22988000e+08
6730.000000 2.20376000e+08
6750.000000 2.18096000e+08
6770.000000 2.15732000e+08
6790.000000 2.13058000e+08
6810.000000 2.10955000e+08
6830.000000 2.08607000e+08
6850.000000 2.06347000e+08
6870.000000 2.04078000e+08
6890.000000 2.01617000e+08
6910.000000 1.99489000e+08
6930.000000 1.97492000e+08
6950.000000 1.95343000e+08
6970.000000 1.93231000e+08
6990.000000 1.91140000e+08
7010.000000 1.89070000e+08
7030.000000 1.86959000e+08
7050.000000 1.85020000e+08
7070.000000 1.80772000e+08
7090.000000 1.81125000e+08
7110.000000 1.79161000e+08
7130.000000 1.77283000e+08
7150.000000 1.75430000e+08
7170.000000 1.73463000e+08
7190.000000 1.71720000e+08
7210.000000 1.69957000e+08
7230.000000 1.67432000e+08
7250.000000 1.66316000e+08
7270.000000 1.64690000e+08
7290.000000 1.61930000e+08
7310.000000 1.61271000e+08
7330.000000 1.59614000e+08
7350.000000 1.57979000e+08
7370.000000 1.56360000e+08
7390.000000 1.54756000e+08
7410.000000 1.53174000e+08
7430.000000 1.51613000e+08
7450.000000 1.50081000e+08
7470.000000 1.48428000e+08
7490.000000 1.46991000e+08
7510.000000 1.45535000e+08
7530.000000 1.44098000e+08
7550.000000 1.42662000e+08
7570.000000 1.41232000e+08
7590.000000 1.39684000e+08
7610.000000 1.38359000e+08
7630.000000 1.37039000e+08
7650.000000 1.35686000e+08
7670.000000 1.34352000e+08
7690.000000 1.32992000e+08
7710.000000 1.31700000e+08
7730.000000 1.30370000e+08
7750.000000 1.29140000e+08
7770.000000 1.27871000e+08
7790.000000 1.26638000e+08
7810.000000 1.25354000e+08
7830.000000 1.24192000e+08
7850.000000 1.23065000e+08
7870.000000 1.21820000e+08
7890.000000 1.20598000e+08
7910.000000 1.19537000e+08
7930.000000 1.18366000e+08
7950.000000 1.17258000e+08
7970.000000 1.16060000e+08
7990.000000 1.15019000e+08
8010.000000 1.13876000e+08
8030.000000 1.12766000e+08
8050.000000 1.11730000e+08
8070.000000 1.10679000e+08
8090.000000 1.09528000e+08
8110.000000 1.08359000e+08
8130.000000 1.07615000e+08
8150.000000 1.06481000e+08
8170.000000 1.05621000e+08
8190.000000 1.04449000e+08
8210.000000 1.03080000e+08
8230.000000 1.02157000e+08
8250.000000 1.01413000e+08
8270.000000 1.00053000e+08
8290.000000 9.95050000e+07
8310.000000 9.86393000e+07
8330.000000 9.76830000e+07
8350.000000 9.64646000e+07
8370.000000 9.58105000e+07
8390.000000 9.50546000e+07
8410.000000 9.41769000e+07
8430.000000 9.32747000e+07
8450.000000 9.20158000e+07
8470.000000 9.15293000e+07
8490.000000 9.06648000e+07
8510.000000 8.96201000e+07
8530.000000 8.91123000e+07
8550.000000 8.75260000e+07
8570.000000 8.81952000e+07
8590.000000 8.54977000e+07
8610.000000 8.51060000e+07
8630.000000 8.63661000e+07
8650.000000 8.44214000e+07
8670.000000 8.05843000e+07
8690.000000 8.41549000e+07
8710.000000 8.40767000e+07
8730.000000 8.21003000e+07
8750.000000 7.63029000e+07
8770.000000 7.99816000e+07
8790.000000 8.14270000e+07
8810.000000 8.08781000e+07
8830.000000 7.99613000e+07
8850.000000 7.63007000e+07
8870.000000 7.18534000e+07
8890.000000 7.74222000e+07
8910.000000 7.74736000e+07
8930.000000 7.68813000e+07
8950.000000 7.64158000e+07
8970.000000 7.56072000e+07
8990.000000 7.39660000e+07
9010.000000 6.76887000e+07
9030.000000 7.01751000e+07
9050.000000 7.27677000e+07
9070.000000 7.20167000e+07
9090.000000 7.18415000e+07
9110.000000 7.14220000e+07
9130.000000 7.08518000e+07
9150.000000 7.02589000e+07
9170.000000 6.95048000e+07
9190.000000 6.88056000e+07
9210.000000 6.65174000e+07
9230.000000 6.03525000e+07
9250.000000 6.55471000e+07
9270.000000 6.64833000e+07
9290.000000 6.61973000e+07
9310.000000 6.54829000e+07
9330.000000 6.51030000e+07
9350.000000 6.44757000e+07
9370.000000 6.40892000e+07
9390.000000 6.35772000e+07
9410.000000 6.30434000e+07
9430.000000 6.25348000e+07
9450.000000 6.20257000e+07
9470.000000 6.12599000e+07
9490.000000 6.09560000e+07
9510.000000 5.98418000e+07
9530.000000 5.79067000e+07
9550.000000 5.28357000e+07
9570.000000 5.79214000e+07
9590.000000 5.83764000e+07
9610.000000 5.79624000e+07
9630.000000 5.74294000e+07
9650.000000 5.72159000e+07
9670.000000 5.67619000e+07
9690.000000 5.62750000e+07
9710.000000 5.55160000e+07
9730.000000 5.53955000e+07
9750.000000 5.49782000e+07
9770.000000 5.45481000e+07
9790.000000 5.41172000e+07
9810.000000 5.36775000e+07
9830.000000 5.32722000e+07
9850.000000 5.28503000e+07
9870.000000 5.24313000e+07
9890.000000 5.20038000e+07
9910.000000 5.15026000e+07
9930.000000 5.12227000e+07
9950.000000 5.08267000e+07
9970.000000 5.04222000e+07
9990.000000 5.00166000e+07
10025.000000 4.78799000e+07
10075.000000 4.64261000e+07
10125.000000 4.72843000e+07
10175.000000 4.66169000e+07
10225.000000 4.57225000e+07
10275.000000 4.48825000e+07
10325.000000 4.39118000e+07
10375.000000 4.32305000e+07
10425.000000 4.24321000e+07
10475.000000 4.16537000e+07
10525.000000 4.08916000e+07
10575.000000 4.01454000e+07
10625.000000 3.94180000e+07
10675.000000 3.86562000e+07
10725.000000 3.80117000e+07
10775.000000 3.73320000e+07
10825.000000 3.63578000e+07
10875.000000 3.59637000e+07
10925.000000 3.32491000e+07
10975.000000 3.42667000e+07
11025.000000 3.40093000e+07
11075.000000 3.35432000e+07
11125.000000 3.29745000e+07
11175.000000 3.24056000e+07
11225.000000 3.18365000e+07
11275.000000 3.13028000e+07
11325.000000 3.07597000e+07
11375.000000 3.02454000e+07
11425.000000 2.97330000e+07
11475.000000 2.92341000e+07
11525.000000 2.87456000e+07
11575.000000 2.82616000e+07
11625.000000 2.77768000e+07
11675.000000 2.73210000e+07
11725.000000 2.68852000e+07
11775.000000 2.64435000e+07
11825.000000 2.60097000e+07
11875.000000 2.55872000e+07
11925.000000 2.51721000e+07
11975.000000 2.45827000e+07
12025.000000 2.43672000e+07
12075.000000 2.39767000e+07
12125.000000 2.35928000e+07
12175.000000 2.32187000e+07
12225.000000 2.28510000e+07
12275.000000 2.24907000e+07
12325.000000 2.21369000e+07
12375.000000 2.17901000e+07
12425.000000 2.14509000e+07
12475.000000 2.11159000e+07
12525.000000 2.07543000e+07
12575.000000 2.04681000e+07
12625.000000 2.01541000e+07
12675.000000 1.98477000e+07
12725.000000 1.95450000e+07
12775.000000 1.90026000e+07
12825.000000 1.78213000e+07
12875.000000 1.86020000e+07
12925.000000 1.83914000e+07
12975.000000 1.80234000e+07
13025.000000 1.78431000e+07
13075.000000 1.75817000e+07
