# Kurucz ODFNEW /NOVER, alpha: 0.0 (2003)
# teff = 27000 K (value for the effective temperature for the model. Temperatures are given in K)
# logg = 3.5 log(cm/s2) (value for Log(G) for the model.)
# lh = 1.25  (l/Hp where l is the  mixing length of the convective element and Hp is the pressure scale height)
# meta = -1  (value for the Metallicity for the model.)
# vtur = 2 km/s (Microturbulence velocity)
# alpha = 0  (Alpha)
#
# column 1: WAVELENGTH (ANGSTROM), Wavelength in Angstrom
# column 2: FLUX (ERG/CM2/S/A), Flux in erg/cm2/s/A
147.200000 8.77917000e-12
151.000000 3.48625000e-11
155.200000 1.48058000e-10
158.800000 4.81432000e-10
162.000000 1.31499000e-09
166.000000 4.37143000e-09
170.300000 1.49200000e-08
173.400000 3.48080000e-08
176.800000 8.51401000e-08
180.200000 2.01231000e-07
181.700000 2.91046000e-07
186.100000 8.30512000e-07
191.000000 2.51993000e-06
193.900000 4.73061000e-06
198.400000 1.21118000e-05
201.800000 2.39535000e-05
205.000000 4.45630000e-05
210.500000 1.23867000e-04
216.200000 3.37878000e-04
219.800000 6.19655000e-04
223.000000 1.04461000e-03
226.800000 1.90539000e-03
230.000000 8.17125000e-01
234.000000 2.00185000e+00
240.000000 4.04036000e+00
246.500000 8.61250000e+00
252.400000 1.65681000e+01
256.800000 2.26519000e+01
260.000000 3.75815000e+01
264.000000 5.44694000e+01
268.500000 8.47758000e+01
273.500000 1.33307000e+02
278.500000 2.03135000e+02
284.000000 3.48508000e+02
290.000000 5.57479000e+02
296.000000 8.70404000e+02
301.000000 1.18922000e+03
308.000000 1.85521000e+03
318.000000 4.23767000e+03
328.000000 7.62150000e+03
338.000000 1.40609000e+04
348.000000 2.42629000e+04
357.000000 4.84683000e+04
366.000000 7.92629000e+04
375.000000 1.14113000e+05
385.000000 1.77971000e+05
395.000000 2.72506000e+05
405.000000 3.90705000e+05
414.000000 5.44688000e+05
422.000000 6.92982000e+05
430.000000 9.05332000e+05
441.000000 1.26770000e+06
451.000000 1.69187000e+06
460.000000 2.13433000e+06
470.000000 2.80987000e+06
480.000000 3.59381000e+06
490.000000 4.58116000e+06
500.000000 5.80284000e+06
506.000000 3.64876000e+07
512.000000 1.37541000e+08
520.000000 1.42374000e+08
530.000000 1.53629000e+08
540.000000 1.50110000e+08
550.000000 1.90332000e+08
560.000000 2.16535000e+08
570.000000 2.41158000e+08
580.000000 2.30271000e+08
590.000000 2.74479000e+08
600.000000 2.89150000e+08
610.000000 3.21703000e+08
620.000000 3.54247000e+08
630.000000 3.75144000e+08
640.000000 3.78192000e+08
650.000000 3.94349000e+08
658.000000 4.32118000e+08
665.000000 4.63022000e+08
675.000000 4.75483000e+08
685.000000 4.81107000e+08
695.000000 5.61235000e+08
705.000000 5.60844000e+08
716.000000 6.23505000e+08
726.000000 6.40698000e+08
735.000000 6.64267000e+08
745.000000 7.16840000e+08
755.000000 7.45032000e+08
765.000000 7.83167000e+08
775.000000 8.22485000e+08
785.000000 8.70135000e+08
795.000000 8.96187000e+08
805.000000 9.23998000e+08
815.000000 9.41505000e+08
825.000000 9.98800000e+08
835.000000 9.47787000e+08
845.000000 1.03977000e+09
855.000000 1.06821000e+09
865.000000 1.11424000e+09
875.000000 1.16440000e+09
885.000000 1.21707000e+09
895.000000 1.25629000e+09
905.000000 1.27118000e+09
915.000000 1.99806000e+09
925.000000 1.46729000e+10
935.000000 2.54968000e+10
945.000000 3.68337000e+10
955.000000 3.95047000e+10
965.000000 4.37766000e+10
975.000000 1.99183000e+10
985.000000 3.94154000e+10
995.000000 3.72934000e+10
1005.000000 3.91155000e+10
1015.000000 3.89373000e+10
1025.000000 2.82634000e+10
1035.000000 3.57484000e+10
1045.000000 4.15531000e+10
1055.000000 3.97334000e+10
1065.000000 3.55331000e+10
1075.000000 3.73983000e+10
1085.000000 3.47088000e+10
1095.000000 3.71066000e+10
1105.000000 3.54816000e+10
1115.000000 3.49874000e+10
1125.000000 3.12605000e+10
1135.000000 3.42477000e+10
1145.000000 3.20860000e+10
1155.000000 3.24591000e+10
1165.000000 3.20403000e+10
1175.000000 2.43628000e+10
1185.000000 3.00504000e+10
1195.000000 2.90826000e+10
1205.000000 2.62876000e+10
1215.000000 1.97546000e+10
1225.000000 2.74396000e+10
1235.000000 2.83926000e+10
1245.000000 2.74862000e+10
1255.000000 2.73513000e+10
1265.000000 2.71937000e+10
1275.000000 2.71535000e+10
1285.000000 2.67485000e+10
1295.000000 2.41894000e+10
1305.000000 2.46342000e+10
1315.000000 2.54548000e+10
1325.000000 2.45034000e+10
1335.000000 2.37043000e+10
1345.000000 2.37009000e+10
1355.000000 2.35678000e+10
1365.000000 2.27163000e+10
1375.000000 2.23113000e+10
1385.000000 2.19510000e+10
1395.000000 1.88751000e+10
1405.000000 1.93019000e+10
1415.000000 2.04901000e+10
1425.000000 1.95653000e+10
1435.000000 1.98388000e+10
1442.000000 1.99311000e+10
1447.000000 1.96317000e+10
1455.000000 1.91619000e+10
1465.000000 1.86484000e+10
1475.000000 1.84553000e+10
1485.000000 1.82332000e+10
1495.000000 1.77861000e+10
1505.000000 1.71364000e+10
1512.000000 1.64953000e+10
1517.000000 1.66045000e+10
1525.000000 1.63886000e+10
1535.000000 1.49330000e+10
1545.000000 1.45498000e+10
1555.000000 1.40541000e+10
1565.000000 1.46076000e+10
1575.000000 1.49405000e+10
1585.000000 1.48232000e+10
1595.000000 1.46597000e+10
1605.000000 1.39699000e+10
1615.000000 1.36151000e+10
1625.000000 1.36407000e+10
1635.000000 1.37517000e+10
1645.000000 1.33663000e+10
1655.000000 1.34910000e+10
1665.000000 1.32981000e+10
1672.000000 1.28979000e+10
1677.000000 1.35778000e+10
1685.000000 1.31804000e+10
1695.000000 1.27978000e+10
1705.000000 1.24740000e+10
1715.000000 1.20576000e+10
1725.000000 1.18549000e+10
1735.000000 1.19685000e+10
1745.000000 1.17535000e+10
1755.000000 1.16565000e+10
1765.000000 1.13949000e+10
1775.000000 1.11050000e+10
1785.000000 1.10991000e+10
1795.000000 1.10103000e+10
1805.000000 1.09768000e+10
1815.000000 1.05086000e+10
1825.000000 1.04898000e+10
1835.000000 1.03428000e+10
1845.000000 9.67050000e+09
1855.000000 9.63461000e+09
1865.000000 9.69988000e+09
1875.000000 9.70310000e+09
1885.000000 9.04327000e+09
1895.000000 8.62024000e+09
1905.000000 8.96898000e+09
1915.000000 8.64349000e+09
1925.000000 8.32406000e+09
1935.000000 8.59282000e+09
1945.000000 8.66880000e+09
1955.000000 8.03802000e+09
1967.000000 8.31785000e+09
1976.000000 8.52562000e+09
1984.000000 8.09255000e+09
1995.000000 7.87227000e+09
2005.000000 7.95784000e+09
2015.000000 7.96729000e+09
2025.000000 7.99417000e+09
2035.000000 7.60450000e+09
2045.000000 7.53625000e+09
2055.000000 6.98092000e+09
2065.000000 6.89447000e+09
2074.000000 7.15330000e+09
2078.000000 6.89799000e+09
2085.000000 7.06277000e+09
2095.000000 6.92830000e+09
2105.000000 7.03029000e+09
2115.000000 7.00052000e+09
2125.000000 6.99527000e+09
2135.000000 6.87394000e+09
2145.000000 6.68161000e+09
2155.000000 6.70906000e+09
2165.000000 6.61162000e+09
2175.000000 6.53002000e+09
2185.000000 6.43109000e+09
2195.000000 6.40108000e+09
2205.000000 6.31193000e+09
2215.000000 6.21529000e+09
2225.000000 6.12431000e+09
2235.000000 6.02182000e+09
2245.000000 5.98152000e+09
2255.000000 5.86636000e+09
2265.000000 5.82422000e+09
2275.000000 5.75195000e+09
2285.000000 5.67638000e+09
2295.000000 5.40765000e+09
2305.000000 5.50478000e+09
2315.000000 5.42998000e+09
2325.000000 5.36204000e+09
2335.000000 5.27379000e+09
2345.000000 5.24206000e+09
2355.000000 5.17474000e+09
2365.000000 5.11013000e+09
2375.000000 5.03285000e+09
2385.000000 4.95299000e+09
2395.000000 4.89825000e+09
2405.000000 4.84347000e+09
2415.000000 4.77560000e+09
2425.000000 4.72668000e+09
2435.000000 4.64950000e+09
2445.000000 4.60159000e+09
2455.000000 4.55199000e+09
2465.000000 4.49399000e+09
2475.000000 4.43259000e+09
2485.000000 4.37228000e+09
2495.000000 3.96596000e+09
2505.000000 4.24949000e+09
2513.000000 4.13413000e+09
2518.000000 4.17649000e+09
2525.000000 4.16394000e+09
2535.000000 4.11550000e+09
2545.000000 4.02588000e+09
2555.000000 3.99644000e+09
2565.000000 3.96076000e+09
2575.000000 3.91603000e+09
2585.000000 3.86837000e+09
2595.000000 3.82255000e+09
2605.000000 3.79315000e+09
2615.000000 3.74480000e+09
2625.000000 3.70091000e+09
2635.000000 3.65323000e+09
2645.000000 3.60697000e+09
2655.000000 3.56419000e+09
2665.000000 3.50758000e+09
2675.000000 3.46808000e+09
2685.000000 3.44690000e+09
2695.000000 3.37240000e+09
2705.000000 3.35199000e+09
2715.000000 3.31738000e+09
2725.000000 3.26537000e+09
2735.000000 3.23464000e+09
2745.000000 3.20446000e+09
2755.000000 3.17112000e+09
2765.000000 3.11402000e+09
2775.000000 3.10278000e+09
2785.000000 3.06353000e+09
2795.000000 2.99304000e+09
2805.000000 2.98309000e+09
2815.000000 2.96317000e+09
2825.000000 2.90956000e+09
2835.000000 2.86652000e+09
2845.000000 2.86377000e+09
2855.000000 2.82664000e+09
2865.000000 2.79730000e+09
2875.000000 2.76680000e+09
2885.000000 2.73711000e+09
2895.000000 2.70497000e+09
2910.000000 2.65736000e+09
2930.000000 2.60216000e+09
2950.000000 2.52999000e+09
2970.000000 2.48915000e+09
2990.000000 2.43405000e+09
3010.000000 2.37516000e+09
3030.000000 2.33139000e+09
3050.000000 2.28395000e+09
3070.000000 2.23754000e+09
3090.000000 2.17655000e+09
3110.000000 2.14342000e+09
3130.000000 2.09797000e+09
3150.000000 2.05459000e+09
3170.000000 2.01158000e+09
3190.000000 1.95960000e+09
3210.000000 1.92977000e+09
3230.000000 1.89085000e+09
3250.000000 1.85445000e+09
3270.000000 1.81746000e+09
3290.000000 1.77956000e+09
3310.000000 1.74684000e+09
3330.000000 1.71121000e+09
3350.000000 1.67590000e+09
3370.000000 1.64519000e+09
3390.000000 1.61453000e+09
3410.000000 1.58359000e+09
3430.000000 1.54705000e+09
3450.000000 1.51274000e+09
3470.000000 1.48728000e+09
3490.000000 1.45884000e+09
3510.000000 1.43676000e+09
3530.000000 1.41161000e+09
3550.000000 1.38531000e+09
3570.000000 1.36469000e+09
3590.000000 1.33164000e+09
3610.000000 1.30906000e+09
3630.000000 1.28375000e+09
3640.000000 1.27933000e+09
3650.000000 1.25191000e+09
3670.000000 1.23447000e+09
3690.000000 1.20320000e+09
3710.000000 1.16929000e+09
3730.000000 1.13664000e+09
3750.000000 1.19557000e+09
3770.000000 1.18774000e+09
3790.000000 1.21238000e+09
3810.000000 1.24253000e+09
3830.000000 1.12316000e+09
3850.000000 1.24109000e+09
3870.000000 1.22228000e+09
3890.000000 1.07088000e+09
3910.000000 1.19526000e+09
3930.000000 1.16664000e+09
3950.000000 1.15222000e+09
3970.000000 9.91966000e+08
3990.000000 1.11177000e+09
4010.000000 1.09373000e+09
4030.000000 1.05193000e+09
4050.000000 1.06249000e+09
4070.000000 1.03474000e+09
4090.000000 9.91769000e+08
4110.000000 9.01563000e+08
4130.000000 9.79984000e+08
4150.000000 9.67236000e+08
4170.000000 9.56832000e+08
4190.000000 9.41539000e+08
4210.000000 9.27301000e+08
4230.000000 9.12068000e+08
4250.000000 8.94598000e+08
4270.000000 8.75720000e+08
4290.000000 8.64954000e+08
4310.000000 8.48204000e+08
4330.000000 8.04741000e+08
4350.000000 7.45316000e+08
4370.000000 8.07377000e+08
4390.000000 7.87234000e+08
4410.000000 7.83112000e+08
4430.000000 7.71795000e+08
4450.000000 7.60897000e+08
4470.000000 7.31365000e+08
4490.000000 7.36955000e+08
4510.000000 7.26284000e+08
4530.000000 7.14983000e+08
4550.000000 7.02597000e+08
4570.000000 6.91645000e+08
4590.000000 6.80803000e+08
4610.000000 6.70494000e+08
4630.000000 6.60163000e+08
4650.000000 6.42857000e+08
4670.000000 6.39419000e+08
4690.000000 6.29113000e+08
4710.000000 6.13779000e+08
4730.000000 6.12119000e+08
4750.000000 6.02266000e+08
4770.000000 5.95041000e+08
4790.000000 5.86043000e+08
4810.000000 5.76946000e+08
4830.000000 5.67172000e+08
4850.000000 5.43925000e+08
4870.000000 4.97580000e+08
4890.000000 5.42657000e+08
4910.000000 5.35823000e+08
4930.000000 5.20169000e+08
4950.000000 5.19757000e+08
4970.000000 5.13294000e+08
4990.000000 5.05829000e+08
5010.000000 4.92733000e+08
5030.000000 4.91384000e+08
5050.000000 4.82181000e+08
5070.000000 4.77622000e+08
5090.000000 4.70794000e+08
5110.000000 4.64144000e+08
5130.000000 4.57339000e+08
5150.000000 4.50953000e+08
5170.000000 4.44878000e+08
5190.000000 4.38826000e+08
5210.000000 4.32729000e+08
5230.000000 4.26768000e+08
5250.000000 4.20912000e+08
5270.000000 4.15078000e+08
5290.000000 4.09482000e+08
5310.000000 4.03864000e+08
5330.000000 3.98452000e+08
5350.000000 3.93031000e+08
5370.000000 3.87796000e+08
5390.000000 3.82512000e+08
5410.000000 3.77166000e+08
5430.000000 3.72438000e+08
5450.000000 3.67439000e+08
5470.000000 3.62579000e+08
5490.000000 3.57792000e+08
5510.000000 3.53139000e+08
5530.000000 3.48458000e+08
5550.000000 3.43970000e+08
5570.000000 3.39452000e+08
5590.000000 3.35050000e+08
5610.000000 3.30715000e+08
5630.000000 3.26467000e+08
5650.000000 3.22189000e+08
5670.000000 3.17823000e+08
5690.000000 3.13254000e+08
5710.000000 3.09873000e+08
5730.000000 3.06015000e+08
5750.000000 3.01862000e+08
5770.000000 2.98415000e+08
5790.000000 2.94615000e+08
5810.000000 2.90928000e+08
5830.000000 2.87195000e+08
5850.000000 2.83704000e+08
5870.000000 2.74001000e+08
5890.000000 2.76291000e+08
5910.000000 2.73206000e+08
5930.000000 2.69770000e+08
5950.000000 2.66459000e+08
5970.000000 2.63408000e+08
5990.000000 2.60056000e+08
6010.000000 2.56983000e+08
6030.000000 2.53820000e+08
6050.000000 2.50796000e+08
6070.000000 2.47817000e+08
6090.000000 2.44841000e+08
6110.000000 2.41909000e+08
6130.000000 2.39029000e+08
6150.000000 2.36083000e+08
6170.000000 2.33318000e+08
6190.000000 2.30603000e+08
6210.000000 2.27899000e+08
6230.000000 2.25225000e+08
6250.000000 2.22561000e+08
6270.000000 2.19965000e+08
6290.000000 2.17406000e+08
6310.000000 2.14867000e+08
6330.000000 2.12392000e+08
6350.000000 2.09898000e+08
6370.000000 2.07505000e+08
6390.000000 2.05110000e+08
6410.000000 2.02768000e+08
6430.000000 2.00461000e+08
6450.000000 1.98169000e+08
6470.000000 1.95830000e+08
6490.000000 1.93632000e+08
6510.000000 1.91493000e+08
6530.000000 1.89156000e+08
6550.000000 1.84297000e+08
6570.000000 1.67545000e+08
6590.000000 1.82084000e+08
6610.000000 1.80966000e+08
6630.000000 1.78993000e+08
6650.000000 1.77049000e+08
6670.000000 1.73864000e+08
6690.000000 1.71967000e+08
6710.000000 1.71295000e+08
6730.000000 1.69339000e+08
6750.000000 1.67576000e+08
6770.000000 1.65749000e+08
6790.000000 1.63793000e+08
6810.000000 1.62150000e+08
6830.000000 1.60386000e+08
6850.000000 1.58680000e+08
6870.000000 1.56968000e+08
6890.000000 1.55248000e+08
6910.000000 1.53570000e+08
6930.000000 1.51986000e+08
6950.000000 1.50372000e+08
6970.000000 1.48774000e+08
6990.000000 1.47183000e+08
7010.000000 1.45639000e+08
7030.000000 1.44103000e+08
7050.000000 1.42597000e+08
7070.000000 1.39176000e+08
7090.000000 1.39628000e+08
7110.000000 1.38158000e+08
7130.000000 1.36725000e+08
7150.000000 1.35320000e+08
7170.000000 1.33892000e+08
7190.000000 1.32536000e+08
7210.000000 1.31171000e+08
7230.000000 1.29308000e+08
7250.000000 1.28452000e+08
7270.000000 1.27190000e+08
7290.000000 1.25004000e+08
7310.000000 1.24596000e+08
7330.000000 1.23349000e+08
7350.000000 1.22107000e+08
7370.000000 1.20877000e+08
7390.000000 1.19658000e+08
7410.000000 1.18457000e+08
7430.000000 1.17274000e+08
7450.000000 1.16116000e+08
7470.000000 1.14894000e+08
7490.000000 1.13811000e+08
7510.000000 1.12658000e+08
7530.000000 1.11575000e+08
7550.000000 1.10476000e+08
7570.000000 1.09393000e+08
7590.000000 1.08314000e+08
7610.000000 1.07238000e+08
7630.000000 1.06211000e+08
7650.000000 1.05180000e+08
7670.000000 1.04158000e+08
7690.000000 1.03146000e+08
7710.000000 1.02148000e+08
7730.000000 1.01160000e+08
7750.000000 1.00187000e+08
7770.000000 9.92104000e+07
7790.000000 9.82795000e+07
7810.000000 9.72889000e+07
7830.000000 9.64177000e+07
7850.000000 9.55724000e+07
7870.000000 9.46433000e+07
7890.000000 9.37041000e+07
7910.000000 9.28816000e+07
7930.000000 9.19944000e+07
7950.000000 9.10910000e+07
7970.000000 9.01421000e+07
7990.000000 8.93256000e+07
8010.000000 8.84514000e+07
8030.000000 8.76433000e+07
8050.000000 8.68712000e+07
8070.000000 8.60998000e+07
8090.000000 8.51623000e+07
8110.000000 8.43590000e+07
8130.000000 8.37507000e+07
8150.000000 8.28467000e+07
8170.000000 8.22441000e+07
8190.000000 8.13823000e+07
8210.000000 8.03883000e+07
8230.000000 7.98256000e+07
8250.000000 7.91623000e+07
8270.000000 7.80583000e+07
8290.000000 7.76492000e+07
8310.000000 7.69759000e+07
8330.000000 7.62646000e+07
8350.000000 7.52729000e+07
8370.000000 7.47577000e+07
8390.000000 7.41716000e+07
8410.000000 7.34783000e+07
8430.000000 7.27484000e+07
8450.000000 7.17555000e+07
8470.000000 7.12385000e+07
8490.000000 7.08666000e+07
8510.000000 6.97068000e+07
8530.000000 6.98101000e+07
8550.000000 6.76853000e+07
8570.000000 6.93753000e+07
8590.000000 6.65714000e+07
8610.000000 6.61354000e+07
8630.000000 6.80852000e+07
8650.000000 6.64214000e+07
8670.000000 6.21510000e+07
8690.000000 6.64648000e+07
8710.000000 6.64232000e+07
8730.000000 6.47647000e+07
8750.000000 5.92582000e+07
8770.000000 6.31712000e+07
8790.000000 6.42980000e+07
8810.000000 6.37783000e+07
8830.000000 6.31563000e+07
8850.000000 6.02931000e+07
8870.000000 5.62339000e+07
8890.000000 6.12533000e+07
8910.000000 6.11542000e+07
8930.000000 6.06632000e+07
8950.000000 6.02889000e+07
8970.000000 5.97301000e+07
8990.000000 5.84764000e+07
9010.000000 5.32702000e+07
9030.000000 5.56633000e+07
9050.000000 5.75426000e+07
9070.000000 5.68678000e+07
9090.000000 5.66954000e+07
9110.000000 5.63741000e+07
9130.000000 5.59285000e+07
9150.000000 5.54683000e+07
9170.000000 5.48861000e+07
9190.000000 5.44244000e+07
9210.000000 5.27094000e+07
9230.000000 4.77009000e+07
9250.000000 5.21004000e+07
9270.000000 5.26079000e+07
9290.000000 5.23511000e+07
9310.000000 5.17396000e+07
9330.000000 5.14618000e+07
9350.000000 5.10479000e+07
9370.000000 5.06715000e+07
9390.000000 5.02678000e+07
9410.000000 4.98544000e+07
9430.000000 4.94610000e+07
9450.000000 4.90620000e+07
9470.000000 4.84350000e+07
9490.000000 4.82687000e+07
9510.000000 4.73910000e+07
9530.000000 4.60309000e+07
9550.000000 4.19141000e+07
9570.000000 4.60706000e+07
9590.000000 4.62760000e+07
9610.000000 4.58959000e+07
9630.000000 4.54658000e+07
9650.000000 4.53018000e+07
9670.000000 4.49454000e+07
9690.000000 4.45594000e+07
9710.000000 4.41123000e+07
9730.000000 4.38954000e+07
9750.000000 4.35530000e+07
9770.000000 4.32170000e+07
9790.000000 4.28794000e+07
9810.000000 4.25404000e+07
9830.000000 4.22193000e+07
9850.000000 4.18927000e+07
9870.000000 4.15645000e+07
9890.000000 4.12387000e+07
9910.000000 4.08652000e+07
9930.000000 4.06167000e+07
9950.000000 4.03052000e+07
9970.000000 3.99959000e+07
9990.000000 3.96924000e+07
10025.000000 3.81188000e+07
10075.000000 3.69501000e+07
10125.000000 3.76231000e+07
10175.000000 3.70068000e+07
10225.000000 3.63071000e+07
10275.000000 3.56495000e+07
10325.000000 3.48842000e+07
10375.000000 3.43534000e+07
10425.000000 3.37273000e+07
10475.000000 3.31153000e+07
10525.000000 3.25171000e+07
10575.000000 3.19327000e+07
10625.000000 3.13609000e+07
10675.000000 3.07564000e+07
10725.000000 3.02558000e+07
10775.000000 2.97212000e+07
10825.000000 2.89184000e+07
10875.000000 2.86672000e+07
10925.000000 2.65740000e+07
10975.000000 2.73949000e+07
11025.000000 2.70962000e+07
11075.000000 2.67440000e+07
11125.000000 2.62925000e+07
11175.000000 2.58442000e+07
11225.000000 2.53935000e+07
11275.000000 2.49750000e+07
11325.000000 2.45508000e+07
11375.000000 2.41424000e+07
11425.000000 2.37379000e+07
11475.000000 2.33447000e+07
11525.000000 2.29579000e+07
11575.000000 2.25778000e+07
11625.000000 2.22067000e+07
11675.000000 2.18414000e+07
11725.000000 2.14886000e+07
11775.000000 2.11397000e+07
11825.000000 2.07980000e+07
11875.000000 2.04632000e+07
11925.000000 2.01352000e+07
11975.000000 1.96786000e+07
12025.000000 1.94981000e+07
12075.000000 1.91892000e+07
12125.000000 1.88860000e+07
12175.000000 1.85891000e+07
12225.000000 1.82980000e+07
12275.000000 1.80124000e+07
12325.000000 1.77324000e+07
12375.000000 1.74578000e+07
12425.000000 1.71887000e+07
12475.000000 1.69236000e+07
12525.000000 1.66358000e+07
12575.000000 1.64104000e+07
12625.000000 1.61613000e+07
12675.000000 1.59175000e+07
12725.000000 1.56775000e+07
12775.000000 1.52591000e+07
12825.000000 1.43609000e+07
12875.000000 1.49471000e+07
12925.000000 1.47615000e+07
12975.000000 1.44683000e+07
13025.000000 1.43279000e+07
13075.000000 1.41185000e+07
