# Kurucz ODFNEW /NOVER, alpha: 0.0 (2003)
# teff = 10250 K (value for the effective temperature for the model. Temperatures are given in K)
# logg = 3 log(cm/s2) (value for Log(G) for the model.)
# lh = 1.25  (l/Hp where l is the  mixing length of the convective element and Hp is the pressure scale height)
# meta = 0  (value for the Metallicity for the model.)
# vtur = 2 km/s (Microturbulence velocity)
# alpha = 0  (Alpha)
#
# column 1: WAVELENGTH (ANGSTROM), Wavelength in Angstrom
# column 2: FLUX (ERG/CM2/S/A), Flux in erg/cm2/s/A
268.500000 2.20152000e-23
273.500000 1.14184000e-22
278.500000 4.47968000e-22
284.000000 1.86193000e-21
290.000000 8.23967000e-21
296.000000 3.42757000e-20
301.000000 1.08573000e-19
308.000000 5.13484000e-19
318.000000 4.21792000e-18
328.000000 3.07248000e-17
338.000000 1.99910000e-16
348.000000 1.17638000e-15
357.000000 5.38658000e-15
366.000000 2.28072000e-14
375.000000 9.00695000e-14
385.000000 3.86222000e-13
395.000000 1.53814000e-12
405.000000 5.74494000e-12
414.000000 1.78256000e-11
422.000000 4.68447000e-11
430.000000 1.18328000e-10
441.000000 4.04544000e-10
451.000000 1.16984000e-09
460.000000 2.92517000e-09
470.000000 7.76960000e-09
480.000000 1.98273000e-08
490.000000 4.86893000e-08
500.000000 1.15171000e-07
506.000000 3.37081000e-07
512.000000 6.44716000e-07
520.000000 1.17887000e-06
530.000000 2.45753000e-06
540.000000 4.91802000e-06
550.000000 9.78936000e-06
560.000000 1.88221000e-05
570.000000 3.53585000e-05
580.000000 6.41224000e-05
590.000000 1.16698000e-04
600.000000 2.05768000e-04
610.000000 3.56835000e-04
620.000000 6.06530000e-04
630.000000 1.01391000e-03
640.000000 1.66328000e-03
650.000000 2.69801000e-03
658.000000 3.92379000e-03
665.000000 5.39863000e-03
675.000000 8.42386000e-03
685.000000 1.29769000e-02
695.000000 1.97511000e-02
705.000000 2.96222000e-02
716.000000 4.57611000e-02
726.000000 6.70882000e-02
735.000000 9.37456000e-02
745.000000 1.34612000e-01
755.000000 1.91397000e-01
765.000000 2.69454000e-01
775.000000 3.76093000e-01
785.000000 5.20198000e-01
795.000000 7.11108000e-01
805.000000 9.68239000e-01
815.000000 1.30654000e+00
825.000000 1.74830000e+00
835.000000 2.31638000e+00
845.000000 3.06348000e+00
855.000000 4.01118000e+00
865.000000 5.21926000e+00
875.000000 6.73721000e+00
885.000000 8.66325000e+00
895.000000 1.10598000e+01
905.000000 1.39928000e+01
915.000000 6.02740000e+02
925.000000 4.49323000e+03
935.000000 6.94443000e+03
945.000000 1.11446000e+04
955.000000 1.73890000e+04
965.000000 2.26966000e+04
975.000000 1.92759000e+04
985.000000 3.09196000e+04
995.000000 3.27765000e+04
1005.000000 4.08387000e+04
1015.000000 4.59875000e+04
1025.000000 3.51082000e+04
1035.000000 5.72607000e+04
1045.000000 7.25188000e+04
1055.000000 8.50990000e+04
1065.000000 8.97627000e+04
1075.000000 1.06536000e+05
1085.000000 1.20975000e+05
1095.000000 1.27661000e+05
1105.000000 8.73803000e+05
1115.000000 1.15256000e+07
1125.000000 1.56675000e+07
1135.000000 2.14605000e+07
1145.000000 1.92286000e+07
1155.000000 2.33610000e+07
1165.000000 2.48176000e+07
1175.000000 2.01312000e+07
1185.000000 1.53785000e+07
1195.000000 3.17524000e+05
1205.000000 2.98706000e+05
1215.000000 6.30160000e+04
1225.000000 2.94279000e+05
1235.000000 1.70383000e+06
1245.000000 1.99799000e+07
1255.000000 5.55207000e+07
1265.000000 3.88895000e+07
1275.000000 8.82992000e+07
1285.000000 1.20243000e+08
1295.000000 9.54232000e+07
1305.000000 4.26098000e+07
1315.000000 1.07102000e+08
1325.000000 1.31328000e+08
1335.000000 1.04746000e+08
1345.000000 1.51956000e+08
1355.000000 1.44846000e+08
1365.000000 1.19607000e+08
1375.000000 1.38294000e+08
1385.000000 1.39778000e+08
1395.000000 1.44479000e+08
1405.000000 1.45976000e+08
1415.000000 1.33592000e+08
1425.000000 1.50324000e+08
1435.000000 1.35390000e+08
1442.000000 1.53166000e+08
1447.000000 1.69044000e+08
1455.000000 1.65540000e+08
1465.000000 1.49384000e+08
1475.000000 1.40702000e+08
1485.000000 1.54925000e+08
1495.000000 1.67079000e+08
1505.000000 1.67173000e+08
1512.000000 1.46404000e+08
1517.000000 1.63753000e+08
1525.000000 1.48098000e+08
1535.000000 1.35809000e+08
1545.000000 1.64926000e+08
1555.000000 1.40616000e+08
1565.000000 1.29031000e+08
1575.000000 1.38480000e+08
1585.000000 1.56257000e+08
1595.000000 1.66343000e+08
1605.000000 1.53074000e+08
1615.000000 1.53250000e+08
1625.000000 1.37860000e+08
1635.000000 1.44915000e+08
1645.000000 1.51345000e+08
1655.000000 1.30216000e+08
1665.000000 1.47703000e+08
1672.000000 9.49214000e+07
1677.000000 1.40855000e+08
1685.000000 1.59371000e+08
1695.000000 1.48710000e+08
1705.000000 1.36954000e+08
1715.000000 1.31480000e+08
1725.000000 1.30061000e+08
1735.000000 1.39930000e+08
1745.000000 1.38059000e+08
1755.000000 1.55473000e+08
1765.000000 1.29469000e+08
1775.000000 1.43643000e+08
1785.000000 1.42960000e+08
1795.000000 1.60910000e+08
1805.000000 1.52471000e+08
1815.000000 1.50270000e+08
1825.000000 1.44205000e+08
1835.000000 1.37804000e+08
1845.000000 1.26542000e+08
1855.000000 1.31619000e+08
1865.000000 1.32540000e+08
1875.000000 1.43378000e+08
1885.000000 1.38309000e+08
1895.000000 1.35731000e+08
1905.000000 1.30925000e+08
1915.000000 1.35448000e+08
1925.000000 1.36911000e+08
1935.000000 1.36113000e+08
1945.000000 1.40732000e+08
1955.000000 1.37167000e+08
1967.000000 1.45703000e+08
1976.000000 1.46395000e+08
1984.000000 1.39542000e+08
1995.000000 1.33643000e+08
2005.000000 1.34891000e+08
2015.000000 1.25381000e+08
2025.000000 1.30788000e+08
2035.000000 1.29333000e+08
2045.000000 1.35125000e+08
2055.000000 1.26837000e+08
2065.000000 1.25063000e+08
2074.000000 1.33754000e+08
2078.000000 1.35299000e+08
2085.000000 1.34158000e+08
2095.000000 1.28254000e+08
2105.000000 1.24853000e+08
2115.000000 1.24290000e+08
2125.000000 1.26477000e+08
2135.000000 1.06691000e+08
2145.000000 1.18783000e+08
2155.000000 1.22753000e+08
2165.000000 1.16140000e+08
2175.000000 1.13490000e+08
2185.000000 1.12193000e+08
2195.000000 1.19962000e+08
2205.000000 1.14273000e+08
2215.000000 1.03792000e+08
2225.000000 9.97180000e+07
2235.000000 1.11852000e+08
2245.000000 9.99449000e+07
2255.000000 9.71046000e+07
2265.000000 1.00148000e+08
2275.000000 1.05901000e+08
2285.000000 1.09226000e+08
2295.000000 1.03083000e+08
2305.000000 9.85959000e+07
2315.000000 9.36266000e+07
2325.000000 9.32202000e+07
2335.000000 8.57625000e+07
2345.000000 7.98054000e+07
2355.000000 9.23207000e+07
2365.000000 7.95727000e+07
2375.000000 8.53491000e+07
2385.000000 7.37203000e+07
2395.000000 8.32006000e+07
2405.000000 7.79378000e+07
2415.000000 8.14019000e+07
2425.000000 8.79775000e+07
2435.000000 8.37935000e+07
2445.000000 9.06151000e+07
2455.000000 8.66030000e+07
2465.000000 8.63730000e+07
2475.000000 8.26814000e+07
2485.000000 8.84413000e+07
2495.000000 8.49862000e+07
2505.000000 9.41670000e+07
2513.000000 8.31885000e+07
2518.000000 8.60789000e+07
2525.000000 7.93211000e+07
2535.000000 7.90424000e+07
2545.000000 7.86319000e+07
2555.000000 8.38866000e+07
2565.000000 8.24493000e+07
2575.000000 8.91111000e+07
2585.000000 8.77916000e+07
2595.000000 8.53764000e+07
2605.000000 8.11914000e+07
2615.000000 8.06212000e+07
2625.000000 8.58636000e+07
2635.000000 8.64122000e+07
2645.000000 9.65891000e+07
2655.000000 9.46336000e+07
2665.000000 8.57825000e+07
2675.000000 9.02966000e+07
2685.000000 8.83241000e+07
2695.000000 8.54135000e+07
2705.000000 8.82019000e+07
2715.000000 8.35362000e+07
2725.000000 8.46796000e+07
2735.000000 9.15052000e+07
2745.000000 7.63406000e+07
2755.000000 7.67850000e+07
2765.000000 7.92414000e+07
2775.000000 8.58482000e+07
2785.000000 8.44945000e+07
2795.000000 6.52571000e+07
2805.000000 7.35453000e+07
2815.000000 8.71483000e+07
2825.000000 8.87699000e+07
2835.000000 8.42028000e+07
2845.000000 8.11078000e+07
2855.000000 7.90524000e+07
2865.000000 8.42707000e+07
2875.000000 8.12927000e+07
2885.000000 8.30566000e+07
2895.000000 7.91709000e+07
2910.000000 8.79396000e+07
2930.000000 8.41277000e+07
2950.000000 8.38610000e+07
2970.000000 8.48836000e+07
2990.000000 8.51256000e+07
3010.000000 8.67341000e+07
3030.000000 8.52769000e+07
3050.000000 8.39071000e+07
3070.000000 8.26495000e+07
3090.000000 8.36900000e+07
3110.000000 8.11798000e+07
3130.000000 8.03995000e+07
3150.000000 8.13029000e+07
3170.000000 8.03328000e+07
3190.000000 7.74294000e+07
3210.000000 7.87929000e+07
3230.000000 7.71701000e+07
3250.000000 7.73789000e+07
3270.000000 7.71540000e+07
3290.000000 7.73673000e+07
3310.000000 7.73292000e+07
3330.000000 7.55606000e+07
3350.000000 7.43052000e+07
3370.000000 7.41192000e+07
3390.000000 7.32472000e+07
3410.000000 7.42016000e+07
3430.000000 7.36910000e+07
3450.000000 7.31050000e+07
3470.000000 7.19205000e+07
3490.000000 7.13615000e+07
3510.000000 7.16973000e+07
3530.000000 7.16671000e+07
3550.000000 7.12983000e+07
3570.000000 7.01588000e+07
3590.000000 6.96278000e+07
3610.000000 6.91533000e+07
3630.000000 6.85563000e+07
3640.000000 6.82398000e+07
3650.000000 6.97356000e+07
3670.000000 6.86839000e+07
3690.000000 6.61762000e+07
3710.000000 7.53399000e+07
3730.000000 8.60611000e+07
3750.000000 1.21587000e+08
3770.000000 1.25904000e+08
3790.000000 1.48351000e+08
3810.000000 1.64985000e+08
3830.000000 1.32623000e+08
3850.000000 1.71861000e+08
3870.000000 1.81979000e+08
3890.000000 1.21435000e+08
3910.000000 1.77127000e+08
3930.000000 1.76075000e+08
3950.000000 1.75233000e+08
3970.000000 1.13911000e+08
3990.000000 1.69409000e+08
4010.000000 1.71003000e+08
4030.000000 1.67807000e+08
4050.000000 1.67093000e+08
4070.000000 1.62753000e+08
4090.000000 1.45509000e+08
4110.000000 1.14660000e+08
4130.000000 1.54503000e+08
4150.000000 1.56108000e+08
4170.000000 1.53067000e+08
4190.000000 1.51667000e+08
4210.000000 1.50019000e+08
4230.000000 1.47299000e+08
4250.000000 1.44839000e+08
4270.000000 1.42556000e+08
4290.000000 1.41265000e+08
4310.000000 1.36854000e+08
4330.000000 1.17751000e+08
4350.000000 1.01120000e+08
4370.000000 1.32922000e+08
4390.000000 1.30367000e+08
4410.000000 1.30030000e+08
4430.000000 1.28544000e+08
4450.000000 1.27396000e+08
4470.000000 1.25241000e+08
4490.000000 1.22401000e+08
4510.000000 1.21909000e+08
4530.000000 1.20016000e+08
4550.000000 1.17090000e+08
4570.000000 1.17623000e+08
4590.000000 1.14955000e+08
4610.000000 1.15528000e+08
4630.000000 1.12100000e+08
4650.000000 1.12525000e+08
4670.000000 1.10684000e+08
4690.000000 1.09228000e+08
4710.000000 1.06409000e+08
4730.000000 1.06730000e+08
4750.000000 1.05384000e+08
4770.000000 1.04345000e+08
4790.000000 1.02968000e+08
4810.000000 1.01171000e+08
4830.000000 9.89684000e+07
4850.000000 8.62654000e+07
4870.000000 7.08366000e+07
4890.000000 9.49760000e+07
4910.000000 9.50008000e+07
4930.000000 9.32830000e+07
4950.000000 9.29842000e+07
4970.000000 9.21077000e+07
4990.000000 9.06916000e+07
5010.000000 8.83555000e+07
5030.000000 8.80116000e+07
5050.000000 8.64103000e+07
5070.000000 8.62194000e+07
5090.000000 8.52073000e+07
5110.000000 8.39746000e+07
5130.000000 8.32324000e+07
5150.000000 8.17974000e+07
5170.000000 8.03173000e+07
5190.000000 7.96058000e+07
5210.000000 7.89583000e+07
5230.000000 7.75044000e+07
5250.000000 7.73565000e+07
5270.000000 7.55985000e+07
5290.000000 7.57576000e+07
5310.000000 7.41177000e+07
5330.000000 7.37456000e+07
5350.000000 7.33189000e+07
5370.000000 7.23571000e+07
5390.000000 7.15384000e+07
5410.000000 7.05239000e+07
5430.000000 6.98009000e+07
5450.000000 6.92540000e+07
5470.000000 6.83847000e+07
5490.000000 6.76823000e+07
5510.000000 6.68345000e+07
5530.000000 6.61647000e+07
5550.000000 6.55358000e+07
5570.000000 6.47855000e+07
5590.000000 6.41178000e+07
5610.000000 6.35202000e+07
5630.000000 6.28082000e+07
5650.000000 6.19395000e+07
5670.000000 6.13311000e+07
5690.000000 6.07599000e+07
5710.000000 6.01258000e+07
5730.000000 5.94774000e+07
5750.000000 5.88080000e+07
5770.000000 5.81939000e+07
5790.000000 5.74790000e+07
5810.000000 5.69144000e+07
5830.000000 5.63084000e+07
5850.000000 5.57402000e+07
5870.000000 5.49565000e+07
5890.000000 5.43244000e+07
5910.000000 5.39627000e+07
5930.000000 5.34311000e+07
5950.000000 5.26650000e+07
5970.000000 5.22419000e+07
5990.000000 5.15786000e+07
6010.000000 5.11931000e+07
6030.000000 5.06914000e+07
6050.000000 5.01232000e+07
6070.000000 4.96237000e+07
6090.000000 4.91114000e+07
6110.000000 4.86199000e+07
6130.000000 4.81036000e+07
6150.000000 4.71757000e+07
6170.000000 4.71247000e+07
6190.000000 4.66722000e+07
6210.000000 4.62070000e+07
6230.000000 4.56963000e+07
6250.000000 4.49346000e+07
6270.000000 4.48266000e+07
6290.000000 4.43668000e+07
6310.000000 4.38362000e+07
6330.000000 4.34732000e+07
6350.000000 4.26280000e+07
6370.000000 4.23310000e+07
6390.000000 4.21661000e+07
6410.000000 4.17071000e+07
6430.000000 4.13469000e+07
6450.000000 4.07142000e+07
6470.000000 4.05709000e+07
6490.000000 4.00279000e+07
6510.000000 3.95689000e+07
6530.000000 3.89329000e+07
6550.000000 3.57187000e+07
6570.000000 2.90527000e+07
6590.000000 3.73953000e+07
6610.000000 3.76841000e+07
6630.000000 3.74305000e+07
6650.000000 3.71605000e+07
6670.000000 3.67746000e+07
6690.000000 3.64380000e+07
6710.000000 3.61249000e+07
6730.000000 3.57425000e+07
6750.000000 3.54376000e+07
6770.000000 3.51143000e+07
6790.000000 3.47729000e+07
6810.000000 3.44511000e+07
6830.000000 3.41067000e+07
6850.000000 3.37963000e+07
6870.000000 3.34880000e+07
6890.000000 3.31883000e+07
6910.000000 3.28687000e+07
6930.000000 3.25467000e+07
6950.000000 3.22715000e+07
6970.000000 3.19741000e+07
6990.000000 3.16966000e+07
7010.000000 3.13450000e+07
7030.000000 3.11158000e+07
7050.000000 3.07887000e+07
7070.000000 3.05288000e+07
7090.000000 3.02811000e+07
7110.000000 2.99232000e+07
7130.000000 2.97074000e+07
7150.000000 2.94442000e+07
7170.000000 2.91929000e+07
7190.000000 2.89338000e+07
7210.000000 2.86808000e+07
7230.000000 2.83940000e+07
7250.000000 2.81451000e+07
7270.000000 2.79178000e+07
7290.000000 2.76620000e+07
7310.000000 2.74037000e+07
7330.000000 2.71821000e+07
7350.000000 2.69563000e+07
7370.000000 2.67249000e+07
7390.000000 2.64846000e+07
7410.000000 2.62423000e+07
7430.000000 2.59572000e+07
7450.000000 2.57576000e+07
7470.000000 2.54876000e+07
7490.000000 2.53167000e+07
7510.000000 2.50905000e+07
7530.000000 2.49149000e+07
7550.000000 2.47077000e+07
7570.000000 2.44945000e+07
7590.000000 2.42832000e+07
7610.000000 2.40861000e+07
7630.000000 2.38746000e+07
7650.000000 2.36547000e+07
7670.000000 2.34623000e+07
7690.000000 2.32652000e+07
7710.000000 2.30528000e+07
7730.000000 2.28820000e+07
7750.000000 2.26894000e+07
7770.000000 2.21004000e+07
7790.000000 2.23111000e+07
7810.000000 2.21327000e+07
7830.000000 2.19387000e+07
7850.000000 2.17219000e+07
7870.000000 2.14888000e+07
7890.000000 2.12680000e+07
7910.000000 2.12106000e+07
7930.000000 2.10516000e+07
7950.000000 2.07950000e+07
7970.000000 2.07115000e+07
7990.000000 2.03448000e+07
8010.000000 2.03725000e+07
8030.000000 2.02039000e+07
8050.000000 2.00426000e+07
8070.000000 1.98751000e+07
8090.000000 1.97171000e+07
8110.000000 1.95513000e+07
8130.000000 1.94045000e+07
8150.000000 1.92487000e+07
8170.000000 1.90964000e+07
8190.000000 1.88881000e+07
8210.000000 1.87934000e+07
8230.000000 1.86243000e+07
8250.000000 1.85734000e+07
8270.000000 1.84969000e+07
8290.000000 1.83228000e+07
8310.000000 1.82113000e+07
8330.000000 1.80115000e+07
8350.000000 1.78848000e+07
8370.000000 1.76731000e+07
8390.000000 1.74771000e+07
8410.000000 1.72476000e+07
8430.000000 1.72194000e+07
8450.000000 1.69607000e+07
8470.000000 1.63808000e+07
8490.000000 1.73856000e+07
8510.000000 1.59072000e+07
8530.000000 1.75729000e+07
8550.000000 1.51588000e+07
8570.000000 1.78052000e+07
8590.000000 1.63260000e+07
8610.000000 1.58173000e+07
8630.000000 1.80350000e+07
8650.000000 1.74311000e+07
8670.000000 1.40946000e+07
8690.000000 1.77694000e+07
8710.000000 1.82256000e+07
8730.000000 1.76509000e+07
8750.000000 1.36944000e+07
8770.000000 1.68471000e+07
8790.000000 1.77930000e+07
8810.000000 1.77211000e+07
8830.000000 1.73843000e+07
8850.000000 1.59792000e+07
8870.000000 1.32871000e+07
8890.000000 1.67739000e+07
8910.000000 1.69952000e+07
8930.000000 1.68956000e+07
8950.000000 1.68611000e+07
8970.000000 1.66759000e+07
8990.000000 1.62340000e+07
9010.000000 1.30727000e+07
9030.000000 1.44157000e+07
9050.000000 1.60025000e+07
9070.000000 1.58843000e+07
9090.000000 1.57548000e+07
9110.000000 1.58096000e+07
9130.000000 1.57278000e+07
9150.000000 1.56411000e+07
9170.000000 1.54582000e+07
9190.000000 1.51992000e+07
9210.000000 1.45519000e+07
9230.000000 1.13187000e+07
9250.000000 1.40340000e+07
9270.000000 1.44580000e+07
9290.000000 1.47668000e+07
9310.000000 1.47213000e+07
9330.000000 1.46046000e+07
9350.000000 1.45189000e+07
9370.000000 1.44158000e+07
9390.000000 1.42485000e+07
9410.000000 1.40246000e+07
9430.000000 1.40770000e+07
9450.000000 1.39871000e+07
9470.000000 1.38600000e+07
9490.000000 1.37264000e+07
9510.000000 1.35233000e+07
9530.000000 1.27536000e+07
9550.000000 1.02028000e+07
9570.000000 1.27788000e+07
9590.000000 1.31663000e+07
9610.000000 1.31206000e+07
9630.000000 1.29268000e+07
9650.000000 1.29950000e+07
9670.000000 1.28434000e+07
9690.000000 1.28013000e+07
9710.000000 1.27263000e+07
9730.000000 1.26306000e+07
9750.000000 1.25353000e+07
9770.000000 1.24520000e+07
9790.000000 1.23603000e+07
9810.000000 1.22649000e+07
9830.000000 1.21617000e+07
9850.000000 1.20793000e+07
9870.000000 1.19952000e+07
9890.000000 1.18782000e+07
9910.000000 1.18319000e+07
9930.000000 1.17441000e+07
9950.000000 1.16612000e+07
9970.000000 1.15750000e+07
9990.000000 1.14653000e+07
10025.000000 1.06994000e+07
10075.000000 1.01466000e+07
10125.000000 1.08812000e+07
10175.000000 1.07709000e+07
10225.000000 1.06013000e+07
10275.000000 1.04185000e+07
10325.000000 1.02358000e+07
10375.000000 1.00639000e+07
10425.000000 9.89724000e+06
10475.000000 9.71371000e+06
10525.000000 9.54546000e+06
10575.000000 9.39982000e+06
10625.000000 9.24983000e+06
10675.000000 9.02486000e+06
10725.000000 8.92028000e+06
10775.000000 8.79128000e+06
10825.000000 8.64306000e+06
10875.000000 8.47012000e+06
10925.000000 7.39093000e+06
10975.000000 7.96335000e+06
11025.000000 8.09584000e+06
11075.000000 7.98298000e+06
11125.000000 7.85477000e+06
11175.000000 7.73064000e+06
11225.000000 7.60900000e+06
11275.000000 7.42609000e+06
11325.000000 7.32541000e+06
11375.000000 7.25271000e+06
11425.000000 7.13800000e+06
11475.000000 7.03330000e+06
11525.000000 6.92561000e+06
11575.000000 6.81838000e+06
11625.000000 6.69685000e+06
11675.000000 6.58600000e+06
11725.000000 6.51049000e+06
11775.000000 6.37353000e+06
11825.000000 6.30277000e+06
11875.000000 6.20493000e+06
11925.000000 6.12890000e+06
11975.000000 6.02738000e+06
12025.000000 5.94532000e+06
12075.000000 5.85536000e+06
12125.000000 5.76950000e+06
12175.000000 5.68713000e+06
12225.000000 5.60290000e+06
12275.000000 5.51834000e+06
12325.000000 5.43968000e+06
12375.000000 5.36187000e+06
12425.000000 5.28732000e+06
12475.000000 5.19927000e+06
12525.000000 5.13575000e+06
12575.000000 5.05258000e+06
12625.000000 4.98640000e+06
12675.000000 4.92017000e+06
12725.000000 4.84552000e+06
12775.000000 4.71718000e+06
12825.000000 4.15894000e+06
12875.000000 4.60714000e+06
12925.000000 4.58194000e+06
12975.000000 4.52208000e+06
13025.000000 4.46034000e+06
13075.000000 4.39874000e+06
13125.000000 4.33839000e+06
13175.000000 4.27015000e+06
13225.000000 4.22091000e+06
13275.000000 4.16373000e+06
13325.000000 4.10750000e+06
13375.000000 4.05221000e+06
13425.000000 3.99658000e+06
13475.000000 3.94270000e+06
13525.000000 3.88766000e+06
13575.000000 3.83761000e+06
13625.000000 3.78717000e+06
13675.000000 3.73515000e+06
13725.000000 3.68479000e+06
13775.000000 3.64081000e+06
13825.000000 3.59324000e+06
13875.000000 3.54723000e+06
13925.000000 3.49985000e+06
13975.000000 3.45537000e+06
14025.000000 3.41105000e+06
14075.000000 3.36746000e+06
14125.000000 3.32383000e+06
14175.000000 3.28168000e+06
14225.000000 3.23984000e+06
14275.000000 3.19870000e+06
14325.000000 3.15805000e+06
14375.000000 3.11844000e+06
14425.000000 3.06843000e+06
14475.000000 3.04044000e+06
