# Kurucz ODFNEW /NOVER, alpha: 0.0 (2003)
# teff = 8000 K (value for the effective temperature for the model. Temperatures are given in K)
# logg = 5 log(cm/s2) (value for Log(G) for the model.)
# lh = 1.25  (l/Hp where l is the  mixing length of the convective element and Hp is the pressure scale height)
# meta = -1.5  (value for the Metallicity for the model.)
# vtur = 2 km/s (Microturbulence velocity)
# alpha = 0  (Alpha)
#
# column 1: WAVELENGTH (ANGSTROM), Wavelength in Angstrom
# column 2: FLUX (ERG/CM2/S/A), Flux in erg/cm2/s/A
308.000000 3.05481000e-23
318.000000 4.59233000e-22
328.000000 5.09851000e-21
338.000000 4.85767000e-20
348.000000 4.04683000e-19
357.000000 2.45522000e-18
366.000000 1.35903000e-17
375.000000 6.90905000e-17
385.000000 3.83630000e-16
395.000000 1.94668000e-15
405.000000 9.08836000e-15
414.000000 3.40405000e-14
422.000000 5.99077000e-15
430.000000 1.65056000e-14
441.000000 6.23456000e-14
451.000000 1.96310000e-13
460.000000 5.26406000e-13
470.000000 1.50190000e-12
480.000000 4.08500000e-12
490.000000 1.06338000e-11
500.000000 2.65278000e-11
506.000000 5.95973000e-11
512.000000 1.12753000e-10
520.000000 2.19225000e-10
530.000000 4.91787000e-10
540.000000 1.04940000e-09
550.000000 2.20072000e-09
560.000000 4.45456000e-09
570.000000 8.77180000e-09
580.000000 1.66348000e-08
590.000000 3.15031000e-08
600.000000 5.76051000e-08
610.000000 1.03036000e-07
620.000000 1.80426000e-07
630.000000 3.09689000e-07
640.000000 5.21820000e-07
650.000000 8.63517000e-07
658.000000 1.27594000e-06
665.000000 1.77995000e-06
675.000000 2.82498000e-06
685.000000 4.41485000e-06
695.000000 6.79981000e-06
705.000000 1.03251000e-05
716.000000 1.61000000e-05
726.000000 2.37870000e-05
735.000000 3.34543000e-05
745.000000 4.83332000e-05
755.000000 6.90442000e-05
765.000000 9.75644000e-05
775.000000 1.36454000e-04
785.000000 1.88944000e-04
795.000000 2.58973000e-04
805.000000 3.52077000e-04
815.000000 4.74269000e-04
825.000000 6.33487000e-04
835.000000 8.39344000e-04
845.000000 1.10340000e-03
855.000000 1.43951000e-03
865.000000 1.86435000e-03
875.000000 2.39729000e-03
885.000000 3.06270000e-03
895.000000 3.88687000e-03
905.000000 4.90055000e-03
915.000000 2.14813000e+00
925.000000 1.67956000e+01
935.000000 3.04370000e+01
945.000000 5.41750000e+01
955.000000 7.69011000e+01
965.000000 1.03509000e+02
975.000000 8.86397000e+01
985.000000 1.60512000e+02
995.000000 1.90308000e+02
1005.000000 2.37270000e+02
1015.000000 2.60837000e+02
1025.000000 1.93531000e+02
1035.000000 3.67190000e+02
1045.000000 4.78732000e+02
1055.000000 5.58718000e+02
1065.000000 6.57884000e+02
1075.000000 7.86596000e+02
1085.000000 9.33739000e+02
1095.000000 1.06550000e+03
1105.000000 1.56702000e+03
1115.000000 2.36775000e+03
1125.000000 2.72046000e+03
1135.000000 3.39348000e+03
1145.000000 3.84165000e+03
1155.000000 4.02110000e+03
1165.000000 4.60439000e+03
1175.000000 4.87862000e+03
1185.000000 5.25083000e+03
1195.000000 3.81735000e+03
1205.000000 2.72631000e+03
1215.000000 7.83483000e+02
1225.000000 3.05400000e+03
1235.000000 6.37085000e+03
1245.000000 8.68943000e+03
1255.000000 1.16454000e+04
1265.000000 1.38758000e+04
1275.000000 1.69032000e+04
1285.000000 2.26988000e+04
1295.000000 2.71884000e+04
1305.000000 3.25513000e+04
1315.000000 3.85133000e+04
1325.000000 4.54983000e+04
1335.000000 5.27439000e+04
1345.000000 6.36724000e+04
1355.000000 7.29934000e+04
1365.000000 8.56203000e+04
1375.000000 9.23240000e+04
1385.000000 9.44148000e+04
1395.000000 1.06180000e+05
1405.000000 1.22705000e+05
1415.000000 1.59204000e+05
1425.000000 1.70764000e+05
1435.000000 1.79877000e+05
1442.000000 2.23552000e+05
1447.000000 2.01319000e+05
1455.000000 2.24416000e+05
1465.000000 2.18800000e+05
1475.000000 2.35929000e+05
1485.000000 2.59908000e+05
1495.000000 2.85401000e+05
1505.000000 3.12208000e+05
1512.000000 3.23842000e+05
1517.000000 3.06781000e+05
1525.000000 3.13857000e+05
1535.000000 3.33204000e+05
1545.000000 3.22024000e+05
1555.000000 3.13284000e+05
1565.000000 2.85728000e+05
1575.000000 3.14232000e+05
1585.000000 3.28094000e+05
1595.000000 3.45584000e+05
1605.000000 3.59396000e+05
1615.000000 4.22022000e+05
1625.000000 5.77986000e+05
1635.000000 1.14863000e+06
1645.000000 3.13952000e+06
1655.000000 3.93754000e+06
1665.000000 9.40443000e+06
1672.000000 9.35765000e+06
1677.000000 1.26794000e+07
1685.000000 1.58747000e+07
1695.000000 1.56119000e+07
1705.000000 1.80639000e+07
1715.000000 2.10445000e+07
1725.000000 2.15748000e+07
1735.000000 2.40363000e+07
1745.000000 2.35636000e+07
1755.000000 2.57642000e+07
1765.000000 2.21220000e+07
1775.000000 2.55133000e+07
1785.000000 2.61221000e+07
1795.000000 2.82171000e+07
1805.000000 2.67293000e+07
1815.000000 2.70680000e+07
1825.000000 2.58243000e+07
1835.000000 2.70741000e+07
1845.000000 2.47318000e+07
1855.000000 2.63063000e+07
1865.000000 2.77471000e+07
1875.000000 2.78516000e+07
1885.000000 2.81029000e+07
1895.000000 2.88740000e+07
1905.000000 2.79000000e+07
1915.000000 2.94831000e+07
1925.000000 3.02634000e+07
1935.000000 2.81997000e+07
1945.000000 3.10165000e+07
1955.000000 3.10046000e+07
1967.000000 3.21766000e+07
1976.000000 3.11248000e+07
1984.000000 3.09633000e+07
1995.000000 3.09219000e+07
2005.000000 2.97933000e+07
2015.000000 3.03751000e+07
2025.000000 2.85618000e+07
2035.000000 3.12757000e+07
2045.000000 3.23911000e+07
2055.000000 3.16199000e+07
2065.000000 3.14081000e+07
2074.000000 3.32801000e+07
2078.000000 3.33231000e+07
2085.000000 3.30486000e+07
2095.000000 3.22823000e+07
2105.000000 3.17663000e+07
2115.000000 3.23931000e+07
2125.000000 3.27446000e+07
2135.000000 3.01526000e+07
2145.000000 3.26093000e+07
2155.000000 3.21354000e+07
2165.000000 3.07920000e+07
2175.000000 3.07699000e+07
2185.000000 3.18532000e+07
2195.000000 3.34152000e+07
2205.000000 3.24007000e+07
2215.000000 3.05693000e+07
2225.000000 3.15089000e+07
2235.000000 3.40678000e+07
2245.000000 3.20734000e+07
2255.000000 3.08502000e+07
2265.000000 3.00151000e+07
2275.000000 3.19093000e+07
2285.000000 3.25758000e+07
2295.000000 3.09229000e+07
2305.000000 3.17180000e+07
2315.000000 3.18544000e+07
2325.000000 3.17043000e+07
2335.000000 3.15377000e+07
2345.000000 2.87023000e+07
2355.000000 3.22895000e+07
2365.000000 2.96818000e+07
2375.000000 3.11836000e+07
2385.000000 2.78430000e+07
2395.000000 3.02722000e+07
2405.000000 2.97090000e+07
2415.000000 2.98071000e+07
2425.000000 3.15170000e+07
2435.000000 3.04098000e+07
2445.000000 3.14434000e+07
2455.000000 3.10633000e+07
2465.000000 3.08912000e+07
2475.000000 2.96882000e+07
2485.000000 3.01440000e+07
2495.000000 2.94507000e+07
2505.000000 3.21122000e+07
2513.000000 2.99866000e+07
2518.000000 2.95094000e+07
2525.000000 2.81707000e+07
2535.000000 2.79958000e+07
2545.000000 2.75779000e+07
2555.000000 2.97048000e+07
2565.000000 2.98630000e+07
2575.000000 3.15894000e+07
2585.000000 3.19527000e+07
2595.000000 3.18899000e+07
2605.000000 3.08772000e+07
2615.000000 3.02894000e+07
2625.000000 3.16353000e+07
2635.000000 3.17879000e+07
2645.000000 3.43810000e+07
2655.000000 3.43358000e+07
2665.000000 3.26225000e+07
2675.000000 3.34099000e+07
2685.000000 3.41403000e+07
2695.000000 3.25398000e+07
2705.000000 3.27059000e+07
2715.000000 3.13553000e+07
2725.000000 3.14351000e+07
2735.000000 3.25660000e+07
2745.000000 2.94988000e+07
2755.000000 3.02415000e+07
2765.000000 3.16153000e+07
2775.000000 3.25708000e+07
2785.000000 3.19098000e+07
2795.000000 2.52025000e+07
2805.000000 2.79530000e+07
2815.000000 3.36727000e+07
2825.000000 3.33257000e+07
2835.000000 3.26373000e+07
2845.000000 3.18790000e+07
2855.000000 3.01900000e+07
2865.000000 3.21115000e+07
2875.000000 3.17637000e+07
2885.000000 3.24129000e+07
2895.000000 3.23377000e+07
2910.000000 3.35885000e+07
2930.000000 3.26273000e+07
2950.000000 3.22821000e+07
2970.000000 3.24001000e+07
2990.000000 3.23647000e+07
3010.000000 3.23572000e+07
3030.000000 3.23635000e+07
3050.000000 3.23244000e+07
3070.000000 3.22800000e+07
3090.000000 3.21929000e+07
3110.000000 3.19827000e+07
3130.000000 3.19529000e+07
3150.000000 3.21237000e+07
3170.000000 3.19543000e+07
3190.000000 3.10081000e+07
3210.000000 3.12148000e+07
3230.000000 3.06572000e+07
3250.000000 3.10668000e+07
3270.000000 3.13932000e+07
3290.000000 3.14189000e+07
3310.000000 3.13856000e+07
3330.000000 3.09275000e+07
3350.000000 3.05194000e+07
3370.000000 3.04342000e+07
3390.000000 3.01873000e+07
3410.000000 3.03364000e+07
3430.000000 3.02484000e+07
3450.000000 2.99810000e+07
3470.000000 2.98351000e+07
3490.000000 2.98189000e+07
3510.000000 2.98816000e+07
3530.000000 2.96996000e+07
3550.000000 2.97396000e+07
3570.000000 2.91942000e+07
3590.000000 2.90449000e+07
3610.000000 2.89512000e+07
3630.000000 2.89847000e+07
3640.000000 2.89394000e+07
3650.000000 2.91260000e+07
3670.000000 2.92038000e+07
3690.000000 2.83486000e+07
3710.000000 2.79534000e+07
3730.000000 2.65454000e+07
3750.000000 3.02455000e+07
3770.000000 3.10679000e+07
3790.000000 3.60177000e+07
3810.000000 4.09764000e+07
3830.000000 3.34665000e+07
3850.000000 4.47195000e+07
3870.000000 4.92516000e+07
3890.000000 3.08586000e+07
3910.000000 4.95304000e+07
3930.000000 5.09082000e+07
3950.000000 4.97034000e+07
3970.000000 2.99598000e+07
3990.000000 4.81345000e+07
4010.000000 5.38054000e+07
4030.000000 5.44418000e+07
4050.000000 5.36941000e+07
4070.000000 5.09071000e+07
4090.000000 4.09653000e+07
4110.000000 3.25254000e+07
4130.000000 4.90014000e+07
4150.000000 5.15445000e+07
4170.000000 5.21128000e+07
4190.000000 5.16702000e+07
4210.000000 5.12718000e+07
4230.000000 5.05165000e+07
4250.000000 5.03238000e+07
4270.000000 4.95146000e+07
4290.000000 4.87142000e+07
4310.000000 4.57849000e+07
4330.000000 3.57763000e+07
4350.000000 3.11139000e+07
4370.000000 4.46546000e+07
4390.000000 4.65240000e+07
4410.000000 4.68256000e+07
4430.000000 4.69470000e+07
4450.000000 4.66876000e+07
4470.000000 4.63782000e+07
4490.000000 4.59847000e+07
4510.000000 4.58241000e+07
4530.000000 4.53212000e+07
4550.000000 4.48618000e+07
4570.000000 4.47442000e+07
4590.000000 4.42925000e+07
4610.000000 4.40491000e+07
4630.000000 4.36025000e+07
4650.000000 4.32980000e+07
4670.000000 4.29538000e+07
4690.000000 4.24375000e+07
4710.000000 4.17094000e+07
4730.000000 4.17548000e+07
4750.000000 4.13522000e+07
4770.000000 4.08819000e+07
4790.000000 4.02818000e+07
4810.000000 3.93581000e+07
4830.000000 3.73130000e+07
4850.000000 3.00967000e+07
4870.000000 2.50450000e+07
4890.000000 3.54466000e+07
4910.000000 3.74868000e+07
4930.000000 3.76560000e+07
4950.000000 3.77783000e+07
4970.000000 3.77234000e+07
4990.000000 3.73959000e+07
5010.000000 3.69704000e+07
5030.000000 3.69167000e+07
5050.000000 3.65983000e+07
5070.000000 3.63628000e+07
5090.000000 3.60515000e+07
5110.000000 3.57799000e+07
5130.000000 3.54528000e+07
5150.000000 3.51169000e+07
5170.000000 3.43933000e+07
5190.000000 3.42504000e+07
5210.000000 3.42072000e+07
5230.000000 3.38690000e+07
5250.000000 3.37905000e+07
5270.000000 3.32619000e+07
5290.000000 3.32222000e+07
5310.000000 3.29377000e+07
5330.000000 3.25437000e+07
5350.000000 3.24246000e+07
5370.000000 3.20921000e+07
5390.000000 3.18582000e+07
5410.000000 3.15253000e+07
5430.000000 3.13369000e+07
5450.000000 3.10896000e+07
5470.000000 3.08665000e+07
5490.000000 3.06482000e+07
5510.000000 3.04112000e+07
5530.000000 3.01412000e+07
5550.000000 2.99366000e+07
5570.000000 2.96600000e+07
5590.000000 2.93999000e+07
5610.000000 2.91919000e+07
5630.000000 2.89920000e+07
5650.000000 2.87623000e+07
5670.000000 2.85187000e+07
5690.000000 2.83035000e+07
5710.000000 2.80755000e+07
5730.000000 2.78741000e+07
5750.000000 2.76452000e+07
5770.000000 2.74324000e+07
5790.000000 2.72151000e+07
5810.000000 2.70047000e+07
5830.000000 2.67931000e+07
5850.000000 2.65761000e+07
5870.000000 2.63680000e+07
5890.000000 2.59796000e+07
5910.000000 2.59594000e+07
5930.000000 2.57578000e+07
5950.000000 2.55594000e+07
5970.000000 2.53609000e+07
5990.000000 2.51614000e+07
6010.000000 2.49629000e+07
6030.000000 2.47676000e+07
6050.000000 2.45845000e+07
6070.000000 2.43972000e+07
6090.000000 2.42078000e+07
6110.000000 2.40173000e+07
6130.000000 2.38077000e+07
6150.000000 2.36302000e+07
6170.000000 2.34347000e+07
6190.000000 2.32933000e+07
6210.000000 2.31172000e+07
6230.000000 2.29301000e+07
6250.000000 2.27364000e+07
6270.000000 2.25935000e+07
6290.000000 2.24224000e+07
6310.000000 2.22436000e+07
6330.000000 2.20788000e+07
6350.000000 2.19035000e+07
6370.000000 2.17374000e+07
6390.000000 2.15610000e+07
6410.000000 2.13579000e+07
6430.000000 2.11860000e+07
6450.000000 2.09706000e+07
6470.000000 2.07746000e+07
6490.000000 2.04991000e+07
6510.000000 2.01245000e+07
6530.000000 1.93352000e+07
6550.000000 1.68904000e+07
6570.000000 1.38875000e+07
6590.000000 1.82648000e+07
6610.000000 1.92020000e+07
6630.000000 1.94086000e+07
6650.000000 1.94087000e+07
6670.000000 1.93323000e+07
6690.000000 1.92304000e+07
6710.000000 1.91092000e+07
6730.000000 1.89941000e+07
6750.000000 1.88735000e+07
6770.000000 1.87449000e+07
6790.000000 1.86085000e+07
6810.000000 1.84725000e+07
6830.000000 1.83362000e+07
6850.000000 1.82020000e+07
6870.000000 1.80730000e+07
6890.000000 1.79429000e+07
6910.000000 1.78123000e+07
6930.000000 1.76838000e+07
6950.000000 1.75564000e+07
6970.000000 1.74302000e+07
6990.000000 1.73059000e+07
7010.000000 1.71774000e+07
7030.000000 1.70554000e+07
7050.000000 1.69361000e+07
7070.000000 1.68147000e+07
7090.000000 1.66953000e+07
7110.000000 1.65575000e+07
7130.000000 1.64536000e+07
7150.000000 1.63374000e+07
7170.000000 1.62215000e+07
7190.000000 1.61051000e+07
7210.000000 1.59927000e+07
7230.000000 1.58820000e+07
7250.000000 1.57694000e+07
7270.000000 1.56607000e+07
7290.000000 1.55451000e+07
7310.000000 1.54397000e+07
7330.000000 1.53303000e+07
7350.000000 1.52261000e+07
7370.000000 1.51207000e+07
7390.000000 1.50113000e+07
7410.000000 1.49002000e+07
7430.000000 1.48010000e+07
7450.000000 1.47006000e+07
7470.000000 1.45957000e+07
7490.000000 1.44923000e+07
7510.000000 1.43972000e+07
7530.000000 1.42995000e+07
7550.000000 1.42027000e+07
7570.000000 1.41048000e+07
7590.000000 1.40077000e+07
7610.000000 1.39114000e+07
7630.000000 1.38159000e+07
7650.000000 1.37206000e+07
7670.000000 1.36222000e+07
7690.000000 1.35323000e+07
7710.000000 1.34394000e+07
7730.000000 1.33510000e+07
7750.000000 1.32577000e+07
7770.000000 1.31153000e+07
7790.000000 1.30816000e+07
7810.000000 1.29931000e+07
7830.000000 1.29022000e+07
7850.000000 1.28139000e+07
7870.000000 1.27276000e+07
7890.000000 1.26419000e+07
7910.000000 1.25594000e+07
7930.000000 1.24704000e+07
7950.000000 1.23869000e+07
7970.000000 1.23111000e+07
7990.000000 1.22254000e+07
8010.000000 1.21456000e+07
8030.000000 1.20648000e+07
8050.000000 1.19851000e+07
8070.000000 1.19061000e+07
8090.000000 1.18266000e+07
8110.000000 1.17494000e+07
8130.000000 1.16723000e+07
8150.000000 1.15958000e+07
8170.000000 1.15188000e+07
8190.000000 1.14250000e+07
8210.000000 1.13699000e+07
8230.000000 1.12936000e+07
8250.000000 1.12245000e+07
8270.000000 1.11642000e+07
8290.000000 1.10945000e+07
8310.000000 1.10237000e+07
8330.000000 1.09323000e+07
8350.000000 1.08870000e+07
8370.000000 1.08179000e+07
8390.000000 1.07428000e+07
8410.000000 1.06753000e+07
8430.000000 1.06045000e+07
8450.000000 1.05185000e+07
8470.000000 1.04342000e+07
8490.000000 1.04066000e+07
8510.000000 1.01881000e+07
8530.000000 1.02849000e+07
8550.000000 9.88172000e+06
8570.000000 1.01983000e+07
8590.000000 9.92623000e+06
8610.000000 9.80851000e+06
8630.000000 1.00651000e+07
8650.000000 9.85043000e+06
8670.000000 9.09486000e+06
8690.000000 9.82530000e+06
8710.000000 9.91133000e+06
8730.000000 9.67665000e+06
8750.000000 8.57701000e+06
8770.000000 9.37698000e+06
8790.000000 9.71516000e+06
8810.000000 9.70459000e+06
8830.000000 9.55197000e+06
8850.000000 8.89653000e+06
8870.000000 7.98499000e+06
8890.000000 9.18703000e+06
8910.000000 9.43293000e+06
8930.000000 9.46301000e+06
8950.000000 9.42217000e+06
8970.000000 9.27345000e+06
8990.000000 8.91387000e+06
9010.000000 7.59398000e+06
9030.000000 8.10833000e+06
9050.000000 8.87058000e+06
9070.000000 9.00461000e+06
9090.000000 8.99466000e+06
9110.000000 9.03692000e+06
9130.000000 9.01003000e+06
9150.000000 8.93423000e+06
9170.000000 8.81511000e+06
9190.000000 8.60416000e+06
9210.000000 8.10182000e+06
9230.000000 6.72686000e+06
9250.000000 7.87560000e+06
9270.000000 8.35063000e+06
9290.000000 8.49369000e+06
9310.000000 8.51939000e+06
9330.000000 8.50454000e+06
9350.000000 8.47208000e+06
9370.000000 8.43037000e+06
9390.000000 8.38125000e+06
9410.000000 8.27333000e+06
9430.000000 8.26539000e+06
9450.000000 8.19923000e+06
9470.000000 8.11548000e+06
9490.000000 7.98970000e+06
9510.000000 7.76368000e+06
9530.000000 7.22175000e+06
9550.000000 6.05601000e+06
9570.000000 7.24995000e+06
9590.000000 7.61954000e+06
9610.000000 7.72084000e+06
9630.000000 7.73186000e+06
9650.000000 7.73626000e+06
9670.000000 7.68737000e+06
9690.000000 7.67412000e+06
9710.000000 7.63895000e+06
9730.000000 7.59803000e+06
9750.000000 7.56015000e+06
9770.000000 7.52607000e+06
9790.000000 7.48238000e+06
9810.000000 7.43899000e+06
9830.000000 7.39432000e+06
9850.000000 7.33753000e+06
9870.000000 7.29197000e+06
9890.000000 7.24017000e+06
9910.000000 7.19640000e+06
9930.000000 7.14451000e+06
9950.000000 7.08576000e+06
9970.000000 7.01264000e+06
9990.000000 6.90720000e+06
10025.000000 6.32602000e+06
10075.000000 6.04738000e+06
10125.000000 6.67316000e+06
10175.000000 6.66195000e+06
10225.000000 6.59119000e+06
10275.000000 6.51364000e+06
10325.000000 6.42244000e+06
10375.000000 6.33374000e+06
10425.000000 6.24643000e+06
10475.000000 6.15124000e+06
10525.000000 6.07457000e+06
10575.000000 5.98997000e+06
10625.000000 5.90670000e+06
10675.000000 5.78868000e+06
10725.000000 5.72796000e+06
10775.000000 5.64604000e+06
10825.000000 5.53903000e+06
10875.000000 5.36398000e+06
10925.000000 4.58840000e+06
10975.000000 4.95641000e+06
11025.000000 5.21034000e+06
11075.000000 5.20087000e+06
11125.000000 5.14844000e+06
11175.000000 5.09252000e+06
11225.000000 5.02931000e+06
11275.000000 4.95636000e+06
11325.000000 4.88978000e+06
11375.000000 4.83349000e+06
11425.000000 4.76877000e+06
11475.000000 4.71070000e+06
11525.000000 4.65035000e+06
11575.000000 4.59030000e+06
11625.000000 4.52692000e+06
11675.000000 4.46253000e+06
11725.000000 4.41687000e+06
11775.000000 4.34004000e+06
11825.000000 4.29588000e+06
11875.000000 4.24321000e+06
11925.000000 4.19817000e+06
11975.000000 4.13402000e+06
12025.000000 4.09034000e+06
12075.000000 4.03612000e+06
12125.000000 3.99009000e+06
12175.000000 3.94239000e+06
12225.000000 3.89357000e+06
12275.000000 3.84391000e+06
12325.000000 3.79766000e+06
12375.000000 3.75153000e+06
12425.000000 3.70578000e+06
12475.000000 3.66040000e+06
12525.000000 3.61539000e+06
12575.000000 3.56287000e+06
12625.000000 3.51367000e+06
12675.000000 3.46021000e+06
12725.000000 3.38235000e+06
12775.000000 3.20080000e+06
12825.000000 2.74026000e+06
12875.000000 3.15900000e+06
12925.000000 3.23090000e+06
12975.000000 3.22194000e+06
13025.000000 3.19436000e+06
13075.000000 3.16337000e+06
13125.000000 3.12969000e+06
13175.000000 3.09274000e+06
13225.000000 3.05777000e+06
13275.000000 3.02195000e+06
13325.000000 2.98701000e+06
13375.000000 2.95208000e+06
13425.000000 2.91822000e+06
13475.000000 2.88436000e+06
13525.000000 2.85051000e+06
13575.000000 2.81749000e+06
13625.000000 2.78589000e+06
13675.000000 2.75387000e+06
13725.000000 2.71964000e+06
13775.000000 2.69080000e+06
13825.000000 2.66014000e+06
13875.000000 2.63063000e+06
13925.000000 2.60031000e+06
13975.000000 2.57113000e+06
14025.000000 2.54191000e+06
14075.000000 2.51361000e+06
14125.000000 2.48490000e+06
14175.000000 2.45746000e+06
14225.000000 2.42942000e+06
14275.000000 2.40208000e+06
14325.000000 2.37597000e+06
14375.000000 2.34963000e+06
14425.000000 2.31526000e+06
14475.000000 2.29750000e+06
14525.000000 2.26760000e+06
14570.000000 2.24900000e+06
14620.000000 2.22448000e+06
14675.000000 2.19909000e+06
14725.000000 2.17497000e+06
14775.000000 2.15044000e+06
