# Kurucz ODFNEW /NOVER, alpha: 0.0 (2003)
# teff = 23000 K (value for the effective temperature for the model. Temperatures are given in K)
# logg = 3.5 log(cm/s2) (value for Log(G) for the model.)
# lh = 1.25  (l/Hp where l is the  mixing length of the convective element and Hp is the pressure scale height)
# meta = -1.5  (value for the Metallicity for the model.)
# vtur = 2 km/s (Microturbulence velocity)
# alpha = 0  (Alpha)
#
# column 1: WAVELENGTH (ANGSTROM), Wavelength in Angstrom
# column 2: FLUX (ERG/CM2/S/A), Flux in erg/cm2/s/A
147.200000 3.61884000e-16
151.000000 1.97626000e-15
155.200000 1.17209000e-14
158.800000 5.00166000e-14
162.000000 1.72086000e-13
166.000000 7.54183000e-13
170.300000 3.41409000e-12
173.400000 9.67485000e-12
176.800000 2.90264000e-11
180.200000 8.34809000e-11
181.700000 1.31339000e-10
186.100000 4.75475000e-10
191.000000 1.85478000e-09
193.900000 4.01267000e-09
198.400000 1.26803000e-08
201.800000 2.92099000e-08
205.000000 6.24228000e-08
210.500000 2.17568000e-07
216.200000 7.40516000e-07
219.800000 1.54974000e-06
223.000000 2.92579000e-06
226.800000 6.07160000e-06
230.000000 8.24176000e-05
234.000000 1.96841000e-04
240.000000 5.09762000e-04
246.500000 1.35601000e-03
252.400000 3.18571000e-03
256.800000 5.54558000e-03
260.000000 8.87543000e-03
264.000000 1.48230000e-02
268.500000 2.58957000e-02
273.500000 4.70273000e-02
278.500000 8.37222000e-02
284.000000 1.54179000e-01
290.000000 2.91152000e-01
296.000000 5.34591000e-01
301.000000 8.66801000e-01
308.000000 1.60943000e+00
318.000000 4.06555000e+00
328.000000 9.24945000e+00
338.000000 2.01703000e+01
348.000000 4.17655000e+01
357.000000 7.78856000e+01
366.000000 1.40665000e+02
375.000000 2.43671000e+02
385.000000 4.38096000e+02
395.000000 7.59761000e+02
405.000000 1.28068000e+03
414.000000 2.00603000e+03
422.000000 2.92293000e+03
430.000000 4.19435000e+03
441.000000 6.78005000e+03
451.000000 1.02483000e+04
460.000000 1.45691000e+04
470.000000 2.12377000e+04
480.000000 3.03460000e+04
490.000000 4.27457000e+04
500.000000 5.92641000e+04
506.000000 4.28234000e+05
512.000000 1.30053000e+06
520.000000 1.58898000e+06
530.000000 2.12653000e+06
540.000000 2.32794000e+06
550.000000 3.25332000e+06
560.000000 3.83012000e+06
570.000000 4.66593000e+06
580.000000 4.70273000e+06
590.000000 6.14196000e+06
600.000000 7.42450000e+06
610.000000 8.75681000e+06
620.000000 9.97294000e+06
630.000000 1.15117000e+07
640.000000 1.26650000e+07
650.000000 1.41597000e+07
658.000000 1.63434000e+07
665.000000 1.77220000e+07
675.000000 1.93043000e+07
685.000000 2.13798000e+07
695.000000 2.48285000e+07
705.000000 2.71012000e+07
716.000000 3.05201000e+07
726.000000 3.32582000e+07
735.000000 3.62507000e+07
745.000000 4.02933000e+07
755.000000 4.40734000e+07
765.000000 4.79337000e+07
775.000000 5.23837000e+07
785.000000 5.69791000e+07
795.000000 6.11148000e+07
805.000000 6.58321000e+07
815.000000 7.02272000e+07
825.000000 7.60848000e+07
835.000000 7.92335000e+07
845.000000 8.59061000e+07
855.000000 9.12881000e+07
865.000000 9.78245000e+07
875.000000 1.04926000e+08
885.000000 1.11894000e+08
895.000000 1.18410000e+08
905.000000 1.23300000e+08
915.000000 2.15798000e+08
925.000000 2.21113000e+09
935.000000 6.17694000e+09
945.000000 1.35395000e+10
955.000000 1.63398000e+10
965.000000 1.97923000e+10
975.000000 7.46623000e+09
985.000000 1.99038000e+10
995.000000 1.89037000e+10
1005.000000 1.98502000e+10
1015.000000 1.89165000e+10
1025.000000 9.02250000e+09
1035.000000 1.65195000e+10
1045.000000 2.05389000e+10
1055.000000 1.96985000e+10
1065.000000 1.77831000e+10
1075.000000 1.89466000e+10
1085.000000 1.74904000e+10
1095.000000 1.87792000e+10
1105.000000 1.77553000e+10
1115.000000 1.76952000e+10
1125.000000 1.63640000e+10
1135.000000 1.73958000e+10
1145.000000 1.63103000e+10
1155.000000 1.67658000e+10
1165.000000 1.66513000e+10
1175.000000 1.37384000e+10
1185.000000 1.59639000e+10
1195.000000 1.49497000e+10
1205.000000 1.26267000e+10
1215.000000 6.46773000e+09
1225.000000 1.35611000e+10
1235.000000 1.45781000e+10
1245.000000 1.44151000e+10
1255.000000 1.41344000e+10
1265.000000 1.39036000e+10
1275.000000 1.39848000e+10
1285.000000 1.36989000e+10
1295.000000 1.22311000e+10
1305.000000 1.24175000e+10
1315.000000 1.30174000e+10
1325.000000 1.25448000e+10
1335.000000 1.20424000e+10
1345.000000 1.21549000e+10
1355.000000 1.21658000e+10
1365.000000 1.17213000e+10
1375.000000 1.15191000e+10
1385.000000 1.14005000e+10
1395.000000 1.04811000e+10
1405.000000 1.06044000e+10
1415.000000 1.07350000e+10
1425.000000 1.05238000e+10
1435.000000 1.04803000e+10
1442.000000 1.04786000e+10
1447.000000 1.03347000e+10
1455.000000 1.01653000e+10
1465.000000 9.89294000e+09
1475.000000 9.76046000e+09
1485.000000 9.58333000e+09
1495.000000 9.41779000e+09
1505.000000 9.06685000e+09
1512.000000 8.74168000e+09
1517.000000 8.81053000e+09
1525.000000 8.72886000e+09
1535.000000 8.19740000e+09
1545.000000 8.22420000e+09
1555.000000 7.91233000e+09
1565.000000 8.08517000e+09
1575.000000 8.11693000e+09
1585.000000 7.99624000e+09
1595.000000 7.92161000e+09
1605.000000 7.64990000e+09
1615.000000 7.51978000e+09
1625.000000 7.48872000e+09
1635.000000 7.50351000e+09
1645.000000 7.30815000e+09
1655.000000 7.26508000e+09
1665.000000 7.21612000e+09
1672.000000 7.04802000e+09
1677.000000 7.17926000e+09
1685.000000 7.05247000e+09
1695.000000 6.86761000e+09
1705.000000 6.69476000e+09
1715.000000 6.49908000e+09
1725.000000 6.43015000e+09
1735.000000 6.40405000e+09
1745.000000 6.28805000e+09
1755.000000 6.27677000e+09
1765.000000 6.04658000e+09
1775.000000 5.96334000e+09
1785.000000 5.94590000e+09
1795.000000 5.92087000e+09
1805.000000 5.88158000e+09
1815.000000 5.65822000e+09
1825.000000 5.64694000e+09
1835.000000 5.55121000e+09
1845.000000 5.24053000e+09
1855.000000 5.15550000e+09
1865.000000 5.19036000e+09
1875.000000 5.23266000e+09
1885.000000 4.89664000e+09
1895.000000 4.67599000e+09
1905.000000 4.85561000e+09
1915.000000 4.67477000e+09
1925.000000 4.55242000e+09
1935.000000 4.64494000e+09
1945.000000 4.67209000e+09
1955.000000 4.38716000e+09
1967.000000 4.51276000e+09
1976.000000 4.59544000e+09
1984.000000 4.38542000e+09
1995.000000 4.26374000e+09
2005.000000 4.30875000e+09
2015.000000 4.31136000e+09
2025.000000 4.32125000e+09
2035.000000 4.13907000e+09
2045.000000 4.09905000e+09
2055.000000 3.98271000e+09
2065.000000 3.97427000e+09
2074.000000 4.06387000e+09
2078.000000 3.90158000e+09
2085.000000 3.91867000e+09
2095.000000 3.79620000e+09
2105.000000 3.83639000e+09
2115.000000 3.80416000e+09
2125.000000 3.81324000e+09
2135.000000 3.74603000e+09
2145.000000 3.64298000e+09
2155.000000 3.65516000e+09
2165.000000 3.61770000e+09
2175.000000 3.56141000e+09
2185.000000 3.51982000e+09
2195.000000 3.49110000e+09
2205.000000 3.44502000e+09
2215.000000 3.40469000e+09
2225.000000 3.34783000e+09
2235.000000 3.30097000e+09
2245.000000 3.27985000e+09
2255.000000 3.22534000e+09
2265.000000 3.20022000e+09
2275.000000 3.16036000e+09
2285.000000 3.12908000e+09
2295.000000 3.03979000e+09
2305.000000 3.04885000e+09
2315.000000 2.99874000e+09
2325.000000 2.96533000e+09
2335.000000 2.91566000e+09
2345.000000 2.88893000e+09
2355.000000 2.86601000e+09
2365.000000 2.82835000e+09
2375.000000 2.79250000e+09
2385.000000 2.75622000e+09
2395.000000 2.72438000e+09
2405.000000 2.69298000e+09
2415.000000 2.65587000e+09
2425.000000 2.63766000e+09
2435.000000 2.59907000e+09
2445.000000 2.57269000e+09
2455.000000 2.54784000e+09
2465.000000 2.51549000e+09
2475.000000 2.48616000e+09
2485.000000 2.45582000e+09
2495.000000 2.37233000e+09
2505.000000 2.39725000e+09
2513.000000 2.34461000e+09
2518.000000 2.36086000e+09
2525.000000 2.34258000e+09
2535.000000 2.31458000e+09
2545.000000 2.27345000e+09
2555.000000 2.26285000e+09
2565.000000 2.23648000e+09
2575.000000 2.21721000e+09
2585.000000 2.19169000e+09
2595.000000 2.16694000e+09
2605.000000 2.15628000e+09
2615.000000 2.13332000e+09
2625.000000 2.10999000e+09
2635.000000 2.08147000e+09
2645.000000 2.06247000e+09
2655.000000 2.03841000e+09
2665.000000 2.01052000e+09
2675.000000 1.98941000e+09
2685.000000 1.97995000e+09
2695.000000 1.94049000e+09
2705.000000 1.93456000e+09
2715.000000 1.91405000e+09
2725.000000 1.87953000e+09
2735.000000 1.87367000e+09
2745.000000 1.84494000e+09
2755.000000 1.82845000e+09
2765.000000 1.79844000e+09
2775.000000 1.79573000e+09
2785.000000 1.77542000e+09
2795.000000 1.73371000e+09
2805.000000 1.72927000e+09
2815.000000 1.72086000e+09
2825.000000 1.68717000e+09
2835.000000 1.66521000e+09
2845.000000 1.66656000e+09
2855.000000 1.64871000e+09
2865.000000 1.63272000e+09
2875.000000 1.61564000e+09
2885.000000 1.59926000e+09
2895.000000 1.58243000e+09
2910.000000 1.55739000e+09
2930.000000 1.52545000e+09
2950.000000 1.48523000e+09
2970.000000 1.46512000e+09
2990.000000 1.43484000e+09
3010.000000 1.40544000e+09
3030.000000 1.37969000e+09
3050.000000 1.35262000e+09
3070.000000 1.32614000e+09
3090.000000 1.29763000e+09
3110.000000 1.27480000e+09
3130.000000 1.25125000e+09
3150.000000 1.22721000e+09
3170.000000 1.20297000e+09
3190.000000 1.17142000e+09
3210.000000 1.15807000e+09
3230.000000 1.13594000e+09
3250.000000 1.11462000e+09
3270.000000 1.09504000e+09
3290.000000 1.07317000e+09
3310.000000 1.05511000e+09
3330.000000 1.03572000e+09
3350.000000 1.01490000e+09
3370.000000 9.98340000e+08
3390.000000 9.80367000e+08
3410.000000 9.62777000e+08
3430.000000 9.40695000e+08
3450.000000 9.20578000e+08
3470.000000 9.07055000e+08
3490.000000 8.91338000e+08
3510.000000 8.80139000e+08
3530.000000 8.65841000e+08
3550.000000 8.51180000e+08
3570.000000 8.40103000e+08
3590.000000 8.21122000e+08
3610.000000 8.07829000e+08
3630.000000 7.93262000e+08
3640.000000 7.91326000e+08
3650.000000 7.76477000e+08
3670.000000 7.66471000e+08
3690.000000 7.44932000e+08
3710.000000 7.27643000e+08
3730.000000 7.13254000e+08
3750.000000 7.75319000e+08
3770.000000 7.79361000e+08
3790.000000 8.08426000e+08
3810.000000 8.38396000e+08
3830.000000 7.41830000e+08
3850.000000 8.51666000e+08
3870.000000 8.45553000e+08
3890.000000 7.07670000e+08
3910.000000 8.30066000e+08
3930.000000 8.11833000e+08
3950.000000 8.02716000e+08
3970.000000 6.57111000e+08
3990.000000 7.72977000e+08
4010.000000 7.62544000e+08
4030.000000 7.26764000e+08
4050.000000 7.43698000e+08
4070.000000 7.27741000e+08
4090.000000 6.87626000e+08
4110.000000 6.08937000e+08
4130.000000 6.85701000e+08
4150.000000 6.77949000e+08
4170.000000 6.71071000e+08
4190.000000 6.61998000e+08
4210.000000 6.51706000e+08
4230.000000 6.40968000e+08
4250.000000 6.30215000e+08
4270.000000 6.17507000e+08
4290.000000 6.10043000e+08
4310.000000 5.98452000e+08
4330.000000 5.56929000e+08
4350.000000 5.10389000e+08
4370.000000 5.69802000e+08
4390.000000 5.51975000e+08
4410.000000 5.54263000e+08
4430.000000 5.44067000e+08
4450.000000 5.37970000e+08
4470.000000 5.12257000e+08
4490.000000 5.21009000e+08
4510.000000 5.13768000e+08
4530.000000 5.05809000e+08
4550.000000 4.97914000e+08
4570.000000 4.90211000e+08
4590.000000 4.83033000e+08
4610.000000 4.75767000e+08
4630.000000 4.68643000e+08
4650.000000 4.60421000e+08
4670.000000 4.54741000e+08
4690.000000 4.48216000e+08
4710.000000 4.36266000e+08
4730.000000 4.34606000e+08
4750.000000 4.27814000e+08
4770.000000 4.22777000e+08
4790.000000 4.16594000e+08
4810.000000 4.10385000e+08
4830.000000 4.03182000e+08
4850.000000 3.80533000e+08
4870.000000 3.42691000e+08
4890.000000 3.85535000e+08
4910.000000 3.81760000e+08
4930.000000 3.69384000e+08
4950.000000 3.71171000e+08
4970.000000 3.66131000e+08
4990.000000 3.60963000e+08
5010.000000 3.51573000e+08
5030.000000 3.50956000e+08
5050.000000 3.43898000e+08
5070.000000 3.41322000e+08
5090.000000 3.36624000e+08
5110.000000 3.32003000e+08
5130.000000 3.27301000e+08
5150.000000 3.22846000e+08
5170.000000 3.18619000e+08
5190.000000 3.14308000e+08
5210.000000 3.09985000e+08
5230.000000 3.05910000e+08
5250.000000 3.01807000e+08
5270.000000 2.97771000e+08
5290.000000 2.93814000e+08
5310.000000 2.89908000e+08
5330.000000 2.86079000e+08
5350.000000 2.82272000e+08
5370.000000 2.78632000e+08
5390.000000 2.74960000e+08
5410.000000 2.71386000e+08
5430.000000 2.67832000e+08
5450.000000 2.64361000e+08
5470.000000 2.60958000e+08
5490.000000 2.57610000e+08
5510.000000 2.54304000e+08
5530.000000 2.51051000e+08
5550.000000 2.47863000e+08
5570.000000 2.44702000e+08
5590.000000 2.41616000e+08
5610.000000 2.38543000e+08
5630.000000 2.35556000e+08
5650.000000 2.32534000e+08
5670.000000 2.29561000e+08
5690.000000 2.26612000e+08
5710.000000 2.23987000e+08
5730.000000 2.21210000e+08
5750.000000 2.18443000e+08
5770.000000 2.15811000e+08
5790.000000 2.13165000e+08
5810.000000 2.10562000e+08
5830.000000 2.07967000e+08
5850.000000 2.05458000e+08
5870.000000 1.97686000e+08
5890.000000 2.00255000e+08
5910.000000 1.98082000e+08
5930.000000 1.95677000e+08
5950.000000 1.93321000e+08
5970.000000 1.91066000e+08
5990.000000 1.88763000e+08
6010.000000 1.86539000e+08
6030.000000 1.84330000e+08
6050.000000 1.82166000e+08
6070.000000 1.80027000e+08
6090.000000 1.77912000e+08
6110.000000 1.75831000e+08
6130.000000 1.73783000e+08
6150.000000 1.71728000e+08
6170.000000 1.69766000e+08
6190.000000 1.67815000e+08
6210.000000 1.65876000e+08
6230.000000 1.63968000e+08
6250.000000 1.62082000e+08
6270.000000 1.60244000e+08
6290.000000 1.58418000e+08
6310.000000 1.56611000e+08
6330.000000 1.54842000e+08
6350.000000 1.53046000e+08
6370.000000 1.51353000e+08
6390.000000 1.49669000e+08
6410.000000 1.47994000e+08
6430.000000 1.46346000e+08
6450.000000 1.44715000e+08
6470.000000 1.43084000e+08
6490.000000 1.41506000e+08
6510.000000 1.39953000e+08
6530.000000 1.38125000e+08
6550.000000 1.33534000e+08
6570.000000 1.19709000e+08
6590.000000 1.32889000e+08
6610.000000 1.32431000e+08
6630.000000 1.31025000e+08
6650.000000 1.29693000e+08
6670.000000 1.27214000e+08
6690.000000 1.25874000e+08
6710.000000 1.25551000e+08
6730.000000 1.24199000e+08
6750.000000 1.22885000e+08
6770.000000 1.21577000e+08
6790.000000 1.20232000e+08
6810.000000 1.18999000e+08
6830.000000 1.17746000e+08
6850.000000 1.16513000e+08
6870.000000 1.15285000e+08
6890.000000 1.14077000e+08
6910.000000 1.12881000e+08
6930.000000 1.11697000e+08
6950.000000 1.10548000e+08
6970.000000 1.09395000e+08
6990.000000 1.08254000e+08
7010.000000 1.07146000e+08
7030.000000 1.06049000e+08
7050.000000 1.04956000e+08
7070.000000 1.02283000e+08
7090.000000 1.02823000e+08
7110.000000 1.01776000e+08
7130.000000 1.00739000e+08
7150.000000 9.97194000e+07
7170.000000 9.86875000e+07
7190.000000 9.77166000e+07
7210.000000 9.67331000e+07
7230.000000 9.54492000e+07
7250.000000 9.48014000e+07
7270.000000 9.38600000e+07
7290.000000 9.21831000e+07
7310.000000 9.19825000e+07
7330.000000 9.10886000e+07
7350.000000 9.01891000e+07
7370.000000 8.92980000e+07
7390.000000 8.84221000e+07
7410.000000 8.75544000e+07
7430.000000 8.66947000e+07
7450.000000 8.58633000e+07
7470.000000 8.50193000e+07
7490.000000 8.42032000e+07
7510.000000 8.33546000e+07
7530.000000 8.25802000e+07
7550.000000 8.17864000e+07
7570.000000 8.09998000e+07
7590.000000 8.02203000e+07
7610.000000 7.94479000e+07
7630.000000 7.86955000e+07
7650.000000 7.79434000e+07
7670.000000 7.72044000e+07
7690.000000 7.64721000e+07
7710.000000 7.57400000e+07
7730.000000 7.50333000e+07
7750.000000 7.43204000e+07
7770.000000 7.36013000e+07
7790.000000 7.29383000e+07
7810.000000 7.22008000e+07
7830.000000 7.15866000e+07
7850.000000 7.09900000e+07
7870.000000 7.03316000e+07
7890.000000 6.96185000e+07
7910.000000 6.90380000e+07
7930.000000 6.82769000e+07
7950.000000 6.76060000e+07
7970.000000 6.69409000e+07
7990.000000 6.63524000e+07
8010.000000 6.57220000e+07
8030.000000 6.51380000e+07
8050.000000 6.45996000e+07
8070.000000 6.40542000e+07
8090.000000 6.33407000e+07
8110.000000 6.28454000e+07
8130.000000 6.23770000e+07
8150.000000 6.16856000e+07
8170.000000 6.12710000e+07
8190.000000 6.06352000e+07
8210.000000 5.98818000e+07
8230.000000 5.95411000e+07
8250.000000 5.90313000e+07
8270.000000 5.81843000e+07
8290.000000 5.79094000e+07
8310.000000 5.74182000e+07
8330.000000 5.68985000e+07
8350.000000 5.61184000e+07
8370.000000 5.57644000e+07
8390.000000 5.53544000e+07
8410.000000 5.48411000e+07
8430.000000 5.42790000e+07
8450.000000 5.35000000e+07
8470.000000 5.31059000e+07
8490.000000 5.29344000e+07
8510.000000 5.19352000e+07
8530.000000 5.22268000e+07
8550.000000 5.02718000e+07
8570.000000 5.21354000e+07
8590.000000 4.95801000e+07
8610.000000 4.92860000e+07
8630.000000 5.13624000e+07
8650.000000 4.98468000e+07
8670.000000 4.60442000e+07
8690.000000 5.02166000e+07
8710.000000 5.03686000e+07
8730.000000 4.88365000e+07
8750.000000 4.39474000e+07
8770.000000 4.75280000e+07
8790.000000 4.88416000e+07
8810.000000 4.84740000e+07
8830.000000 4.79792000e+07
8850.000000 4.52407000e+07
8870.000000 4.18422000e+07
8890.000000 4.64333000e+07
8910.000000 4.65046000e+07
8930.000000 4.61208000e+07
8950.000000 4.59266000e+07
8970.000000 4.54542000e+07
8990.000000 4.43493000e+07
9010.000000 3.97607000e+07
9030.000000 4.18205000e+07
9050.000000 4.37738000e+07
9070.000000 4.32764000e+07
9090.000000 4.31979000e+07
9110.000000 4.30007000e+07
9130.000000 4.26819000e+07
9150.000000 4.23335000e+07
9170.000000 4.18471000e+07
9190.000000 4.14703000e+07
9210.000000 3.98931000e+07
9230.000000 3.56083000e+07
9250.000000 3.94339000e+07
9270.000000 4.00951000e+07
9290.000000 3.99580000e+07
9310.000000 3.94858000e+07
9330.000000 3.93452000e+07
9350.000000 3.90069000e+07
9370.000000 3.87273000e+07
9390.000000 3.84189000e+07
9410.000000 3.81064000e+07
9430.000000 3.78111000e+07
9450.000000 3.75112000e+07
9470.000000 3.69883000e+07
9490.000000 3.68810000e+07
9510.000000 3.61483000e+07
9530.000000 3.48436000e+07
9550.000000 3.13978000e+07
9570.000000 3.50112000e+07
9590.000000 3.53433000e+07
9610.000000 3.50748000e+07
9630.000000 3.47652000e+07
9650.000000 3.46746000e+07
9670.000000 3.44056000e+07
9690.000000 3.41049000e+07
9710.000000 3.37699000e+07
9730.000000 3.36153000e+07
9750.000000 3.33567000e+07
9770.000000 3.31011000e+07
9790.000000 3.28472000e+07
9810.000000 3.25956000e+07
9830.000000 3.23477000e+07
9850.000000 3.21012000e+07
9870.000000 3.18571000e+07
9890.000000 3.16152000e+07
9910.000000 3.13477000e+07
9930.000000 3.11390000e+07
9950.000000 3.09040000e+07
9970.000000 3.06710000e+07
9990.000000 3.04214000e+07
10025.000000 2.90346000e+07
10075.000000 2.81203000e+07
10125.000000 2.88615000e+07
10175.000000 2.84086000e+07
10225.000000 2.78749000e+07
10275.000000 2.73806000e+07
10325.000000 2.67884000e+07
10375.000000 2.63989000e+07
10425.000000 2.59244000e+07
10475.000000 2.54605000e+07
10525.000000 2.50070000e+07
10575.000000 2.45639000e+07
10625.000000 2.41300000e+07
10675.000000 2.36599000e+07
10725.000000 2.32914000e+07
10775.000000 2.28856000e+07
10825.000000 2.22442000e+07
10875.000000 2.20672000e+07
10925.000000 2.02749000e+07
10975.000000 2.10223000e+07
11025.000000 2.08599000e+07
11075.000000 2.06183000e+07
11125.000000 2.02799000e+07
11175.000000 1.99387000e+07
11225.000000 1.95925000e+07
11275.000000 1.92760000e+07
11325.000000 1.89564000e+07
11375.000000 1.86431000e+07
11425.000000 1.83353000e+07
11475.000000 1.80349000e+07
11525.000000 1.77400000e+07
11575.000000 1.74507000e+07
11625.000000 1.71680000e+07
11675.000000 1.68908000e+07
11725.000000 1.66193000e+07
11775.000000 1.63527000e+07
11825.000000 1.60921000e+07
11875.000000 1.58364000e+07
11925.000000 1.55857000e+07
11975.000000 1.52183000e+07
12025.000000 1.50991000e+07
12075.000000 1.48632000e+07
12125.000000 1.46314000e+07
12175.000000 1.44045000e+07
12225.000000 1.41818000e+07
12275.000000 1.39635000e+07
12325.000000 1.37492000e+07
12375.000000 1.35392000e+07
12425.000000 1.33331000e+07
12475.000000 1.31306000e+07
12525.000000 1.29066000e+07
12575.000000 1.27377000e+07
12625.000000 1.25470000e+07
12675.000000 1.23595000e+07
12725.000000 1.21753000e+07
12775.000000 1.18256000e+07
12825.000000 1.10588000e+07
12875.000000 1.15979000e+07
12925.000000 1.14731000e+07
12975.000000 1.12365000e+07
13025.000000 1.11413000e+07
13075.000000 1.09798000e+07
