# Kurucz ODFNEW /NOVER, alpha: 0.0 (2003)
# teff = 8000 K (value for the effective temperature for the model. Temperatures are given in K)
# logg = 4 log(cm/s2) (value for Log(G) for the model.)
# lh = 1.25  (l/Hp where l is the  mixing length of the convective element and Hp is the pressure scale height)
# meta = -1  (value for the Metallicity for the model.)
# vtur = 2 km/s (Microturbulence velocity)
# alpha = 0  (Alpha)
#
# column 1: WAVELENGTH (ANGSTROM), Wavelength in Angstrom
# column 2: FLUX (ERG/CM2/S/A), Flux in erg/cm2/s/A
328.000000 5.35659000e-23
338.000000 6.29707000e-22
348.000000 5.96214000e-21
357.000000 4.02449000e-20
366.000000 2.46476000e-19
375.000000 1.37961000e-18
385.000000 8.48032000e-18
395.000000 4.73903000e-17
405.000000 2.22326000e-17
414.000000 8.31484000e-17
422.000000 2.55230000e-16
430.000000 7.49302000e-16
441.000000 3.07689000e-15
451.000000 1.04161000e-14
460.000000 2.97324000e-14
470.000000 9.06726000e-14
480.000000 2.62893000e-13
490.000000 7.27585000e-13
500.000000 1.92494000e-12
506.000000 4.48628000e-12
512.000000 8.76061000e-12
520.000000 1.77874000e-11
530.000000 4.20317000e-11
540.000000 9.43258000e-11
550.000000 2.07631000e-10
560.000000 4.40411000e-10
570.000000 9.07339000e-10
580.000000 1.79753000e-09
590.000000 3.54998000e-09
600.000000 6.76114000e-09
610.000000 1.25796000e-08
620.000000 2.28831000e-08
630.000000 4.07549000e-08
640.000000 7.11656000e-08
650.000000 1.21927000e-07
658.000000 1.85083000e-07
665.000000 2.64181000e-07
675.000000 4.32975000e-07
685.000000 6.98109000e-07
695.000000 1.10829000e-06
705.000000 1.73256000e-06
716.000000 2.78879000e-06
726.000000 4.23606000e-06
735.000000 6.10396000e-06
745.000000 9.05332000e-06
755.000000 1.32689000e-05
765.000000 1.92245000e-05
775.000000 2.75485000e-05
785.000000 3.90635000e-05
795.000000 5.47297000e-05
805.000000 7.61627000e-05
815.000000 1.04904000e-04
825.000000 1.43159000e-04
835.000000 1.93696000e-04
845.000000 2.59887000e-04
855.000000 3.45878000e-04
865.000000 4.56793000e-04
875.000000 5.98535000e-04
885.000000 7.79216000e-04
895.000000 1.00703000e-03
905.000000 1.29193000e-03
915.000000 1.12277000e+00
925.000000 6.72334000e+00
935.000000 1.01333000e+01
945.000000 1.47638000e+01
955.000000 2.04085000e+01
965.000000 2.63048000e+01
975.000000 2.67908000e+01
985.000000 3.96406000e+01
995.000000 4.66181000e+01
1005.000000 5.97530000e+01
1015.000000 6.93908000e+01
1025.000000 6.54115000e+01
1035.000000 9.97297000e+01
1045.000000 1.24918000e+02
1055.000000 1.49422000e+02
1065.000000 1.74454000e+02
1075.000000 2.10766000e+02
1085.000000 2.50988000e+02
1095.000000 2.89388000e+02
1105.000000 6.24753000e+02
1115.000000 1.40880000e+03
1125.000000 1.79020000e+03
1135.000000 2.33926000e+03
1145.000000 2.71214000e+03
1155.000000 2.79034000e+03
1165.000000 3.29951000e+03
1175.000000 3.43678000e+03
1185.000000 3.75596000e+03
1195.000000 1.86689000e+03
1205.000000 1.21934000e+03
1215.000000 2.93350000e+02
1225.000000 1.35461000e+03
1235.000000 3.35870000e+03
1245.000000 5.62752000e+03
1255.000000 8.86962000e+03
1265.000000 1.08443000e+04
1275.000000 1.45225000e+04
1285.000000 2.11131000e+04
1295.000000 2.69457000e+04
1305.000000 3.13789000e+04
1315.000000 4.39686000e+04
1325.000000 5.79098000e+04
1335.000000 7.53300000e+04
1345.000000 1.04812000e+05
1355.000000 1.18264000e+05
1365.000000 1.44442000e+05
1375.000000 1.50090000e+05
1385.000000 1.35373000e+05
1395.000000 1.51857000e+05
1405.000000 2.19145000e+05
1415.000000 3.39282000e+05
1425.000000 3.83348000e+05
1435.000000 3.80896000e+05
1442.000000 5.13741000e+05
1447.000000 4.62084000e+05
1455.000000 5.74181000e+05
1465.000000 5.18466000e+05
1475.000000 5.65590000e+05
1485.000000 6.33029000e+05
1495.000000 6.99849000e+05
1505.000000 7.86699000e+05
1512.000000 7.64040000e+05
1517.000000 7.31461000e+05
1525.000000 7.67414000e+05
1535.000000 1.21572000e+06
1545.000000 1.39166000e+06
1555.000000 1.17787000e+06
1565.000000 8.05349000e+05
1575.000000 9.83031000e+05
1585.000000 9.81658000e+05
1595.000000 9.29953000e+05
1605.000000 9.72453000e+05
1615.000000 1.57569000e+06
1625.000000 2.69769000e+06
1635.000000 4.71499000e+06
1645.000000 8.89747000e+06
1655.000000 7.00746000e+06
1665.000000 1.33372000e+07
1672.000000 9.71584000e+06
1677.000000 1.46160000e+07
1685.000000 1.76129000e+07
1695.000000 1.57181000e+07
1705.000000 1.66760000e+07
1715.000000 1.91783000e+07
1725.000000 1.93364000e+07
1735.000000 2.17623000e+07
1745.000000 2.10175000e+07
1755.000000 2.36432000e+07
1765.000000 1.90286000e+07
1775.000000 2.26650000e+07
1785.000000 2.31484000e+07
1795.000000 2.58412000e+07
1805.000000 2.38038000e+07
1815.000000 2.43359000e+07
1825.000000 2.25362000e+07
1835.000000 2.31236000e+07
1845.000000 2.06314000e+07
1855.000000 2.21295000e+07
1865.000000 2.33442000e+07
1875.000000 2.35985000e+07
1885.000000 2.39001000e+07
1895.000000 2.45906000e+07
1905.000000 2.31818000e+07
1915.000000 2.50422000e+07
1925.000000 2.55736000e+07
1935.000000 2.29676000e+07
1945.000000 2.64496000e+07
1955.000000 2.63581000e+07
1967.000000 2.76548000e+07
1976.000000 2.68013000e+07
1984.000000 2.63167000e+07
1995.000000 2.57623000e+07
2005.000000 2.46100000e+07
2015.000000 2.48962000e+07
2025.000000 2.30900000e+07
2035.000000 2.54636000e+07
2045.000000 2.70222000e+07
2055.000000 2.61024000e+07
2065.000000 2.55728000e+07
2074.000000 2.77765000e+07
2078.000000 2.82027000e+07
2085.000000 2.77103000e+07
2095.000000 2.67039000e+07
2105.000000 2.57724000e+07
2115.000000 2.62384000e+07
2125.000000 2.68480000e+07
2135.000000 2.27903000e+07
2145.000000 2.58723000e+07
2155.000000 2.56984000e+07
2165.000000 2.42085000e+07
2175.000000 2.39793000e+07
2185.000000 2.50678000e+07
2195.000000 2.67877000e+07
2205.000000 2.57828000e+07
2215.000000 2.36278000e+07
2225.000000 2.40293000e+07
2235.000000 2.69823000e+07
2245.000000 2.43572000e+07
2255.000000 2.34749000e+07
2265.000000 2.30727000e+07
2275.000000 2.48502000e+07
2285.000000 2.56332000e+07
2295.000000 2.37753000e+07
2305.000000 2.43955000e+07
2315.000000 2.43743000e+07
2325.000000 2.41630000e+07
2335.000000 2.31770000e+07
2345.000000 2.05299000e+07
2355.000000 2.44561000e+07
2365.000000 2.13474000e+07
2375.000000 2.32084000e+07
2385.000000 1.95934000e+07
2395.000000 2.15784000e+07
2405.000000 2.09200000e+07
2415.000000 2.11534000e+07
2425.000000 2.32721000e+07
2435.000000 2.24256000e+07
2445.000000 2.37109000e+07
2455.000000 2.31569000e+07
2465.000000 2.32415000e+07
2475.000000 2.19809000e+07
2485.000000 2.25596000e+07
2495.000000 2.17939000e+07
2505.000000 2.46731000e+07
2513.000000 2.20728000e+07
2518.000000 2.22283000e+07
2525.000000 2.07184000e+07
2535.000000 2.01238000e+07
2545.000000 1.98455000e+07
2555.000000 2.16145000e+07
2565.000000 2.17882000e+07
2575.000000 2.35971000e+07
2585.000000 2.38974000e+07
2595.000000 2.36068000e+07
2605.000000 2.26403000e+07
2615.000000 2.20053000e+07
2625.000000 2.39942000e+07
2635.000000 2.41369000e+07
2645.000000 2.69827000e+07
2655.000000 2.69546000e+07
2665.000000 2.48134000e+07
2675.000000 2.58270000e+07
2685.000000 2.62239000e+07
2695.000000 2.44585000e+07
2705.000000 2.49700000e+07
2715.000000 2.36017000e+07
2725.000000 2.37865000e+07
2735.000000 2.54783000e+07
2745.000000 2.16607000e+07
2755.000000 2.25268000e+07
2765.000000 2.35689000e+07
2775.000000 2.51175000e+07
2785.000000 2.44391000e+07
2795.000000 1.74230000e+07
2805.000000 1.98730000e+07
2815.000000 2.61887000e+07
2825.000000 2.61783000e+07
2835.000000 2.54118000e+07
2845.000000 2.45446000e+07
2855.000000 2.33520000e+07
2865.000000 2.50921000e+07
2875.000000 2.46348000e+07
2885.000000 2.52456000e+07
2895.000000 2.44822000e+07
2910.000000 2.66621000e+07
2930.000000 2.57645000e+07
2950.000000 2.55674000e+07
2970.000000 2.59101000e+07
2990.000000 2.59852000e+07
3010.000000 2.61400000e+07
3030.000000 2.61050000e+07
3050.000000 2.60708000e+07
3070.000000 2.60236000e+07
3090.000000 2.62043000e+07
3110.000000 2.57974000e+07
3130.000000 2.57661000e+07
3150.000000 2.61613000e+07
3170.000000 2.60527000e+07
3190.000000 2.50647000e+07
3210.000000 2.54560000e+07
3230.000000 2.48403000e+07
3250.000000 2.53594000e+07
3270.000000 2.56469000e+07
3290.000000 2.58588000e+07
3310.000000 2.59489000e+07
3330.000000 2.54995000e+07
3350.000000 2.51648000e+07
3370.000000 2.50982000e+07
3390.000000 2.49888000e+07
3410.000000 2.52512000e+07
3430.000000 2.52902000e+07
3450.000000 2.50868000e+07
3470.000000 2.48817000e+07
3490.000000 2.48738000e+07
3510.000000 2.51162000e+07
3530.000000 2.50392000e+07
3550.000000 2.52012000e+07
3570.000000 2.46273000e+07
3590.000000 2.45173000e+07
3610.000000 2.45170000e+07
3630.000000 2.46141000e+07
3640.000000 2.44640000e+07
3650.000000 2.48801000e+07
3670.000000 2.48189000e+07
3690.000000 2.37408000e+07
3710.000000 2.47546000e+07
3730.000000 2.54872000e+07
3750.000000 3.18663000e+07
3770.000000 3.37476000e+07
3790.000000 4.05996000e+07
3810.000000 4.69507000e+07
3830.000000 3.76013000e+07
3850.000000 5.17115000e+07
3870.000000 5.76329000e+07
3890.000000 3.42395000e+07
3910.000000 5.77830000e+07
3930.000000 5.79599000e+07
3950.000000 5.79708000e+07
3970.000000 3.28616000e+07
3990.000000 5.61754000e+07
4010.000000 6.31041000e+07
4030.000000 6.35603000e+07
4050.000000 6.26745000e+07
4070.000000 5.93651000e+07
4090.000000 4.69040000e+07
4110.000000 3.63680000e+07
4130.000000 5.68223000e+07
4150.000000 5.97823000e+07
4170.000000 6.01180000e+07
4190.000000 5.94017000e+07
4210.000000 5.90108000e+07
4230.000000 5.78814000e+07
4250.000000 5.76362000e+07
4270.000000 5.66223000e+07
4290.000000 5.57763000e+07
4310.000000 5.19318000e+07
4330.000000 4.00401000e+07
4350.000000 3.43949000e+07
4370.000000 5.11607000e+07
4390.000000 5.30374000e+07
4410.000000 5.29855000e+07
4430.000000 5.30380000e+07
4450.000000 5.28001000e+07
4470.000000 5.23834000e+07
4490.000000 5.18262000e+07
4510.000000 5.17158000e+07
4530.000000 5.08893000e+07
4550.000000 5.00917000e+07
4570.000000 5.03144000e+07
4590.000000 4.95854000e+07
4610.000000 4.96206000e+07
4630.000000 4.87816000e+07
4650.000000 4.86486000e+07
4670.000000 4.82414000e+07
4690.000000 4.73701000e+07
4710.000000 4.60703000e+07
4730.000000 4.67273000e+07
4750.000000 4.62962000e+07
4770.000000 4.57150000e+07
4790.000000 4.50451000e+07
4810.000000 4.40379000e+07
4830.000000 4.17458000e+07
4850.000000 3.30052000e+07
4870.000000 2.69527000e+07
4890.000000 3.94200000e+07
4910.000000 4.17201000e+07
4930.000000 4.15807000e+07
4950.000000 4.17635000e+07
4970.000000 4.17468000e+07
4990.000000 4.11859000e+07
5010.000000 4.04630000e+07
5030.000000 4.06124000e+07
5050.000000 4.01347000e+07
5070.000000 3.99667000e+07
5090.000000 3.95660000e+07
5110.000000 3.92584000e+07
5130.000000 3.88025000e+07
5150.000000 3.83398000e+07
5170.000000 3.73954000e+07
5190.000000 3.71987000e+07
5210.000000 3.72051000e+07
5230.000000 3.67035000e+07
5250.000000 3.68399000e+07
5270.000000 3.58988000e+07
5290.000000 3.61152000e+07
5310.000000 3.56860000e+07
5330.000000 3.51402000e+07
5350.000000 3.51807000e+07
5370.000000 3.47127000e+07
5390.000000 3.44569000e+07
5410.000000 3.39954000e+07
5430.000000 3.38234000e+07
5450.000000 3.35654000e+07
5470.000000 3.33103000e+07
5490.000000 3.30806000e+07
5510.000000 3.28074000e+07
5530.000000 3.24374000e+07
5550.000000 3.22567000e+07
5570.000000 3.18967000e+07
5590.000000 3.15737000e+07
5610.000000 3.13537000e+07
5630.000000 3.11516000e+07
5650.000000 3.08724000e+07
5670.000000 3.05718000e+07
5690.000000 3.03421000e+07
5710.000000 3.00745000e+07
5730.000000 2.98660000e+07
5750.000000 2.95812000e+07
5770.000000 2.93425000e+07
5790.000000 2.90840000e+07
5810.000000 2.88428000e+07
5830.000000 2.86053000e+07
5850.000000 2.83440000e+07
5870.000000 2.81053000e+07
5890.000000 2.76183000e+07
5910.000000 2.76355000e+07
5930.000000 2.74034000e+07
5950.000000 2.71737000e+07
5970.000000 2.69486000e+07
5990.000000 2.67112000e+07
6010.000000 2.64701000e+07
6030.000000 2.62575000e+07
6050.000000 2.60543000e+07
6070.000000 2.58492000e+07
6090.000000 2.56238000e+07
6110.000000 2.54028000e+07
6130.000000 2.51391000e+07
6150.000000 2.49011000e+07
6170.000000 2.47043000e+07
6190.000000 2.45872000e+07
6210.000000 2.43901000e+07
6230.000000 2.41638000e+07
6250.000000 2.38927000e+07
6270.000000 2.37990000e+07
6290.000000 2.36060000e+07
6310.000000 2.33847000e+07
6330.000000 2.32071000e+07
6350.000000 2.29779000e+07
6370.000000 2.28032000e+07
6390.000000 2.26497000e+07
6410.000000 2.24196000e+07
6430.000000 2.22284000e+07
6450.000000 2.19513000e+07
6470.000000 2.17969000e+07
6490.000000 2.15027000e+07
6510.000000 2.11770000e+07
6530.000000 2.04255000e+07
6550.000000 1.78097000e+07
6570.000000 1.44181000e+07
6590.000000 1.92919000e+07
6610.000000 2.01996000e+07
6630.000000 2.03436000e+07
6650.000000 2.02947000e+07
6670.000000 2.01808000e+07
6690.000000 2.00603000e+07
6710.000000 1.99367000e+07
6730.000000 1.97918000e+07
6750.000000 1.96267000e+07
6770.000000 1.94945000e+07
6790.000000 1.93422000e+07
6810.000000 1.91922000e+07
6830.000000 1.90388000e+07
6850.000000 1.88901000e+07
6870.000000 1.87515000e+07
6890.000000 1.86087000e+07
6910.000000 1.84656000e+07
6930.000000 1.83231000e+07
6950.000000 1.81842000e+07
6970.000000 1.80444000e+07
6990.000000 1.79089000e+07
7010.000000 1.77570000e+07
7030.000000 1.76294000e+07
7050.000000 1.75030000e+07
7070.000000 1.73717000e+07
7090.000000 1.72416000e+07
7110.000000 1.70382000e+07
7130.000000 1.69665000e+07
7150.000000 1.68437000e+07
7170.000000 1.67183000e+07
7190.000000 1.65875000e+07
7210.000000 1.64688000e+07
7230.000000 1.63476000e+07
7250.000000 1.62245000e+07
7270.000000 1.61126000e+07
7290.000000 1.59789000e+07
7310.000000 1.58683000e+07
7330.000000 1.57489000e+07
7350.000000 1.56424000e+07
7370.000000 1.55292000e+07
7390.000000 1.54052000e+07
7410.000000 1.52783000e+07
7430.000000 1.51695000e+07
7450.000000 1.50651000e+07
7470.000000 1.49400000e+07
7490.000000 1.48321000e+07
7510.000000 1.47412000e+07
7530.000000 1.46391000e+07
7550.000000 1.45398000e+07
7570.000000 1.44322000e+07
7590.000000 1.43294000e+07
7610.000000 1.42256000e+07
7630.000000 1.41226000e+07
7650.000000 1.40186000e+07
7670.000000 1.39072000e+07
7690.000000 1.38145000e+07
7710.000000 1.37119000e+07
7730.000000 1.36253000e+07
7750.000000 1.35231000e+07
7770.000000 1.32882000e+07
7790.000000 1.33386000e+07
7810.000000 1.32426000e+07
7830.000000 1.31400000e+07
7850.000000 1.30426000e+07
7870.000000 1.29465000e+07
7890.000000 1.28525000e+07
7910.000000 1.27720000e+07
7930.000000 1.26741000e+07
7950.000000 1.25848000e+07
7970.000000 1.25175000e+07
7990.000000 1.24107000e+07
8010.000000 1.23382000e+07
8030.000000 1.22505000e+07
8050.000000 1.21682000e+07
8070.000000 1.20843000e+07
8090.000000 1.19993000e+07
8110.000000 1.19218000e+07
8130.000000 1.18405000e+07
8150.000000 1.17586000e+07
8170.000000 1.16780000e+07
8190.000000 1.15519000e+07
8210.000000 1.15119000e+07
8230.000000 1.14293000e+07
8250.000000 1.13518000e+07
8270.000000 1.13135000e+07
8290.000000 1.12404000e+07
8310.000000 1.11650000e+07
8330.000000 1.10398000e+07
8350.000000 1.10183000e+07
8370.000000 1.09394000e+07
8390.000000 1.08466000e+07
8410.000000 1.07701000e+07
8430.000000 1.06952000e+07
8450.000000 1.05755000e+07
8470.000000 1.04248000e+07
8490.000000 1.05320000e+07
8510.000000 1.00836000e+07
8530.000000 1.04531000e+07
8550.000000 9.58746000e+06
8570.000000 1.04461000e+07
8590.000000 9.86751000e+06
8610.000000 9.64437000e+06
8630.000000 1.04080000e+07
8650.000000 1.00584000e+07
8670.000000 8.60271000e+06
8690.000000 1.01381000e+07
8710.000000 1.03856000e+07
8730.000000 1.00340000e+07
8750.000000 8.22322000e+06
8770.000000 9.61454000e+06
8790.000000 1.02310000e+07
8810.000000 1.02540000e+07
8830.000000 1.00400000e+07
8850.000000 9.12982000e+06
8870.000000 7.86624000e+06
8890.000000 9.59602000e+06
8910.000000 9.95493000e+06
8930.000000 1.00087000e+07
8950.000000 9.99595000e+06
8970.000000 9.81611000e+06
8990.000000 9.36742000e+06
9010.000000 7.66684000e+06
9030.000000 8.34719000e+06
9050.000000 9.34573000e+06
9070.000000 9.47080000e+06
9090.000000 9.43145000e+06
9110.000000 9.53307000e+06
9130.000000 9.53067000e+06
9150.000000 9.45305000e+06
9170.000000 9.32271000e+06
9190.000000 9.08234000e+06
9210.000000 8.46423000e+06
9230.000000 6.80513000e+06
9250.000000 8.19305000e+06
9270.000000 8.75440000e+06
9290.000000 8.96643000e+06
9310.000000 8.99010000e+06
9330.000000 8.96588000e+06
9350.000000 8.92671000e+06
9370.000000 8.87920000e+06
9390.000000 8.81706000e+06
9410.000000 8.65369000e+06
9430.000000 8.68735000e+06
9450.000000 8.62488000e+06
9470.000000 8.54228000e+06
9490.000000 8.41261000e+06
9510.000000 8.16566000e+06
9530.000000 7.53617000e+06
9550.000000 6.18530000e+06
9570.000000 7.57697000e+06
9590.000000 8.00787000e+06
9610.000000 8.09654000e+06
9630.000000 8.08488000e+06
9650.000000 8.10966000e+06
9670.000000 8.02861000e+06
9690.000000 8.02800000e+06
9710.000000 7.99976000e+06
9730.000000 7.96054000e+06
9750.000000 7.90493000e+06
9770.000000 7.86707000e+06
9790.000000 7.81806000e+06
9810.000000 7.77134000e+06
9830.000000 7.72220000e+06
9850.000000 7.66680000e+06
9870.000000 7.61836000e+06
9890.000000 7.54251000e+06
9910.000000 7.50827000e+06
9930.000000 7.45436000e+06
9950.000000 7.39817000e+06
9970.000000 7.32721000e+06
9990.000000 7.22240000e+06
10025.000000 6.58654000e+06
10075.000000 6.27452000e+06
10125.000000 6.95098000e+06
10175.000000 6.92904000e+06
10225.000000 6.85316000e+06
10275.000000 6.75879000e+06
10325.000000 6.65567000e+06
10375.000000 6.56088000e+06
10425.000000 6.46586000e+06
10475.000000 6.34728000e+06
10525.000000 6.27522000e+06
10575.000000 6.18401000e+06
10625.000000 6.09291000e+06
10675.000000 5.94406000e+06
10725.000000 5.89499000e+06
10775.000000 5.81542000e+06
10825.000000 5.70814000e+06
10875.000000 5.54269000e+06
10925.000000 4.72034000e+06
10975.000000 5.12155000e+06
11025.000000 5.37274000e+06
11075.000000 5.34799000e+06
11125.000000 5.28694000e+06
11175.000000 5.21982000e+06
11225.000000 5.15100000e+06
11275.000000 5.05741000e+06
11325.000000 4.98407000e+06
11375.000000 4.93627000e+06
11425.000000 4.86401000e+06
11475.000000 4.80941000e+06
11525.000000 4.74536000e+06
11575.000000 4.68056000e+06
11625.000000 4.60219000e+06
11675.000000 4.52499000e+06
11725.000000 4.49607000e+06
11775.000000 4.39466000e+06
11825.000000 4.35676000e+06
11875.000000 4.29531000e+06
11925.000000 4.26307000e+06
11975.000000 4.18630000e+06
12025.000000 4.14635000e+06
12075.000000 4.08650000e+06
12125.000000 4.03801000e+06
12175.000000 3.99068000e+06
12225.000000 3.93819000e+06
12275.000000 3.88392000e+06
12325.000000 3.83610000e+06
12375.000000 3.78819000e+06
12425.000000 3.74141000e+06
12475.000000 3.69212000e+06
12525.000000 3.64444000e+06
12575.000000 3.59122000e+06
12625.000000 3.54132000e+06
12675.000000 3.49351000e+06
12725.000000 3.42539000e+06
12775.000000 3.26359000e+06
12825.000000 2.79454000e+06
12875.000000 3.21445000e+06
12925.000000 3.26270000e+06
12975.000000 3.24185000e+06
13025.000000 3.21057000e+06
13075.000000 3.17571000e+06
13125.000000 3.13515000e+06
13175.000000 3.09469000e+06
13225.000000 3.06013000e+06
13275.000000 3.02280000e+06
13325.000000 2.98616000e+06
13375.000000 2.94976000e+06
13425.000000 2.91445000e+06
13475.000000 2.87896000e+06
13525.000000 2.84268000e+06
13575.000000 2.80849000e+06
13625.000000 2.77655000e+06
13675.000000 2.74279000e+06
13725.000000 2.70184000e+06
13775.000000 2.67651000e+06
13825.000000 2.64496000e+06
13875.000000 2.61576000e+06
13925.000000 2.58282000e+06
13975.000000 2.55357000e+06
14025.000000 2.52352000e+06
14075.000000 2.49460000e+06
14125.000000 2.46450000e+06
14175.000000 2.43646000e+06
14225.000000 2.40726000e+06
14275.000000 2.37897000e+06
14325.000000 2.35247000e+06
14375.000000 2.32575000e+06
14425.000000 2.28032000e+06
14475.000000 2.27215000e+06
14525.000000 2.23671000e+06
14570.000000 2.22221000e+06
14620.000000 2.19557000e+06
14675.000000 2.17163000e+06
14725.000000 2.14648000e+06
14775.000000 2.11972000e+06
14825.000000 2.09825000e+06
14875.000000 2.06901000e+06
