# Kurucz ODFNEW /NOVER, alpha: 0.0 (2003)
# teff = 9750 K (value for the effective temperature for the model. Temperatures are given in K)
# logg = 3 log(cm/s2) (value for Log(G) for the model.)
# lh = 1.25  (l/Hp where l is the  mixing length of the convective element and Hp is the pressure scale height)
# meta = -1  (value for the Metallicity for the model.)
# vtur = 2 km/s (Microturbulence velocity)
# alpha = 0  (Alpha)
#
# column 1: WAVELENGTH (ANGSTROM), Wavelength in Angstrom
# column 2: FLUX (ERG/CM2/S/A), Flux in erg/cm2/s/A
268.500000 3.37071000e-23
273.500000 1.86727000e-22
278.500000 7.84814000e-22
284.000000 3.52208000e-21
290.000000 1.69219000e-20
296.000000 7.61018000e-20
301.000000 2.54776000e-19
308.000000 1.29348000e-18
318.000000 1.16218000e-17
328.000000 9.11954000e-17
338.000000 6.31982000e-16
348.000000 3.91307000e-15
357.000000 1.84621000e-14
366.000000 8.06213000e-14
375.000000 3.27209000e-13
385.000000 1.43474000e-12
395.000000 5.82219000e-12
405.000000 2.20055000e-11
414.000000 6.88130000e-11
422.000000 1.81709000e-10
430.000000 4.62120000e-10
441.000000 1.57581000e-09
451.000000 4.55259000e-09
460.000000 1.13537000e-08
470.000000 3.00309000e-08
480.000000 7.61275000e-08
490.000000 1.85509000e-07
500.000000 4.35394000e-07
506.000000 8.80084000e-07
512.000000 1.53598000e-06
520.000000 2.84289000e-06
530.000000 6.00259000e-06
540.000000 1.21897000e-05
550.000000 2.43361000e-05
560.000000 4.71080000e-05
570.000000 8.89970000e-05
580.000000 1.63391000e-04
590.000000 2.96676000e-04
600.000000 5.24763000e-04
610.000000 9.10094000e-04
620.000000 1.54877000e-03
630.000000 2.58898000e-03
640.000000 4.25421000e-03
650.000000 6.87939000e-03
658.000000 9.99156000e-03
665.000000 1.37402000e-02
675.000000 2.13970000e-02
685.000000 3.28641000e-02
695.000000 4.98154000e-02
705.000000 7.45508000e-02
716.000000 1.14557000e-01
726.000000 1.67238000e-01
735.000000 2.32847000e-01
745.000000 3.32946000e-01
755.000000 4.71222000e-01
765.000000 6.60407000e-01
775.000000 9.16883000e-01
785.000000 1.26140000e+00
795.000000 1.71995000e+00
805.000000 2.32633000e+00
815.000000 3.12075000e+00
825.000000 4.15383000e+00
835.000000 5.48540000e+00
845.000000 7.19718000e+00
855.000000 9.37308000e+00
865.000000 1.21262000e+01
875.000000 1.55853000e+01
885.000000 1.99095000e+01
895.000000 2.52777000e+01
905.000000 3.18918000e+01
915.000000 3.20471000e+02
925.000000 2.11959000e+03
935.000000 3.55556000e+03
945.000000 6.49239000e+03
955.000000 1.13693000e+04
965.000000 1.53625000e+04
975.000000 9.97478000e+03
985.000000 1.06986000e+05
995.000000 4.33875000e+05
1005.000000 3.17530000e+05
1015.000000 4.07730000e+04
1025.000000 1.66154000e+04
1035.000000 4.62249000e+04
1045.000000 4.64657000e+05
1055.000000 1.43987000e+06
1065.000000 1.79153000e+06
1075.000000 2.46473000e+06
1085.000000 2.82976000e+06
1095.000000 2.94214000e+06
1105.000000 1.22396000e+07
1115.000000 4.14267000e+07
1125.000000 4.80219000e+07
1135.000000 5.15105000e+07
1145.000000 4.55601000e+07
1155.000000 4.15891000e+07
1165.000000 3.65314000e+07
1175.000000 2.28959000e+07
1185.000000 1.99364000e+07
1195.000000 1.73287000e+05
1205.000000 1.10466000e+05
1215.000000 3.20069000e+04
1225.000000 1.18199000e+05
1235.000000 2.62955000e+05
1245.000000 5.99792000e+06
1255.000000 2.58970000e+07
1265.000000 3.30675000e+07
1275.000000 5.93451000e+07
1285.000000 8.10234000e+07
1295.000000 8.18706000e+07
1305.000000 6.20964000e+07
1315.000000 9.40154000e+07
1325.000000 1.03970000e+08
1335.000000 1.01715000e+08
1345.000000 1.18859000e+08
1355.000000 1.12941000e+08
1365.000000 1.02536000e+08
1375.000000 1.11098000e+08
1385.000000 1.13646000e+08
1395.000000 1.15939000e+08
1405.000000 1.20310000e+08
1415.000000 1.14434000e+08
1425.000000 1.18630000e+08
1435.000000 1.10352000e+08
1442.000000 1.20732000e+08
1447.000000 1.26972000e+08
1455.000000 1.27521000e+08
1465.000000 1.20146000e+08
1475.000000 1.16030000e+08
1485.000000 1.19133000e+08
1495.000000 1.23434000e+08
1505.000000 1.24778000e+08
1512.000000 1.20056000e+08
1517.000000 1.25372000e+08
1525.000000 1.19625000e+08
1535.000000 1.16567000e+08
1545.000000 1.23491000e+08
1555.000000 1.14121000e+08
1565.000000 1.05658000e+08
1575.000000 1.10273000e+08
1585.000000 1.17287000e+08
1595.000000 1.22012000e+08
1605.000000 1.15181000e+08
1615.000000 1.15300000e+08
1625.000000 1.07267000e+08
1635.000000 1.09944000e+08
1645.000000 1.12031000e+08
1655.000000 9.91990000e+07
1665.000000 1.11266000e+08
1672.000000 9.35212000e+07
1677.000000 1.04974000e+08
1685.000000 1.12150000e+08
1695.000000 1.06320000e+08
1705.000000 1.03165000e+08
1715.000000 1.03310000e+08
1725.000000 1.01717000e+08
1735.000000 1.05331000e+08
1745.000000 1.02982000e+08
1755.000000 1.08286000e+08
1765.000000 9.86924000e+07
1775.000000 1.05816000e+08
1785.000000 1.04220000e+08
1795.000000 1.09172000e+08
1805.000000 1.05234000e+08
1815.000000 1.04276000e+08
1825.000000 1.00891000e+08
1835.000000 9.93483000e+07
1845.000000 9.51257000e+07
1855.000000 9.67884000e+07
1865.000000 9.65667000e+07
1875.000000 9.99736000e+07
1885.000000 9.96006000e+07
1895.000000 9.74454000e+07
1905.000000 9.50911000e+07
1915.000000 9.57350000e+07
1925.000000 9.62648000e+07
1935.000000 9.52251000e+07
1945.000000 9.82139000e+07
1955.000000 9.67603000e+07
1967.000000 9.77196000e+07
1976.000000 9.62400000e+07
1984.000000 9.49486000e+07
1995.000000 9.28007000e+07
2005.000000 9.20207000e+07
2015.000000 8.82203000e+07
2025.000000 8.92455000e+07
2035.000000 9.00081000e+07
2045.000000 9.08397000e+07
2055.000000 8.76071000e+07
2065.000000 8.69100000e+07
2074.000000 8.89915000e+07
2078.000000 9.02022000e+07
2085.000000 9.02735000e+07
2095.000000 8.76369000e+07
2105.000000 8.71804000e+07
2115.000000 8.65179000e+07
2125.000000 8.64731000e+07
2135.000000 7.90308000e+07
2145.000000 8.45405000e+07
2155.000000 8.44392000e+07
2165.000000 8.14426000e+07
2175.000000 8.04725000e+07
2185.000000 8.01005000e+07
2195.000000 8.36964000e+07
2205.000000 8.08004000e+07
2215.000000 7.62884000e+07
2225.000000 7.51096000e+07
2235.000000 8.05840000e+07
2245.000000 7.51736000e+07
2255.000000 7.40935000e+07
2265.000000 7.39914000e+07
2275.000000 7.75132000e+07
2285.000000 7.84957000e+07
2295.000000 7.49950000e+07
2305.000000 7.42607000e+07
2315.000000 7.29105000e+07
2325.000000 7.32882000e+07
2335.000000 7.12937000e+07
2345.000000 6.67238000e+07
2355.000000 7.15688000e+07
2365.000000 6.70138000e+07
2375.000000 6.96071000e+07
2385.000000 6.33739000e+07
2395.000000 6.77204000e+07
2405.000000 6.54584000e+07
2415.000000 6.64354000e+07
2425.000000 6.84063000e+07
2435.000000 6.58505000e+07
2445.000000 6.88735000e+07
2455.000000 6.69759000e+07
2465.000000 6.63964000e+07
2475.000000 6.43173000e+07
2485.000000 6.73818000e+07
2495.000000 6.55658000e+07
2505.000000 6.90057000e+07
2513.000000 6.56738000e+07
2518.000000 6.62392000e+07
2525.000000 6.26698000e+07
2535.000000 6.22057000e+07
2545.000000 6.22645000e+07
2555.000000 6.47674000e+07
2565.000000 6.42691000e+07
2575.000000 6.69072000e+07
2585.000000 6.68528000e+07
2595.000000 6.64449000e+07
2605.000000 6.43091000e+07
2615.000000 6.39835000e+07
2625.000000 6.50387000e+07
2635.000000 6.54250000e+07
2645.000000 6.92876000e+07
2655.000000 6.84567000e+07
2665.000000 6.56577000e+07
2675.000000 6.69051000e+07
2685.000000 6.71340000e+07
2695.000000 6.51273000e+07
2705.000000 6.55529000e+07
2715.000000 6.37369000e+07
2725.000000 6.38484000e+07
2735.000000 6.63588000e+07
2745.000000 6.06865000e+07
2755.000000 6.07480000e+07
2765.000000 6.23544000e+07
2775.000000 6.45916000e+07
2785.000000 6.41383000e+07
2795.000000 5.70301000e+07
2805.000000 6.04115000e+07
2815.000000 6.49512000e+07
2825.000000 6.44874000e+07
2835.000000 6.29130000e+07
2845.000000 6.15407000e+07
2855.000000 6.06111000e+07
2865.000000 6.20338000e+07
2875.000000 6.10926000e+07
2885.000000 6.21815000e+07
2895.000000 6.13931000e+07
2910.000000 6.37959000e+07
2930.000000 6.19450000e+07
2950.000000 6.16880000e+07
2970.000000 6.17184000e+07
2990.000000 6.15444000e+07
3010.000000 6.19850000e+07
3030.000000 6.16577000e+07
3050.000000 6.09773000e+07
3070.000000 6.02254000e+07
3090.000000 6.03992000e+07
3110.000000 5.95976000e+07
3130.000000 5.90191000e+07
3150.000000 5.90352000e+07
3170.000000 5.86075000e+07
3190.000000 5.73048000e+07
3210.000000 5.77227000e+07
3230.000000 5.69559000e+07
3250.000000 5.69561000e+07
3270.000000 5.69380000e+07
3290.000000 5.68117000e+07
3310.000000 5.66361000e+07
3330.000000 5.58559000e+07
3350.000000 5.50936000e+07
3370.000000 5.50089000e+07
3390.000000 5.45191000e+07
3410.000000 5.47335000e+07
3430.000000 5.43693000e+07
3450.000000 5.41364000e+07
3470.000000 5.36361000e+07
3490.000000 5.33324000e+07
3510.000000 5.32218000e+07
3530.000000 5.30195000e+07
3550.000000 5.27137000e+07
3570.000000 5.22607000e+07
3590.000000 5.19373000e+07
3610.000000 5.16351000e+07
3630.000000 5.12936000e+07
3640.000000 5.11173000e+07
3650.000000 5.18132000e+07
3670.000000 5.11997000e+07
3690.000000 4.94398000e+07
3710.000000 5.64625000e+07
3730.000000 6.48349000e+07
3750.000000 9.38173000e+07
3770.000000 9.90959000e+07
3790.000000 1.18345000e+08
3810.000000 1.33419000e+08
3830.000000 1.06871000e+08
3850.000000 1.41918000e+08
3870.000000 1.52111000e+08
3890.000000 9.49560000e+07
3910.000000 1.48682000e+08
3930.000000 1.49119000e+08
3950.000000 1.46080000e+08
3970.000000 8.97334000e+07
3990.000000 1.40449000e+08
4010.000000 1.44049000e+08
4030.000000 1.41962000e+08
4050.000000 1.40627000e+08
4070.000000 1.37309000e+08
4090.000000 1.18464000e+08
4110.000000 9.20854000e+07
4130.000000 1.30611000e+08
4150.000000 1.31316000e+08
4170.000000 1.29693000e+08
4190.000000 1.28217000e+08
4210.000000 1.26575000e+08
4230.000000 1.24610000e+08
4250.000000 1.22950000e+08
4270.000000 1.21259000e+08
4290.000000 1.19427000e+08
4310.000000 1.16206000e+08
4330.000000 9.63560000e+07
4350.000000 8.21946000e+07
4370.000000 1.11899000e+08
4390.000000 1.11181000e+08
4410.000000 1.10504000e+08
4430.000000 1.09313000e+08
4450.000000 1.07990000e+08
4470.000000 1.06294000e+08
4490.000000 1.04219000e+08
4510.000000 1.03572000e+08
4530.000000 1.02234000e+08
4550.000000 1.00380000e+08
4570.000000 9.98658000e+07
4590.000000 9.82821000e+07
4610.000000 9.76528000e+07
4630.000000 9.59498000e+07
4650.000000 9.52203000e+07
4670.000000 9.39867000e+07
4690.000000 9.27775000e+07
4710.000000 9.11778000e+07
4730.000000 9.05684000e+07
4750.000000 8.94633000e+07
4770.000000 8.83719000e+07
4790.000000 8.72020000e+07
4810.000000 8.58482000e+07
4830.000000 8.38824000e+07
4850.000000 7.12427000e+07
4870.000000 5.79655000e+07
4890.000000 8.02248000e+07
4910.000000 8.07086000e+07
4930.000000 7.97265000e+07
4950.000000 7.92081000e+07
4970.000000 7.83172000e+07
4990.000000 7.73518000e+07
5010.000000 7.60675000e+07
5030.000000 7.54966000e+07
5050.000000 7.43886000e+07
5070.000000 7.37853000e+07
5090.000000 7.29318000e+07
5110.000000 7.20619000e+07
5130.000000 7.12492000e+07
5150.000000 7.03886000e+07
5170.000000 6.91812000e+07
5190.000000 6.85806000e+07
5210.000000 6.80023000e+07
5230.000000 6.70549000e+07
5250.000000 6.64793000e+07
5270.000000 6.55254000e+07
5290.000000 6.49985000e+07
5310.000000 6.40956000e+07
5330.000000 6.35015000e+07
5350.000000 6.28617000e+07
5370.000000 6.21370000e+07
5390.000000 6.14511000e+07
5410.000000 6.07440000e+07
5430.000000 6.00789000e+07
5450.000000 5.94536000e+07
5470.000000 5.87904000e+07
5490.000000 5.81541000e+07
5510.000000 5.75118000e+07
5530.000000 5.68786000e+07
5550.000000 5.62871000e+07
5570.000000 5.56748000e+07
5590.000000 5.50770000e+07
5610.000000 5.44934000e+07
5630.000000 5.39085000e+07
5650.000000 5.33186000e+07
5670.000000 5.27545000e+07
5690.000000 5.22016000e+07
5710.000000 5.16505000e+07
5730.000000 5.11047000e+07
5750.000000 5.05641000e+07
5770.000000 5.00342000e+07
5790.000000 4.95037000e+07
5810.000000 4.89905000e+07
5830.000000 4.84787000e+07
5850.000000 4.79772000e+07
5870.000000 4.73939000e+07
5890.000000 4.69379000e+07
5910.000000 4.65032000e+07
5930.000000 4.60294000e+07
5950.000000 4.55363000e+07
5970.000000 4.50859000e+07
5990.000000 4.46079000e+07
6010.000000 4.41748000e+07
6030.000000 4.37300000e+07
6050.000000 4.32859000e+07
6070.000000 4.28509000e+07
6090.000000 4.24205000e+07
6110.000000 4.19949000e+07
6130.000000 4.15760000e+07
6150.000000 4.10899000e+07
6170.000000 4.07507000e+07
6190.000000 4.03492000e+07
6210.000000 3.99510000e+07
6230.000000 3.95551000e+07
6250.000000 3.91210000e+07
6270.000000 3.87856000e+07
6290.000000 3.84051000e+07
6310.000000 3.80220000e+07
6330.000000 3.76599000e+07
6350.000000 3.71745000e+07
6370.000000 3.68644000e+07
6390.000000 3.65749000e+07
6410.000000 3.62178000e+07
6430.000000 3.58753000e+07
6450.000000 3.54937000e+07
6470.000000 3.51946000e+07
6490.000000 3.47839000e+07
6510.000000 3.43607000e+07
6530.000000 3.37265000e+07
6550.000000 3.05555000e+07
6570.000000 2.46697000e+07
6590.000000 3.22928000e+07
6610.000000 3.26986000e+07
6630.000000 3.25256000e+07
6650.000000 3.23081000e+07
6670.000000 3.20080000e+07
6690.000000 3.17159000e+07
6710.000000 3.14292000e+07
6730.000000 3.11337000e+07
6750.000000 3.08511000e+07
6770.000000 3.05688000e+07
6790.000000 3.02885000e+07
6810.000000 3.00109000e+07
6830.000000 2.97353000e+07
6850.000000 2.94647000e+07
6870.000000 2.91976000e+07
6890.000000 2.89340000e+07
6910.000000 2.86720000e+07
6930.000000 2.84119000e+07
6950.000000 2.81581000e+07
6970.000000 2.79052000e+07
6990.000000 2.76571000e+07
7010.000000 2.74021000e+07
7030.000000 2.71649000e+07
7050.000000 2.69200000e+07
7070.000000 2.66797000e+07
7090.000000 2.64500000e+07
7110.000000 2.62030000e+07
7130.000000 2.59836000e+07
7150.000000 2.57552000e+07
7170.000000 2.55326000e+07
7190.000000 2.53084000e+07
7210.000000 2.50884000e+07
7230.000000 2.48677000e+07
7250.000000 2.46525000e+07
7270.000000 2.44408000e+07
7290.000000 2.42282000e+07
7310.000000 2.40183000e+07
7330.000000 2.38137000e+07
7350.000000 2.36111000e+07
7370.000000 2.34096000e+07
7390.000000 2.32093000e+07
7410.000000 2.30107000e+07
7430.000000 2.28085000e+07
7450.000000 2.26177000e+07
7470.000000 2.24198000e+07
7490.000000 2.22371000e+07
7510.000000 2.20500000e+07
7530.000000 2.18692000e+07
7550.000000 2.16868000e+07
7570.000000 2.15053000e+07
7590.000000 2.13260000e+07
7610.000000 2.11484000e+07
7630.000000 2.09729000e+07
7650.000000 2.07978000e+07
7670.000000 2.06260000e+07
7690.000000 2.04571000e+07
7710.000000 2.02852000e+07
7730.000000 2.01217000e+07
7750.000000 1.99572000e+07
7770.000000 1.95937000e+07
7790.000000 1.96323000e+07
7810.000000 1.94726000e+07
7830.000000 1.93136000e+07
7850.000000 1.91536000e+07
7870.000000 1.89822000e+07
7890.000000 1.88110000e+07
7910.000000 1.86955000e+07
7930.000000 1.85462000e+07
7950.000000 1.83875000e+07
7970.000000 1.82508000e+07
7990.000000 1.80687000e+07
8010.000000 1.79604000e+07
8030.000000 1.78179000e+07
8050.000000 1.76760000e+07
8070.000000 1.75358000e+07
8090.000000 1.73974000e+07
8110.000000 1.72596000e+07
8130.000000 1.71246000e+07
8150.000000 1.69902000e+07
8170.000000 1.68569000e+07
8190.000000 1.67157000e+07
8210.000000 1.66835000e+07
8230.000000 1.65591000e+07
8250.000000 1.64502000e+07
8270.000000 1.63476000e+07
8290.000000 1.62260000e+07
8310.000000 1.61071000e+07
8330.000000 1.59636000e+07
8350.000000 1.58267000e+07
8370.000000 1.56372000e+07
8390.000000 1.54669000e+07
8410.000000 1.52661000e+07
8430.000000 1.52394000e+07
8450.000000 1.51172000e+07
8470.000000 1.44877000e+07
8490.000000 1.53833000e+07
8510.000000 1.40865000e+07
8530.000000 1.55402000e+07
8550.000000 1.34026000e+07
8570.000000 1.57817000e+07
8590.000000 1.44150000e+07
8610.000000 1.39599000e+07
8630.000000 1.60567000e+07
8650.000000 1.54458000e+07
8670.000000 1.24277000e+07
8690.000000 1.59046000e+07
8710.000000 1.63287000e+07
8730.000000 1.57562000e+07
8750.000000 1.20524000e+07
8770.000000 1.49506000e+07
8790.000000 1.59611000e+07
8810.000000 1.59388000e+07
8830.000000 1.56671000e+07
8850.000000 1.41837000e+07
8870.000000 1.17170000e+07
8890.000000 1.49930000e+07
8910.000000 1.53177000e+07
8930.000000 1.52624000e+07
8950.000000 1.51773000e+07
8970.000000 1.50006000e+07
8990.000000 1.45424000e+07
9010.000000 1.15539000e+07
9030.000000 1.27682000e+07
9050.000000 1.43783000e+07
9070.000000 1.44253000e+07
9090.000000 1.43232000e+07
9110.000000 1.42957000e+07
9130.000000 1.42124000e+07
9150.000000 1.40968000e+07
9170.000000 1.39592000e+07
9190.000000 1.37482000e+07
9210.000000 1.30521000e+07
9230.000000 1.00452000e+07
9250.000000 1.25696000e+07
9270.000000 1.31844000e+07
9290.000000 1.33438000e+07
9310.000000 1.32835000e+07
9330.000000 1.32080000e+07
9350.000000 1.31158000e+07
9370.000000 1.30199000e+07
9390.000000 1.29124000e+07
9410.000000 1.27742000e+07
9430.000000 1.27319000e+07
9450.000000 1.26401000e+07
9470.000000 1.25200000e+07
9490.000000 1.23941000e+07
9510.000000 1.21883000e+07
9530.000000 1.13793000e+07
9550.000000 9.04663000e+06
9570.000000 1.14304000e+07
9590.000000 1.18703000e+07
9610.000000 1.18691000e+07
9630.000000 1.17841000e+07
9650.000000 1.17547000e+07
9670.000000 1.16517000e+07
9690.000000 1.15872000e+07
9710.000000 1.15068000e+07
9730.000000 1.14245000e+07
9750.000000 1.13428000e+07
9770.000000 1.12629000e+07
9790.000000 1.11831000e+07
9810.000000 1.11031000e+07
9830.000000 1.10229000e+07
9850.000000 1.09448000e+07
9870.000000 1.08680000e+07
9890.000000 1.07832000e+07
9910.000000 1.07175000e+07
9930.000000 1.06404000e+07
9950.000000 1.05668000e+07
9970.000000 1.04744000e+07
9990.000000 1.03729000e+07
10025.000000 9.61722000e+06
10075.000000 9.13713000e+06
10125.000000 9.90188000e+06
10175.000000 9.77387000e+06
10225.000000 9.61042000e+06
10275.000000 9.44789000e+06
10325.000000 9.28805000e+06
10375.000000 9.13259000e+06
10425.000000 8.98072000e+06
10475.000000 8.82859000e+06
10525.000000 8.68233000e+06
10575.000000 8.54113000e+06
10625.000000 8.40120000e+06
10675.000000 8.23441000e+06
10725.000000 8.12146000e+06
10775.000000 7.99629000e+06
10825.000000 7.86054000e+06
10875.000000 7.69382000e+06
10925.000000 6.66623000e+06
10975.000000 7.20145000e+06
11025.000000 7.35758000e+06
11075.000000 7.26181000e+06
11125.000000 7.14706000e+06
11175.000000 7.03528000e+06
11225.000000 6.92551000e+06
11275.000000 6.80169000e+06
11325.000000 6.70035000e+06
11375.000000 6.60751000e+06
11425.000000 6.50564000e+06
11475.000000 6.40702000e+06
11525.000000 6.30957000e+06
11575.000000 6.21356000e+06
11625.000000 6.11674000e+06
11675.000000 6.02079000e+06
11725.000000 5.93666000e+06
11775.000000 5.83446000e+06
11825.000000 5.75693000e+06
11875.000000 5.67142000e+06
11925.000000 5.59138000e+06
11975.000000 5.50643000e+06
12025.000000 5.42764000e+06
12075.000000 5.34765000e+06
12125.000000 5.27006000e+06
12175.000000 5.19383000e+06
12225.000000 5.11891000e+06
12275.000000 5.04429000e+06
12325.000000 4.97220000e+06
12375.000000 4.90110000e+06
12425.000000 4.83172000e+06
12475.000000 4.76111000e+06
12525.000000 4.69532000e+06
12575.000000 4.62732000e+06
12625.000000 4.56309000e+06
12675.000000 4.50019000e+06
12725.000000 4.42837000e+06
12775.000000 4.30052000e+06
12825.000000 3.76865000e+06
12875.000000 4.20556000e+06
12925.000000 4.19068000e+06
12975.000000 4.13920000e+06
13025.000000 4.08305000e+06
13075.000000 4.02742000e+06
13125.000000 3.97274000e+06
13175.000000 3.91747000e+06
13225.000000 3.86615000e+06
13275.000000 3.81442000e+06
13325.000000 3.76336000e+06
13375.000000 3.71316000e+06
13425.000000 3.66360000e+06
13475.000000 3.61510000e+06
13525.000000 3.56679000e+06
13575.000000 3.52033000e+06
13625.000000 3.47424000e+06
13675.000000 3.42854000e+06
13725.000000 3.38320000e+06
13775.000000 3.34022000e+06
13825.000000 3.29699000e+06
13875.000000 3.25468000e+06
13925.000000 3.21250000e+06
13975.000000 3.17162000e+06
14025.000000 3.13104000e+06
14075.000000 3.09115000e+06
14125.000000 3.05193000e+06
14175.000000 3.01338000e+06
14225.000000 2.97529000e+06
14275.000000 2.93803000e+06
14325.000000 2.90103000e+06
14375.000000 2.86484000e+06
14425.000000 2.82655000e+06
14475.000000 2.79411000e+06
