# Kurucz ODFNEW /NOVER, alpha: 0.0 (2003)
# teff = 25000 K (value for the effective temperature for the model. Temperatures are given in K)
# logg = 3.5 log(cm/s2) (value for Log(G) for the model.)
# lh = 1.25  (l/Hp where l is the  mixing length of the convective element and Hp is the pressure scale height)
# meta = 0.5  (value for the Metallicity for the model.)
# vtur = 2 km/s (Microturbulence velocity)
# alpha = 0  (Alpha)
#
# column 1: WAVELENGTH (ANGSTROM), Wavelength in Angstrom
# column 2: FLUX (ERG/CM2/S/A), Flux in erg/cm2/s/A
147.200000 1.99772000e-14
151.000000 8.45968000e-14
155.200000 3.85362000e-13
158.800000 1.33032000e-12
162.000000 3.83275000e-12
166.000000 1.36225000e-11
170.300000 4.97961000e-11
173.400000 1.22861000e-10
176.800000 3.18394000e-10
180.200000 7.97927000e-10
181.700000 1.18445000e-09
186.100000 3.64490000e-09
191.000000 1.20565000e-08
193.900000 2.38079000e-08
198.400000 6.59569000e-08
201.800000 1.38450000e-07
205.000000 2.72321000e-07
210.500000 8.33901000e-07
216.200000 2.51140000e-06
219.800000 4.90071000e-06
223.000000 8.72790000e-06
226.800000 1.71131000e-05
230.000000 6.59668000e-04
234.000000 1.51088000e-03
240.000000 3.57337000e-03
246.500000 8.81524000e-03
252.400000 1.93528000e-02
256.800000 3.26394000e-02
260.000000 5.46447000e-02
264.000000 8.81933000e-02
268.500000 1.50102000e-01
273.500000 2.62529000e-01
278.500000 4.47370000e-01
284.000000 8.75825000e-01
290.000000 1.57398000e+00
296.000000 2.77693000e+00
301.000000 4.32943000e+00
308.000000 8.52431000e+00
318.000000 2.07744000e+01
328.000000 4.38031000e+01
338.000000 9.48584000e+01
348.000000 1.89528000e+02
357.000000 1.31802000e+03
366.000000 3.19144000e+03
375.000000 4.69274000e+03
385.000000 8.00580000e+03
395.000000 1.95856000e+04
405.000000 2.91347000e+04
414.000000 4.49998000e+04
422.000000 6.82489000e+04
430.000000 1.00904000e+05
441.000000 1.51053000e+05
451.000000 1.95346000e+05
460.000000 2.53260000e+05
470.000000 3.65832000e+05
480.000000 5.02698000e+05
490.000000 6.76920000e+05
500.000000 8.62454000e+05
506.000000 3.39745000e+06
512.000000 4.04733000e+07
520.000000 4.30578000e+07
530.000000 4.50546000e+07
540.000000 4.64555000e+07
550.000000 7.78516000e+07
560.000000 9.60780000e+07
570.000000 1.10500000e+08
580.000000 1.01145000e+08
590.000000 1.33765000e+08
600.000000 1.37883000e+08
610.000000 1.70920000e+08
620.000000 1.91775000e+08
630.000000 1.94658000e+08
640.000000 1.62547000e+08
650.000000 1.02622000e+08
658.000000 1.71631000e+08
665.000000 2.29978000e+08
675.000000 2.48606000e+08
685.000000 2.26275000e+08
695.000000 3.49498000e+08
705.000000 3.20992000e+08
716.000000 3.92591000e+08
726.000000 3.83951000e+08
735.000000 4.07152000e+08
745.000000 4.66784000e+08
755.000000 4.89608000e+08
765.000000 5.18361000e+08
775.000000 5.58340000e+08
785.000000 5.97907000e+08
795.000000 6.07452000e+08
805.000000 6.14080000e+08
815.000000 6.18444000e+08
825.000000 6.90055000e+08
835.000000 5.04806000e+08
845.000000 6.73130000e+08
855.000000 6.65052000e+08
865.000000 7.12097000e+08
875.000000 7.58060000e+08
885.000000 8.22169000e+08
895.000000 8.55163000e+08
905.000000 8.18016000e+08
915.000000 1.30074000e+09
925.000000 9.63811000e+09
935.000000 1.70515000e+10
945.000000 2.28887000e+10
955.000000 2.52526000e+10
965.000000 2.37982000e+10
975.000000 3.97565000e+09
985.000000 1.39062000e+10
995.000000 1.80898000e+10
1005.000000 2.36166000e+10
1015.000000 2.54138000e+10
1025.000000 1.96213000e+10
1035.000000 2.02825000e+10
1045.000000 3.09956000e+10
1055.000000 2.79264000e+10
1065.000000 2.14517000e+10
1075.000000 2.52060000e+10
1085.000000 2.25364000e+10
1095.000000 2.55567000e+10
1105.000000 2.29612000e+10
1115.000000 2.16151000e+10
1125.000000 1.51269000e+10
1135.000000 2.29759000e+10
1145.000000 2.16105000e+10
1155.000000 2.15073000e+10
1165.000000 2.06240000e+10
1175.000000 9.32092000e+09
1185.000000 1.88501000e+10
1195.000000 1.83122000e+10
1205.000000 1.17524000e+10
1215.000000 1.35303000e+10
1225.000000 1.79424000e+10
1235.000000 2.03392000e+10
1245.000000 1.89570000e+10
1255.000000 1.89680000e+10
1265.000000 1.98052000e+10
1275.000000 2.07631000e+10
1285.000000 2.08298000e+10
1295.000000 1.38377000e+10
1305.000000 1.56512000e+10
1315.000000 2.05545000e+10
1325.000000 1.90825000e+10
1335.000000 1.83160000e+10
1345.000000 1.88539000e+10
1355.000000 1.83698000e+10
1365.000000 1.66707000e+10
1375.000000 1.58451000e+10
1385.000000 1.46371000e+10
1395.000000 8.28755000e+09
1405.000000 9.85782000e+09
1415.000000 1.29114000e+10
1425.000000 1.27789000e+10
1435.000000 1.36768000e+10
1442.000000 1.39731000e+10
1447.000000 1.37483000e+10
1455.000000 1.30667000e+10
1465.000000 1.16849000e+10
1475.000000 1.24773000e+10
1485.000000 1.24028000e+10
1495.000000 1.20306000e+10
1505.000000 1.06280000e+10
1512.000000 9.40792000e+09
1517.000000 9.80929000e+09
1525.000000 1.01374000e+10
1535.000000 8.11905000e+09
1545.000000 7.42293000e+09
1555.000000 7.40005000e+09
1565.000000 8.42972000e+09
1575.000000 9.21661000e+09
1585.000000 9.48832000e+09
1595.000000 9.20179000e+09
1605.000000 9.52286000e+09
1615.000000 9.23023000e+09
1625.000000 9.11027000e+09
1635.000000 9.92661000e+09
1645.000000 1.00754000e+10
1655.000000 9.87919000e+09
1665.000000 1.01233000e+10
1672.000000 9.31560000e+09
1677.000000 1.09986000e+10
1685.000000 1.04161000e+10
1695.000000 9.67123000e+09
1705.000000 9.62447000e+09
1715.000000 8.82960000e+09
1725.000000 8.72968000e+09
1735.000000 9.22330000e+09
1745.000000 9.02708000e+09
1755.000000 9.07862000e+09
1765.000000 9.13736000e+09
1775.000000 8.28616000e+09
1785.000000 8.62030000e+09
1795.000000 8.89856000e+09
1805.000000 9.04745000e+09
1815.000000 7.80945000e+09
1825.000000 8.23005000e+09
1835.000000 8.02882000e+09
1845.000000 7.20484000e+09
1855.000000 7.47410000e+09
1865.000000 7.55295000e+09
1875.000000 7.94099000e+09
1885.000000 6.93274000e+09
1895.000000 6.43835000e+09
1905.000000 7.18584000e+09
1915.000000 6.58296000e+09
1925.000000 6.15150000e+09
1935.000000 6.77438000e+09
1945.000000 6.92020000e+09
1955.000000 6.03956000e+09
1967.000000 6.81213000e+09
1976.000000 7.10017000e+09
1984.000000 6.60066000e+09
1995.000000 6.47526000e+09
2005.000000 6.91622000e+09
2015.000000 6.80191000e+09
2025.000000 6.99893000e+09
2035.000000 6.25905000e+09
2045.000000 6.48156000e+09
2055.000000 6.00034000e+09
2065.000000 5.90464000e+09
2074.000000 6.41814000e+09
2078.000000 5.60808000e+09
2085.000000 6.18716000e+09
2095.000000 5.84198000e+09
2105.000000 6.10892000e+09
2115.000000 6.20717000e+09
2125.000000 6.22022000e+09
2135.000000 6.13597000e+09
2145.000000 5.74253000e+09
2155.000000 6.07769000e+09
2165.000000 6.07207000e+09
2175.000000 6.03173000e+09
2185.000000 5.73653000e+09
2195.000000 5.90652000e+09
2205.000000 5.93660000e+09
2215.000000 5.80802000e+09
2225.000000 5.64140000e+09
2235.000000 5.52813000e+09
2245.000000 5.60741000e+09
2255.000000 5.39665000e+09
2265.000000 5.50074000e+09
2275.000000 5.40918000e+09
2285.000000 5.40877000e+09
2295.000000 4.53182000e+09
2305.000000 5.17151000e+09
2315.000000 5.00877000e+09
2325.000000 4.98103000e+09
2335.000000 4.81595000e+09
2345.000000 4.89582000e+09
2355.000000 4.85045000e+09
2365.000000 4.81936000e+09
2375.000000 4.68769000e+09
2385.000000 4.64893000e+09
2395.000000 4.58825000e+09
2405.000000 4.51565000e+09
2415.000000 4.48860000e+09
2425.000000 4.47415000e+09
2435.000000 4.33175000e+09
2445.000000 4.36722000e+09
2455.000000 4.37872000e+09
2465.000000 4.27934000e+09
2475.000000 4.18954000e+09
2485.000000 4.00325000e+09
2495.000000 2.88504000e+09
2505.000000 3.77857000e+09
2513.000000 3.74661000e+09
2518.000000 3.92741000e+09
2525.000000 3.91494000e+09
2535.000000 3.89221000e+09
2545.000000 3.70830000e+09
2555.000000 3.78690000e+09
2565.000000 3.72565000e+09
2575.000000 3.75421000e+09
2585.000000 3.68339000e+09
2595.000000 3.65618000e+09
2605.000000 3.62827000e+09
2615.000000 3.55066000e+09
2625.000000 3.54208000e+09
2635.000000 3.51753000e+09
2645.000000 3.46050000e+09
2655.000000 3.45693000e+09
2665.000000 3.25138000e+09
2675.000000 3.29003000e+09
2685.000000 3.29530000e+09
2695.000000 3.14946000e+09
2705.000000 3.03087000e+09
2715.000000 3.06858000e+09
2725.000000 3.11292000e+09
2735.000000 3.07650000e+09
2745.000000 3.01008000e+09
2755.000000 2.99730000e+09
2765.000000 2.96684000e+09
2775.000000 3.00508000e+09
2785.000000 2.94419000e+09
2795.000000 2.82262000e+09
2805.000000 2.85855000e+09
2815.000000 2.87355000e+09
2825.000000 2.84748000e+09
2835.000000 2.71376000e+09
2845.000000 2.75034000e+09
2855.000000 2.68651000e+09
2865.000000 2.70202000e+09
2875.000000 2.67241000e+09
2885.000000 2.63989000e+09
2895.000000 2.58563000e+09
2910.000000 2.52955000e+09
2930.000000 2.52366000e+09
2950.000000 2.44094000e+09
2970.000000 2.40279000e+09
2990.000000 2.34648000e+09
3010.000000 2.23245000e+09
3030.000000 2.24177000e+09
3050.000000 2.21749000e+09
3070.000000 2.19301000e+09
3090.000000 2.08241000e+09
3110.000000 2.09606000e+09
3130.000000 2.03414000e+09
3150.000000 2.00972000e+09
3170.000000 1.94770000e+09
3190.000000 1.92154000e+09
3210.000000 1.89079000e+09
3230.000000 1.83694000e+09
3250.000000 1.81922000e+09
3270.000000 1.76913000e+09
3290.000000 1.73658000e+09
3310.000000 1.70300000e+09
3330.000000 1.66171000e+09
3350.000000 1.63663000e+09
3370.000000 1.59985000e+09
3390.000000 1.58240000e+09
3410.000000 1.55291000e+09
3430.000000 1.52243000e+09
3450.000000 1.48809000e+09
3470.000000 1.46084000e+09
3490.000000 1.42970000e+09
3510.000000 1.40428000e+09
3530.000000 1.39114000e+09
3550.000000 1.36265000e+09
3570.000000 1.33968000e+09
3590.000000 1.29770000e+09
3610.000000 1.27498000e+09
3630.000000 1.26060000e+09
3640.000000 1.25772000e+09
3650.000000 1.23494000e+09
3670.000000 1.22183000e+09
3690.000000 1.19113000e+09
3710.000000 1.14860000e+09
3730.000000 1.11836000e+09
3750.000000 1.17992000e+09
3770.000000 1.16497000e+09
3790.000000 1.19577000e+09
3810.000000 1.22789000e+09
3830.000000 1.10164000e+09
3850.000000 1.21219000e+09
3870.000000 1.17233000e+09
3890.000000 1.04967000e+09
3910.000000 1.17914000e+09
3930.000000 1.13207000e+09
3950.000000 1.11704000e+09
3970.000000 9.70358000e+08
3990.000000 1.08870000e+09
4010.000000 1.07623000e+09
4030.000000 1.03108000e+09
4050.000000 1.03256000e+09
4070.000000 9.78115000e+08
4090.000000 9.35039000e+08
4110.000000 8.65812000e+08
4130.000000 9.40912000e+08
4150.000000 9.33768000e+08
4170.000000 9.31896000e+08
4190.000000 9.22677000e+08
4210.000000 9.14697000e+08
4230.000000 8.92761000e+08
4250.000000 8.64022000e+08
4270.000000 8.41545000e+08
4290.000000 8.26348000e+08
4310.000000 7.95962000e+08
4330.000000 7.56557000e+08
4350.000000 7.11311000e+08
4370.000000 7.59795000e+08
4390.000000 7.69699000e+08
4410.000000 7.56341000e+08
4430.000000 7.51812000e+08
4450.000000 7.38334000e+08
4470.000000 7.18280000e+08
4490.000000 7.20641000e+08
4510.000000 7.11634000e+08
4530.000000 7.02573000e+08
4550.000000 6.94190000e+08
4570.000000 6.82085000e+08
4590.000000 6.69984000e+08
4610.000000 6.50818000e+08
4630.000000 6.41728000e+08
4650.000000 6.15329000e+08
4670.000000 6.23630000e+08
4690.000000 6.20549000e+08
4710.000000 5.96220000e+08
4730.000000 6.00062000e+08
4750.000000 5.89960000e+08
4770.000000 5.92789000e+08
4790.000000 5.81232000e+08
4810.000000 5.68576000e+08
4830.000000 5.59404000e+08
4850.000000 5.38768000e+08
4870.000000 4.90066000e+08
4890.000000 5.36812000e+08
4910.000000 5.30307000e+08
4930.000000 5.14977000e+08
4950.000000 5.11331000e+08
4970.000000 5.10625000e+08
4990.000000 5.01502000e+08
5010.000000 4.77544000e+08
5030.000000 4.84996000e+08
5050.000000 4.75061000e+08
5070.000000 4.73563000e+08
5090.000000 4.65123000e+08
5110.000000 4.56699000e+08
5130.000000 4.44713000e+08
5150.000000 4.41976000e+08
5170.000000 4.39197000e+08
5190.000000 4.34099000e+08
5210.000000 4.27039000e+08
5230.000000 4.21204000e+08
5250.000000 4.15773000e+08
5270.000000 4.08160000e+08
5290.000000 4.04810000e+08
5310.000000 3.98493000e+08
5330.000000 3.93890000e+08
5350.000000 3.88108000e+08
5370.000000 3.83602000e+08
5390.000000 3.77778000e+08
5410.000000 3.73613000e+08
5430.000000 3.68093000e+08
5450.000000 3.62885000e+08
5470.000000 3.58084000e+08
5490.000000 3.53217000e+08
5510.000000 3.50000000e+08
5530.000000 3.43617000e+08
5550.000000 3.41206000e+08
5570.000000 3.36101000e+08
5590.000000 3.32241000e+08
5610.000000 3.27722000e+08
5630.000000 3.23948000e+08
5650.000000 3.17646000e+08
5670.000000 3.11589000e+08
5690.000000 3.05737000e+08
5710.000000 3.05032000e+08
5730.000000 3.02011000e+08
5750.000000 2.96643000e+08
5770.000000 2.95598000e+08
5790.000000 2.91120000e+08
5810.000000 2.87691000e+08
5830.000000 2.82828000e+08
5850.000000 2.80204000e+08
5870.000000 2.70841000e+08
5890.000000 2.70351000e+08
5910.000000 2.68438000e+08
5930.000000 2.64445000e+08
5950.000000 2.61042000e+08
5970.000000 2.61009000e+08
5990.000000 2.55184000e+08
6010.000000 2.53874000e+08
6030.000000 2.49613000e+08
6050.000000 2.46957000e+08
6070.000000 2.45046000e+08
6090.000000 2.42281000e+08
6110.000000 2.39255000e+08
6130.000000 2.36754000e+08
6150.000000 2.32009000e+08
6170.000000 2.29735000e+08
6190.000000 2.27899000e+08
6210.000000 2.25779000e+08
6230.000000 2.23381000e+08
6250.000000 2.19716000e+08
6270.000000 2.17511000e+08
6290.000000 2.15416000e+08
6310.000000 2.12492000e+08
6330.000000 2.10634000e+08
6350.000000 2.07319000e+08
6370.000000 2.05769000e+08
6390.000000 2.03209000e+08
6410.000000 2.00981000e+08
6430.000000 1.98949000e+08
6450.000000 1.96540000e+08
6470.000000 1.93256000e+08
6490.000000 1.91164000e+08
6510.000000 1.89493000e+08
6530.000000 1.86903000e+08
6550.000000 1.82532000e+08
6570.000000 1.63775000e+08
6590.000000 1.79212000e+08
6610.000000 1.78906000e+08
6630.000000 1.77322000e+08
6650.000000 1.75184000e+08
6670.000000 1.72170000e+08
6690.000000 1.70385000e+08
6710.000000 1.69781000e+08
6730.000000 1.67118000e+08
6750.000000 1.66203000e+08
6770.000000 1.64442000e+08
6790.000000 1.60606000e+08
6810.000000 1.60412000e+08
6830.000000 1.58642000e+08
6850.000000 1.57315000e+08
6870.000000 1.55587000e+08
6890.000000 1.53574000e+08
6910.000000 1.51558000e+08
6930.000000 1.50708000e+08
6950.000000 1.49155000e+08
6970.000000 1.47603000e+08
6990.000000 1.45950000e+08
7010.000000 1.44382000e+08
7030.000000 1.42761000e+08
7050.000000 1.41346000e+08
7070.000000 1.37721000e+08
7090.000000 1.38339000e+08
7110.000000 1.34671000e+08
7130.000000 1.33553000e+08
7150.000000 1.34001000e+08
7170.000000 1.32800000e+08
7190.000000 1.31494000e+08
7210.000000 1.30135000e+08
7230.000000 1.26389000e+08
7250.000000 1.27025000e+08
7270.000000 1.26114000e+08
7290.000000 1.23884000e+08
7310.000000 1.23532000e+08
7330.000000 1.22150000e+08
7350.000000 1.21068000e+08
7370.000000 1.19899000e+08
7390.000000 1.18685000e+08
7410.000000 1.17496000e+08
7430.000000 1.16257000e+08
7450.000000 1.15111000e+08
7470.000000 1.13024000e+08
7490.000000 1.12656000e+08
7510.000000 1.11623000e+08
7530.000000 1.10353000e+08
7550.000000 1.09538000e+08
7570.000000 1.08460000e+08
7590.000000 1.07340000e+08
7610.000000 1.06041000e+08
7630.000000 1.05214000e+08
7650.000000 1.04208000e+08
7670.000000 1.03242000e+08
7690.000000 1.02203000e+08
7710.000000 1.01153000e+08
7730.000000 1.00101000e+08
7750.000000 9.93154000e+07
7770.000000 9.78688000e+07
7790.000000 9.74352000e+07
7810.000000 9.64427000e+07
7830.000000 9.55820000e+07
7850.000000 9.46370000e+07
7870.000000 9.35058000e+07
7890.000000 9.23425000e+07
7910.000000 9.17196000e+07
7930.000000 9.07603000e+07
7950.000000 8.99823000e+07
7970.000000 8.91873000e+07
7990.000000 8.83283000e+07
8010.000000 8.74885000e+07
8030.000000 8.66968000e+07
8050.000000 8.60282000e+07
8070.000000 8.52552000e+07
8090.000000 8.43967000e+07
8110.000000 8.29958000e+07
8130.000000 8.29528000e+07
8150.000000 8.21037000e+07
8170.000000 8.15160000e+07
8190.000000 8.01186000e+07
8210.000000 7.94269000e+07
8230.000000 7.83739000e+07
8250.000000 7.84040000e+07
8270.000000 7.66647000e+07
8290.000000 7.68379000e+07
8310.000000 7.62503000e+07
8330.000000 7.56185000e+07
8350.000000 7.45867000e+07
8370.000000 7.39780000e+07
8390.000000 7.35454000e+07
8410.000000 7.27433000e+07
8430.000000 7.21388000e+07
8450.000000 7.09166000e+07
8470.000000 7.06188000e+07
8490.000000 7.02342000e+07
8510.000000 6.89057000e+07
8530.000000 6.92561000e+07
8550.000000 6.69793000e+07
8570.000000 6.87855000e+07
8590.000000 6.59485000e+07
8610.000000 6.54646000e+07
8630.000000 6.75895000e+07
8650.000000 6.58726000e+07
8670.000000 6.13842000e+07
8690.000000 6.58762000e+07
8710.000000 6.58124000e+07
8730.000000 6.42754000e+07
8750.000000 5.85152000e+07
8770.000000 6.26667000e+07
8790.000000 6.37324000e+07
8810.000000 6.33463000e+07
8830.000000 6.25475000e+07
8850.000000 5.97928000e+07
8870.000000 5.55061000e+07
8890.000000 6.08242000e+07
8910.000000 6.06796000e+07
8930.000000 6.01577000e+07
8950.000000 5.98374000e+07
8970.000000 5.92712000e+07
8990.000000 5.80243000e+07
9010.000000 5.25741000e+07
9030.000000 5.51967000e+07
9050.000000 5.71425000e+07
9070.000000 5.63916000e+07
9090.000000 5.62075000e+07
9110.000000 5.59474000e+07
9130.000000 5.55127000e+07
9150.000000 5.50498000e+07
9170.000000 5.44605000e+07
9190.000000 5.39918000e+07
9210.000000 5.22697000e+07
9230.000000 4.67413000e+07
9250.000000 5.14047000e+07
9270.000000 5.18495000e+07
9290.000000 5.18971000e+07
9310.000000 5.12745000e+07
9330.000000 5.08386000e+07
9350.000000 5.06299000e+07
9370.000000 5.02424000e+07
9390.000000 4.98662000e+07
9410.000000 4.93694000e+07
9430.000000 4.90204000e+07
9450.000000 4.85938000e+07
9470.000000 4.80443000e+07
9490.000000 4.77834000e+07
9510.000000 4.69745000e+07
9530.000000 4.56534000e+07
9550.000000 4.12127000e+07
9570.000000 4.56592000e+07
9590.000000 4.59278000e+07
9610.000000 4.53860000e+07
9630.000000 4.49255000e+07
9650.000000 4.49660000e+07
9670.000000 4.45989000e+07
9690.000000 4.42064000e+07
9710.000000 4.35450000e+07
9730.000000 4.35253000e+07
9750.000000 4.31924000e+07
9770.000000 4.28934000e+07
9790.000000 4.25375000e+07
9810.000000 4.21293000e+07
9830.000000 4.18879000e+07
9850.000000 4.15277000e+07
9870.000000 4.11546000e+07
9890.000000 4.07264000e+07
9910.000000 4.02592000e+07
9930.000000 4.02882000e+07
9950.000000 3.99589000e+07
9970.000000 3.95979000e+07
9990.000000 3.93603000e+07
10025.000000 3.77177000e+07
10075.000000 3.64672000e+07
10125.000000 3.72225000e+07
10175.000000 3.67193000e+07
10225.000000 3.60217000e+07
10275.000000 3.53636000e+07
10325.000000 3.45972000e+07
10375.000000 3.40860000e+07
10425.000000 3.34656000e+07
10475.000000 3.28567000e+07
10525.000000 3.22314000e+07
10575.000000 3.16760000e+07
10625.000000 3.11076000e+07
10675.000000 3.05012000e+07
10725.000000 3.00128000e+07
10775.000000 2.94749000e+07
10825.000000 2.86294000e+07
10875.000000 2.84251000e+07
10925.000000 2.62006000e+07
10975.000000 2.71288000e+07
11025.000000 2.68467000e+07
11075.000000 2.65191000e+07
11125.000000 2.60636000e+07
11175.000000 2.56261000e+07
11225.000000 2.51809000e+07
11275.000000 2.47293000e+07
11325.000000 2.42653000e+07
11375.000000 2.39229000e+07
11425.000000 2.35030000e+07
11475.000000 2.31370000e+07
11525.000000 2.27605000e+07
11575.000000 2.23565000e+07
11625.000000 2.20004000e+07
11675.000000 2.16161000e+07
11725.000000 2.13023000e+07
11775.000000 2.09421000e+07
11825.000000 2.06070000e+07
11875.000000 2.02810000e+07
11925.000000 1.99577000e+07
11975.000000 1.94837000e+07
12025.000000 1.93215000e+07
12075.000000 1.90187000e+07
12125.000000 1.87115000e+07
12175.000000 1.84186000e+07
12225.000000 1.81298000e+07
12275.000000 1.78497000e+07
12325.000000 1.75628000e+07
12375.000000 1.72920000e+07
12425.000000 1.70321000e+07
12475.000000 1.67423000e+07
12525.000000 1.64564000e+07
12575.000000 1.62351000e+07
12625.000000 1.59937000e+07
12675.000000 1.57684000e+07
12725.000000 1.55321000e+07
12775.000000 1.50887000e+07
12825.000000 1.41502000e+07
12875.000000 1.48048000e+07
12925.000000 1.46199000e+07
12975.000000 1.43119000e+07
13025.000000 1.41749000e+07
13075.000000 1.39847000e+07
