# Kurucz ODFNEW /NOVER, alpha: 0.0 (2003)
# teff = 8750 K (value for the effective temperature for the model. Temperatures are given in K)
# logg = 3 log(cm/s2) (value for Log(G) for the model.)
# lh = 1.25  (l/Hp where l is the  mixing length of the convective element and Hp is the pressure scale height)
# meta = -2.5  (value for the Metallicity for the model.)
# vtur = 2 km/s (Microturbulence velocity)
# alpha = 0  (Alpha)
#
# column 1: WAVELENGTH (ANGSTROM), Wavelength in Angstrom
# column 2: FLUX (ERG/CM2/S/A), Flux in erg/cm2/s/A
273.500000 4.59349000e-23
278.500000 2.25953000e-22
284.000000 1.06051000e-21
290.000000 5.26615000e-21
296.000000 2.43965000e-20
301.000000 8.34950000e-20
308.000000 4.36004000e-19
318.000000 4.05847000e-18
328.000000 3.28388000e-17
338.000000 2.33799000e-16
348.000000 1.48235000e-15
357.000000 7.12525000e-15
366.000000 3.16585000e-14
375.000000 1.30503000e-13
385.000000 5.81062000e-13
395.000000 2.39127000e-12
405.000000 9.15520000e-12
414.000000 2.89433000e-11
422.000000 7.71191000e-11
430.000000 1.97853000e-10
441.000000 6.82034000e-10
451.000000 1.98847000e-09
460.000000 4.99825000e-09
470.000000 1.33312000e-08
480.000000 3.40610000e-08
490.000000 8.36587000e-08
500.000000 1.97828000e-07
506.000000 4.37062000e-07
512.000000 7.93859000e-07
520.000000 1.48546000e-06
530.000000 3.18725000e-06
540.000000 6.53540000e-06
550.000000 1.32036000e-05
560.000000 2.58113000e-05
570.000000 4.92102000e-05
580.000000 9.07723000e-05
590.000000 1.66763000e-04
600.000000 2.97198000e-04
610.000000 5.18988000e-04
620.000000 8.88970000e-04
630.000000 1.49515000e-03
640.000000 2.47137000e-03
650.000000 4.01767000e-03
658.000000 5.85937000e-03
665.000000 8.08662000e-03
675.000000 1.26531000e-02
685.000000 1.95211000e-02
695.000000 2.97133000e-02
705.000000 4.46519000e-02
716.000000 6.89062000e-02
726.000000 1.00966000e-01
735.000000 1.41026000e-01
745.000000 2.02352000e-01
755.000000 2.87339000e-01
765.000000 4.03982000e-01
775.000000 5.62549000e-01
785.000000 7.76171000e-01
795.000000 1.06148000e+00
805.000000 1.43942000e+00
815.000000 1.93615000e+00
825.000000 2.58398000e+00
835.000000 3.42254000e+00
845.000000 4.50049000e+00
855.000000 5.87595000e+00
865.000000 7.62043000e+00
875.000000 9.81748000e+00
885.000000 1.25685000e+01
895.000000 1.59924000e+01
905.000000 2.02292000e+01
915.000000 5.10450000e+01
925.000000 2.22046000e+02
935.000000 3.72944000e+02
945.000000 6.88809000e+02
955.000000 1.13111000e+03
965.000000 1.45396000e+03
975.000000 9.69777000e+02
985.000000 3.36035000e+03
995.000000 9.25589000e+03
1005.000000 5.80074000e+03
1015.000000 2.92077000e+03
1025.000000 1.86772000e+03
1035.000000 4.19731000e+03
1045.000000 1.34298000e+04
1055.000000 2.56055000e+05
1065.000000 1.26701000e+06
1075.000000 2.72565000e+06
1085.000000 3.97202000e+06
1095.000000 4.00412000e+06
1105.000000 6.77605000e+06
1115.000000 1.08744000e+07
1125.000000 9.56688000e+06
1135.000000 8.79574000e+06
1145.000000 5.76635000e+06
1155.000000 2.69340000e+06
1165.000000 7.98717000e+05
1175.000000 1.09202000e+05
1185.000000 4.05134000e+05
1195.000000 1.97313000e+04
1205.000000 1.42428000e+04
1215.000000 7.05112000e+03
1225.000000 1.60171000e+04
1235.000000 2.89187000e+04
1245.000000 2.90709000e+04
1255.000000 6.94008000e+04
1265.000000 4.22560000e+05
1275.000000 1.72789000e+06
1285.000000 5.40263000e+06
1295.000000 8.57928000e+06
1305.000000 1.18048000e+07
1315.000000 1.57191000e+07
1325.000000 1.99681000e+07
1335.000000 2.29708000e+07
1345.000000 2.69850000e+07
1355.000000 2.78850000e+07
1365.000000 2.97950000e+07
1375.000000 2.99012000e+07
1385.000000 2.88956000e+07
1395.000000 2.82931000e+07
1405.000000 3.46152000e+07
1415.000000 4.08937000e+07
1425.000000 4.28950000e+07
1435.000000 4.18400000e+07
1442.000000 4.54623000e+07
1447.000000 4.51073000e+07
1455.000000 4.65612000e+07
1465.000000 4.54643000e+07
1475.000000 4.65452000e+07
1485.000000 4.67814000e+07
1495.000000 4.75500000e+07
1505.000000 4.83522000e+07
1512.000000 4.83159000e+07
1517.000000 4.82451000e+07
1525.000000 4.79800000e+07
1535.000000 4.74097000e+07
1545.000000 4.78254000e+07
1555.000000 4.60281000e+07
1565.000000 4.24085000e+07
1575.000000 4.41528000e+07
1585.000000 4.49096000e+07
1595.000000 4.57639000e+07
1605.000000 4.40020000e+07
1615.000000 4.54954000e+07
1625.000000 4.44749000e+07
1635.000000 4.63072000e+07
1645.000000 4.75989000e+07
1655.000000 4.42086000e+07
1665.000000 4.85034000e+07
1672.000000 4.57910000e+07
1677.000000 4.66677000e+07
1685.000000 4.82213000e+07
1695.000000 4.67269000e+07
1705.000000 4.64059000e+07
1715.000000 4.75019000e+07
1725.000000 4.67768000e+07
1735.000000 4.78436000e+07
1745.000000 4.68650000e+07
1755.000000 4.76167000e+07
1765.000000 4.58682000e+07
1775.000000 4.71129000e+07
1785.000000 4.63997000e+07
1795.000000 4.71493000e+07
1805.000000 4.63438000e+07
1815.000000 4.59901000e+07
1825.000000 4.53031000e+07
1835.000000 4.53880000e+07
1845.000000 4.43373000e+07
1855.000000 4.48547000e+07
1865.000000 4.47876000e+07
1875.000000 4.48491000e+07
1885.000000 4.47297000e+07
1895.000000 4.46134000e+07
1905.000000 4.39812000e+07
1915.000000 4.39217000e+07
1925.000000 4.41182000e+07
1935.000000 4.32599000e+07
1945.000000 4.40799000e+07
1955.000000 4.38253000e+07
1967.000000 4.37041000e+07
1976.000000 4.30985000e+07
1984.000000 4.30110000e+07
1995.000000 4.28532000e+07
2005.000000 4.21485000e+07
2015.000000 4.13442000e+07
2025.000000 4.13393000e+07
2035.000000 4.18155000e+07
2045.000000 4.16120000e+07
2055.000000 4.06853000e+07
2065.000000 4.06800000e+07
2074.000000 4.13717000e+07
2078.000000 4.13565000e+07
2085.000000 4.11963000e+07
2095.000000 4.08821000e+07
2105.000000 4.08032000e+07
2115.000000 4.05353000e+07
2125.000000 4.02940000e+07
2135.000000 3.95042000e+07
2145.000000 4.01782000e+07
2155.000000 3.98143000e+07
2165.000000 3.89772000e+07
2175.000000 3.89724000e+07
2185.000000 3.90229000e+07
2195.000000 3.96893000e+07
2205.000000 3.88683000e+07
2215.000000 3.78440000e+07
2225.000000 3.77161000e+07
2235.000000 3.88968000e+07
2245.000000 3.81661000e+07
2255.000000 3.73179000e+07
2265.000000 3.69113000e+07
2275.000000 3.78809000e+07
2285.000000 3.79419000e+07
2295.000000 3.73302000e+07
2305.000000 3.74352000e+07
2315.000000 3.71526000e+07
2325.000000 3.72023000e+07
2335.000000 3.66536000e+07
2345.000000 3.51078000e+07
2355.000000 3.64766000e+07
2365.000000 3.52096000e+07
2375.000000 3.59763000e+07
2385.000000 3.41480000e+07
2395.000000 3.55711000e+07
2405.000000 3.52928000e+07
2415.000000 3.53286000e+07
2425.000000 3.60219000e+07
2435.000000 3.53803000e+07
2445.000000 3.56745000e+07
2455.000000 3.56801000e+07
2465.000000 3.49913000e+07
2475.000000 3.47767000e+07
2485.000000 3.51172000e+07
2495.000000 3.46408000e+07
2505.000000 3.54635000e+07
2513.000000 3.47691000e+07
2518.000000 3.48118000e+07
2525.000000 3.40435000e+07
2535.000000 3.37579000e+07
2545.000000 3.39055000e+07
2555.000000 3.47994000e+07
2565.000000 3.44502000e+07
2575.000000 3.49234000e+07
2585.000000 3.50377000e+07
2595.000000 3.47229000e+07
2605.000000 3.43280000e+07
2615.000000 3.41232000e+07
2625.000000 3.41415000e+07
2635.000000 3.43234000e+07
2645.000000 3.54908000e+07
2655.000000 3.53293000e+07
2665.000000 3.46716000e+07
2675.000000 3.48935000e+07
2685.000000 3.50997000e+07
2695.000000 3.47723000e+07
2705.000000 3.47757000e+07
2715.000000 3.42552000e+07
2725.000000 3.42483000e+07
2735.000000 3.45176000e+07
2745.000000 3.31601000e+07
2755.000000 3.32489000e+07
2765.000000 3.37933000e+07
2775.000000 3.44391000e+07
2785.000000 3.43054000e+07
2795.000000 3.25659000e+07
2805.000000 3.35594000e+07
2815.000000 3.44790000e+07
2825.000000 3.43420000e+07
2835.000000 3.39408000e+07
2845.000000 3.38395000e+07
2855.000000 3.34332000e+07
2865.000000 3.35899000e+07
2875.000000 3.36392000e+07
2885.000000 3.37526000e+07
2895.000000 3.38858000e+07
2910.000000 3.40031000e+07
2930.000000 3.35458000e+07
2950.000000 3.34033000e+07
2970.000000 3.34704000e+07
2990.000000 3.33250000e+07
3010.000000 3.34404000e+07
3030.000000 3.33627000e+07
3050.000000 3.32344000e+07
3070.000000 3.30354000e+07
3090.000000 3.30313000e+07
3110.000000 3.29027000e+07
3130.000000 3.27239000e+07
3150.000000 3.26430000e+07
3170.000000 3.25826000e+07
3190.000000 3.22490000e+07
3210.000000 3.23054000e+07
3230.000000 3.20860000e+07
3250.000000 3.21257000e+07
3270.000000 3.21028000e+07
3290.000000 3.20214000e+07
3310.000000 3.19330000e+07
3330.000000 3.17632000e+07
3350.000000 3.15489000e+07
3370.000000 3.14698000e+07
3390.000000 3.13946000e+07
3410.000000 3.13812000e+07
3430.000000 3.12626000e+07
3450.000000 3.11718000e+07
3470.000000 3.10497000e+07
3490.000000 3.09485000e+07
3510.000000 3.08598000e+07
3530.000000 3.07620000e+07
3550.000000 3.06525000e+07
3570.000000 3.05258000e+07
3590.000000 3.04176000e+07
3610.000000 3.03098000e+07
3630.000000 3.01998000e+07
3640.000000 3.01393000e+07
3650.000000 3.02967000e+07
3670.000000 2.99982000e+07
3690.000000 2.92063000e+07
3710.000000 3.36136000e+07
3730.000000 3.84801000e+07
3750.000000 5.41981000e+07
3770.000000 5.87350000e+07
3790.000000 7.26728000e+07
3810.000000 8.52722000e+07
3830.000000 6.72796000e+07
3850.000000 9.38513000e+07
3870.000000 1.04819000e+08
3890.000000 5.72659000e+07
3910.000000 1.03179000e+08
3930.000000 1.06895000e+08
3950.000000 1.01522000e+08
3970.000000 5.47685000e+07
3990.000000 9.65860000e+07
4010.000000 1.03722000e+08
4030.000000 1.03015000e+08
4050.000000 1.01658000e+08
4070.000000 9.86075000e+07
4090.000000 7.83272000e+07
4110.000000 5.91541000e+07
4130.000000 9.34574000e+07
4150.000000 9.51158000e+07
4170.000000 9.43811000e+07
4190.000000 9.33385000e+07
4210.000000 9.22816000e+07
4230.000000 9.10278000e+07
4250.000000 8.97518000e+07
4270.000000 8.84564000e+07
4290.000000 8.69417000e+07
4310.000000 8.39606000e+07
4330.000000 6.40699000e+07
4350.000000 5.40093000e+07
4370.000000 8.01775000e+07
4390.000000 8.14366000e+07
4410.000000 8.09282000e+07
4430.000000 8.01608000e+07
4450.000000 7.92687000e+07
4470.000000 7.82065000e+07
4490.000000 7.71936000e+07
4510.000000 7.63698000e+07
4530.000000 7.54362000e+07
4550.000000 7.44651000e+07
4570.000000 7.36326000e+07
4590.000000 7.27312000e+07
4610.000000 7.18995000e+07
4630.000000 7.10090000e+07
4650.000000 7.01904000e+07
4670.000000 6.93538000e+07
4690.000000 6.85221000e+07
4710.000000 6.76527000e+07
4730.000000 6.69252000e+07
4750.000000 6.61407000e+07
4770.000000 6.52296000e+07
4790.000000 6.43297000e+07
4810.000000 6.32358000e+07
4830.000000 6.10805000e+07
4850.000000 4.87342000e+07
4870.000000 3.91059000e+07
4890.000000 5.79917000e+07
4910.000000 5.95314000e+07
4930.000000 5.92446000e+07
4950.000000 5.87592000e+07
4970.000000 5.82460000e+07
4990.000000 5.75894000e+07
5010.000000 5.69129000e+07
5030.000000 5.63079000e+07
5050.000000 5.56751000e+07
5070.000000 5.50653000e+07
5090.000000 5.44560000e+07
5110.000000 5.38546000e+07
5130.000000 5.32608000e+07
5150.000000 5.26761000e+07
5170.000000 5.20297000e+07
5190.000000 5.15008000e+07
5210.000000 5.09729000e+07
5230.000000 5.04075000e+07
5250.000000 4.98807000e+07
5270.000000 4.93278000e+07
5290.000000 4.88128000e+07
5310.000000 4.82828000e+07
5330.000000 4.77740000e+07
5350.000000 4.72726000e+07
5370.000000 4.67670000e+07
5390.000000 4.62754000e+07
5410.000000 4.57871000e+07
5430.000000 4.53073000e+07
5450.000000 4.48359000e+07
5470.000000 4.43689000e+07
5490.000000 4.39087000e+07
5510.000000 4.34540000e+07
5530.000000 4.30023000e+07
5550.000000 4.25621000e+07
5570.000000 4.21246000e+07
5590.000000 4.16923000e+07
5610.000000 4.12675000e+07
5630.000000 4.08476000e+07
5650.000000 4.04327000e+07
5670.000000 4.00237000e+07
5690.000000 3.96207000e+07
5710.000000 3.92212000e+07
5730.000000 3.88285000e+07
5750.000000 3.84404000e+07
5770.000000 3.80567000e+07
5790.000000 3.76784000e+07
5810.000000 3.73045000e+07
5830.000000 3.69360000e+07
5850.000000 3.65727000e+07
5870.000000 3.61949000e+07
5890.000000 3.58496000e+07
5910.000000 3.55070000e+07
5930.000000 3.51619000e+07
5950.000000 3.48195000e+07
5970.000000 3.44819000e+07
5990.000000 3.41481000e+07
6010.000000 3.38190000e+07
6030.000000 3.34945000e+07
6050.000000 3.31736000e+07
6070.000000 3.28572000e+07
6090.000000 3.25442000e+07
6110.000000 3.22356000e+07
6130.000000 3.19304000e+07
6150.000000 3.16264000e+07
6170.000000 3.13307000e+07
6190.000000 3.10361000e+07
6210.000000 3.07457000e+07
6230.000000 3.04584000e+07
6250.000000 3.01721000e+07
6270.000000 2.98937000e+07
6290.000000 2.96172000e+07
6310.000000 2.93427000e+07
6330.000000 2.90720000e+07
6350.000000 2.88004000e+07
6370.000000 2.85373000e+07
6390.000000 2.82786000e+07
6410.000000 2.80190000e+07
6430.000000 2.77648000e+07
6450.000000 2.75068000e+07
6470.000000 2.71985000e+07
6490.000000 2.69032000e+07
6510.000000 2.65390000e+07
6530.000000 2.58669000e+07
6550.000000 2.27772000e+07
6570.000000 1.82208000e+07
6590.000000 2.45722000e+07
6610.000000 2.52635000e+07
6630.000000 2.52313000e+07
6650.000000 2.50730000e+07
6670.000000 2.49076000e+07
6690.000000 2.47017000e+07
6710.000000 2.44869000e+07
6730.000000 2.42725000e+07
6750.000000 2.40602000e+07
6770.000000 2.38501000e+07
6790.000000 2.36428000e+07
6810.000000 2.34375000e+07
6830.000000 2.32342000e+07
6850.000000 2.30329000e+07
6870.000000 2.28343000e+07
6890.000000 2.26377000e+07
6910.000000 2.24437000e+07
6930.000000 2.22516000e+07
6950.000000 2.20613000e+07
6970.000000 2.18736000e+07
6990.000000 2.16877000e+07
7010.000000 2.15044000e+07
7030.000000 2.13219000e+07
7050.000000 2.11420000e+07
7070.000000 2.09638000e+07
7090.000000 2.07880000e+07
7110.000000 2.06123000e+07
7130.000000 2.04413000e+07
7150.000000 2.02711000e+07
7170.000000 2.01017000e+07
7190.000000 1.99346000e+07
7210.000000 1.97698000e+07
7230.000000 1.96059000e+07
7250.000000 1.94441000e+07
7270.000000 1.92845000e+07
7290.000000 1.91257000e+07
7310.000000 1.89690000e+07
7330.000000 1.88137000e+07
7350.000000 1.86606000e+07
7370.000000 1.85081000e+07
7390.000000 1.83577000e+07
7410.000000 1.82093000e+07
7430.000000 1.80616000e+07
7450.000000 1.79159000e+07
7470.000000 1.77715000e+07
7490.000000 1.76284000e+07
7510.000000 1.74872000e+07
7530.000000 1.73472000e+07
7550.000000 1.72092000e+07
7570.000000 1.70717000e+07
7590.000000 1.69361000e+07
7610.000000 1.68016000e+07
7630.000000 1.66690000e+07
7650.000000 1.65375000e+07
7670.000000 1.64072000e+07
7690.000000 1.62780000e+07
7710.000000 1.61500000e+07
7730.000000 1.60236000e+07
7750.000000 1.58984000e+07
7770.000000 1.57536000e+07
7790.000000 1.56517000e+07
7810.000000 1.55303000e+07
7830.000000 1.54099000e+07
7850.000000 1.52905000e+07
7870.000000 1.51715000e+07
7890.000000 1.50541000e+07
7910.000000 1.49396000e+07
7930.000000 1.48254000e+07
7950.000000 1.47115000e+07
7970.000000 1.45992000e+07
7990.000000 1.44867000e+07
8010.000000 1.43775000e+07
8030.000000 1.42685000e+07
8050.000000 1.41605000e+07
8070.000000 1.40534000e+07
8090.000000 1.39472000e+07
8110.000000 1.38424000e+07
8130.000000 1.37379000e+07
8150.000000 1.36348000e+07
8170.000000 1.35326000e+07
8190.000000 1.34306000e+07
8210.000000 1.33792000e+07
8230.000000 1.32876000e+07
8250.000000 1.31983000e+07
8270.000000 1.31114000e+07
8290.000000 1.30219000e+07
8310.000000 1.29277000e+07
8330.000000 1.28228000e+07
8350.000000 1.27166000e+07
8370.000000 1.25704000e+07
8390.000000 1.24463000e+07
8410.000000 1.22945000e+07
8430.000000 1.22728000e+07
8450.000000 1.22222000e+07
8470.000000 1.16830000e+07
8490.000000 1.23388000e+07
8510.000000 1.13476000e+07
8530.000000 1.24331000e+07
8550.000000 1.07717000e+07
8570.000000 1.26209000e+07
8590.000000 1.15222000e+07
8610.000000 1.11461000e+07
8630.000000 1.28507000e+07
8650.000000 1.23045000e+07
8670.000000 9.92181000e+06
8690.000000 1.26853000e+07
8710.000000 1.31113000e+07
8730.000000 1.25758000e+07
8750.000000 9.60392000e+06
8770.000000 1.19025000e+07
8790.000000 1.29274000e+07
8810.000000 1.29882000e+07
8830.000000 1.27018000e+07
8850.000000 1.13010000e+07
8870.000000 9.34056000e+06
8890.000000 1.20447000e+07
8910.000000 1.25160000e+07
8930.000000 1.25337000e+07
8950.000000 1.24491000e+07
8970.000000 1.22667000e+07
8990.000000 1.17382000e+07
9010.000000 9.21914000e+06
9030.000000 1.02017000e+07
9050.000000 1.16819000e+07
9070.000000 1.18732000e+07
9090.000000 1.18488000e+07
9110.000000 1.17991000e+07
9130.000000 1.17199000e+07
9150.000000 1.16219000e+07
9170.000000 1.14947000e+07
9190.000000 1.12658000e+07
9210.000000 1.05201000e+07
9230.000000 8.09240000e+06
9250.000000 1.01343000e+07
9270.000000 1.08995000e+07
9290.000000 1.10045000e+07
9310.000000 1.09773000e+07
9330.000000 1.09190000e+07
9350.000000 1.08603000e+07
9370.000000 1.07942000e+07
9390.000000 1.07167000e+07
9410.000000 1.06295000e+07
9430.000000 1.05514000e+07
9450.000000 1.04625000e+07
9470.000000 1.03688000e+07
9490.000000 1.02456000e+07
9510.000000 1.00097000e+07
9530.000000 9.19622000e+06
9550.000000 7.30472000e+06
9570.000000 9.26348000e+06
9590.000000 9.77542000e+06
9610.000000 9.83717000e+06
9630.000000 9.80854000e+06
9650.000000 9.76064000e+06
9670.000000 9.71144000e+06
9690.000000 9.64933000e+06
9710.000000 9.58325000e+06
9730.000000 9.51763000e+06
9750.000000 9.45207000e+06
9770.000000 9.38776000e+06
9790.000000 9.32350000e+06
9810.000000 9.26007000e+06
9830.000000 9.19670000e+06
9850.000000 9.13415000e+06
9870.000000 9.07242000e+06
9890.000000 9.00958000e+06
9910.000000 8.94985000e+06
9930.000000 8.88594000e+06
9950.000000 8.80687000e+06
9970.000000 8.73140000e+06
9990.000000 8.63457000e+06
10025.000000 7.89740000e+06
10075.000000 7.50225000e+06
10125.000000 8.27061000e+06
10175.000000 8.18298000e+06
10225.000000 8.05558000e+06
10275.000000 7.92421000e+06
10325.000000 7.79570000e+06
10375.000000 7.66929000e+06
10425.000000 7.54598000e+06
10475.000000 7.42433000e+06
10525.000000 7.30601000e+06
10575.000000 7.18959000e+06
10625.000000 7.07569000e+06
10675.000000 6.95667000e+06
10725.000000 6.85266000e+06
10775.000000 6.74637000e+06
10825.000000 6.62600000e+06
10875.000000 6.46679000e+06
10925.000000 5.51890000e+06
10975.000000 5.99918000e+06
11025.000000 6.20523000e+06
11075.000000 6.14012000e+06
11125.000000 6.05157000e+06
11175.000000 5.95982000e+06
11225.000000 5.86948000e+06
11275.000000 5.78019000e+06
11325.000000 5.69343000e+06
11375.000000 5.60913000e+06
11425.000000 5.52551000e+06
11475.000000 5.44370000e+06
11525.000000 5.36310000e+06
11575.000000 5.28397000e+06
11625.000000 5.20628000e+06
11675.000000 5.12944000e+06
11725.000000 5.05565000e+06
11775.000000 4.97965000e+06
11825.000000 4.90934000e+06
11875.000000 4.83870000e+06
11925.000000 4.76986000e+06
11975.000000 4.70095000e+06
12025.000000 4.63433000e+06
12075.000000 4.56864000e+06
12125.000000 4.50387000e+06
12175.000000 4.44027000e+06
12225.000000 4.37781000e+06
12275.000000 4.31646000e+06
12325.000000 4.25622000e+06
12375.000000 4.19704000e+06
12425.000000 4.13869000e+06
12475.000000 4.08161000e+06
12525.000000 4.02532000e+06
12575.000000 3.96978000e+06
12625.000000 3.91547000e+06
12675.000000 3.86002000e+06
12725.000000 3.79276000e+06
12775.000000 3.65994000e+06
12825.000000 3.16834000e+06
12875.000000 3.58876000e+06
12925.000000 3.59555000e+06
12975.000000 3.56029000e+06
13025.000000 3.51302000e+06
13075.000000 3.46637000e+06
13125.000000 3.42055000e+06
13175.000000 3.37553000e+06
13225.000000 3.33110000e+06
13275.000000 3.28746000e+06
13325.000000 3.24459000e+06
13375.000000 3.20226000e+06
13425.000000 3.16069000e+06
13475.000000 3.11985000e+06
13525.000000 3.07973000e+06
13575.000000 3.04012000e+06
13625.000000 3.00120000e+06
13675.000000 2.96278000e+06
13725.000000 2.92483000e+06
13775.000000 2.88795000e+06
13825.000000 2.85133000e+06
13875.000000 2.81536000e+06
13925.000000 2.78002000e+06
13975.000000 2.74512000e+06
14025.000000 2.71083000e+06
14075.000000 2.67716000e+06
14125.000000 2.64389000e+06
14175.000000 2.61102000e+06
14225.000000 2.57873000e+06
14275.000000 2.54702000e+06
14325.000000 2.51587000e+06
14375.000000 2.48509000e+06
14425.000000 2.45431000e+06
14475.000000 2.42480000e+06
14525.000000 2.39510000e+06
