# Kurucz ODFNEW /NOVER, alpha: 0.0 (2003)
# teff = 26000 K (value for the effective temperature for the model. Temperatures are given in K)
# logg = 3.5 log(cm/s2) (value for Log(G) for the model.)
# lh = 1.25  (l/Hp where l is the  mixing length of the convective element and Hp is the pressure scale height)
# meta = -2.5  (value for the Metallicity for the model.)
# vtur = 2 km/s (Microturbulence velocity)
# alpha = 0  (Alpha)
#
# column 1: WAVELENGTH (ANGSTROM), Wavelength in Angstrom
# column 2: FLUX (ERG/CM2/S/A), Flux in erg/cm2/s/A
147.200000 2.59529000e-12
151.000000 1.14337000e-11
155.200000 5.39936000e-11
158.800000 1.90909000e-10
162.000000 5.59309000e-10
166.000000 2.02159000e-09
170.300000 7.48352000e-09
173.400000 1.84809000e-08
176.800000 4.79519000e-08
180.200000 1.19764000e-07
181.700000 1.77291000e-07
186.100000 5.40513000e-07
191.000000 1.75844000e-06
193.900000 3.42669000e-06
198.400000 9.27607000e-06
201.800000 1.91245000e-05
205.000000 3.69199000e-05
210.500000 1.08623000e-04
216.200000 3.13941000e-04
219.800000 5.95217000e-04
223.000000 1.03127000e-03
226.800000 1.93901000e-03
230.000000 3.64801000e-02
234.000000 8.60569000e-02
240.000000 1.93826000e-01
246.500000 4.50223000e-01
252.400000 9.35293000e-01
256.800000 1.41200000e+00
260.000000 2.22449000e+00
264.000000 3.42525000e+00
268.500000 5.49896000e+00
273.500000 9.10973000e+00
278.500000 1.48205000e+01
284.000000 2.48020000e+01
290.000000 4.23859000e+01
296.000000 7.05680000e+01
301.000000 1.04360000e+02
308.000000 1.69541000e+02
318.000000 3.89083000e+02
328.000000 7.76752000e+02
338.000000 1.49048000e+03
348.000000 2.74023000e+03
357.000000 4.59321000e+03
366.000000 7.51288000e+03
375.000000 1.18772000e+04
385.000000 1.93736000e+04
395.000000 3.06188000e+04
405.000000 4.72241000e+04
414.000000 6.84767000e+04
422.000000 9.35731000e+04
430.000000 1.26095000e+05
441.000000 1.87436000e+05
451.000000 2.63450000e+05
460.000000 3.51857000e+05
470.000000 4.79703000e+05
480.000000 6.43138000e+05
490.000000 8.51195000e+05
500.000000 1.11206000e+06
506.000000 8.06500000e+06
512.000000 2.24519000e+07
520.000000 2.50823000e+07
530.000000 3.04294000e+07
540.000000 3.13089000e+07
550.000000 3.95971000e+07
560.000000 4.40927000e+07
570.000000 5.00230000e+07
580.000000 4.95336000e+07
590.000000 6.02150000e+07
600.000000 6.78615000e+07
610.000000 7.56557000e+07
620.000000 8.26756000e+07
630.000000 9.13756000e+07
640.000000 9.81925000e+07
650.000000 1.08623000e+08
658.000000 1.16718000e+08
665.000000 1.23474000e+08
675.000000 1.31468000e+08
685.000000 1.40303000e+08
695.000000 1.56557000e+08
705.000000 1.65684000e+08
716.000000 1.80650000e+08
726.000000 1.92769000e+08
735.000000 2.06139000e+08
745.000000 2.20849000e+08
755.000000 2.35109000e+08
765.000000 2.49228000e+08
775.000000 2.65657000e+08
785.000000 2.82047000e+08
795.000000 2.97014000e+08
805.000000 3.13819000e+08
815.000000 3.29317000e+08
825.000000 3.47751000e+08
835.000000 3.55876000e+08
845.000000 3.81058000e+08
855.000000 3.98129000e+08
865.000000 4.17581000e+08
875.000000 4.37840000e+08
885.000000 4.57068000e+08
895.000000 4.75906000e+08
905.000000 4.91619000e+08
915.000000 8.93693000e+08
925.000000 9.30789000e+09
935.000000 1.81551000e+10
945.000000 3.04864000e+10
955.000000 3.34607000e+10
965.000000 3.85862000e+10
975.000000 2.29638000e+10
985.000000 3.73050000e+10
995.000000 3.54923000e+10
1005.000000 3.65653000e+10
1015.000000 3.49594000e+10
1025.000000 2.23099000e+10
1035.000000 3.32673000e+10
1045.000000 3.51951000e+10
1055.000000 3.44464000e+10
1065.000000 3.24076000e+10
1075.000000 3.26355000e+10
1085.000000 3.07550000e+10
1095.000000 3.19412000e+10
1105.000000 3.08628000e+10
1115.000000 3.03299000e+10
1125.000000 2.88444000e+10
1135.000000 2.94312000e+10
1145.000000 2.85499000e+10
1155.000000 2.84151000e+10
1165.000000 2.79655000e+10
1175.000000 2.48420000e+10
1185.000000 2.67231000e+10
1195.000000 2.58432000e+10
1205.000000 2.43531000e+10
1215.000000 1.51692000e+10
1225.000000 2.42091000e+10
1235.000000 2.44356000e+10
1245.000000 2.38031000e+10
1255.000000 2.36369000e+10
1265.000000 2.31816000e+10
1275.000000 2.28277000e+10
1285.000000 2.24072000e+10
1295.000000 2.12866000e+10
1305.000000 2.11983000e+10
1315.000000 2.11906000e+10
1325.000000 2.06396000e+10
1335.000000 2.00100000e+10
1345.000000 2.00066000e+10
1355.000000 1.97027000e+10
1365.000000 1.93011000e+10
1375.000000 1.89546000e+10
1385.000000 1.86324000e+10
1395.000000 1.78212000e+10
1405.000000 1.76137000e+10
1415.000000 1.75959000e+10
1425.000000 1.72706000e+10
1435.000000 1.70238000e+10
1442.000000 1.68462000e+10
1447.000000 1.66852000e+10
1455.000000 1.64380000e+10
1465.000000 1.61422000e+10
1475.000000 1.58583000e+10
1485.000000 1.55902000e+10
1495.000000 1.53057000e+10
1505.000000 1.49903000e+10
1512.000000 1.48133000e+10
1517.000000 1.46960000e+10
1525.000000 1.44742000e+10
1535.000000 1.40377000e+10
1545.000000 1.37332000e+10
1555.000000 1.34674000e+10
1565.000000 1.34332000e+10
1575.000000 1.32770000e+10
1585.000000 1.30732000e+10
1595.000000 1.28609000e+10
1605.000000 1.25080000e+10
1615.000000 1.22954000e+10
1625.000000 1.21486000e+10
1635.000000 1.19427000e+10
1645.000000 1.14844000e+10
1655.000000 1.16206000e+10
1665.000000 1.14393000e+10
1672.000000 1.12890000e+10
1677.000000 1.12739000e+10
1685.000000 1.11087000e+10
1695.000000 1.09096000e+10
1705.000000 1.07119000e+10
1715.000000 1.04847000e+10
1725.000000 1.03397000e+10
1735.000000 1.02242000e+10
1745.000000 1.00506000e+10
1755.000000 9.90546000e+09
1765.000000 9.69280000e+09
1775.000000 9.57062000e+09
1785.000000 9.45127000e+09
1795.000000 9.30837000e+09
1805.000000 9.18123000e+09
1815.000000 9.01447000e+09
1825.000000 8.88032000e+09
1835.000000 8.74934000e+09
1845.000000 8.53667000e+09
1855.000000 8.31689000e+09
1865.000000 8.24018000e+09
1875.000000 8.20213000e+09
1885.000000 7.97496000e+09
1895.000000 7.77876000e+09
1905.000000 7.79572000e+09
1915.000000 7.57902000e+09
1925.000000 7.45758000e+09
1935.000000 7.41360000e+09
1945.000000 7.35887000e+09
1955.000000 7.12804000e+09
1967.000000 7.11943000e+09
1976.000000 7.06717000e+09
1984.000000 6.92377000e+09
1995.000000 6.73868000e+09
2005.000000 6.75110000e+09
2015.000000 6.68064000e+09
2025.000000 6.59911000e+09
2035.000000 6.47656000e+09
2045.000000 6.38238000e+09
2055.000000 6.08009000e+09
2065.000000 5.95968000e+09
2074.000000 5.99977000e+09
2078.000000 5.91239000e+09
2085.000000 5.96678000e+09
2095.000000 5.90094000e+09
2105.000000 5.87145000e+09
2115.000000 5.80941000e+09
2125.000000 5.73742000e+09
2135.000000 5.65422000e+09
2145.000000 5.56764000e+09
2155.000000 5.50368000e+09
2165.000000 5.42361000e+09
2175.000000 5.35514000e+09
2185.000000 5.27665000e+09
2195.000000 5.21531000e+09
2205.000000 5.14432000e+09
2215.000000 5.06749000e+09
2225.000000 5.00591000e+09
2235.000000 4.93723000e+09
2245.000000 4.87436000e+09
2255.000000 4.80048000e+09
2265.000000 4.74585000e+09
2275.000000 4.68340000e+09
2285.000000 4.62222000e+09
2295.000000 4.51415000e+09
2305.000000 4.49457000e+09
2315.000000 4.44162000e+09
2325.000000 4.38412000e+09
2335.000000 4.32613000e+09
2345.000000 4.27232000e+09
2355.000000 4.21777000e+09
2365.000000 4.16373000e+09
2375.000000 4.10984000e+09
2385.000000 4.05140000e+09
2395.000000 4.00582000e+09
2405.000000 3.95558000e+09
2415.000000 3.90493000e+09
2425.000000 3.85684000e+09
2435.000000 3.80769000e+09
2445.000000 3.76060000e+09
2455.000000 3.71415000e+09
2465.000000 3.66802000e+09
2475.000000 3.62244000e+09
2485.000000 3.57773000e+09
2495.000000 3.47068000e+09
2505.000000 3.49003000e+09
2513.000000 3.43879000e+09
2518.000000 3.43394000e+09
2525.000000 3.40577000e+09
2535.000000 3.36453000e+09
2545.000000 3.31977000e+09
2555.000000 3.28275000e+09
2565.000000 3.24421000e+09
2575.000000 3.20553000e+09
2585.000000 3.16731000e+09
2595.000000 3.12963000e+09
2605.000000 3.11025000e+09
2615.000000 3.07329000e+09
2625.000000 3.03527000e+09
2635.000000 2.99410000e+09
2645.000000 2.95949000e+09
2655.000000 2.92195000e+09
2665.000000 2.88511000e+09
2675.000000 2.84963000e+09
2685.000000 2.83006000e+09
2695.000000 2.78078000e+09
2705.000000 2.76468000e+09
2715.000000 2.73285000e+09
2725.000000 2.68437000e+09
2735.000000 2.66704000e+09
2745.000000 2.63975000e+09
2755.000000 2.60995000e+09
2765.000000 2.56208000e+09
2775.000000 2.55133000e+09
2785.000000 2.52240000e+09
2795.000000 2.48943000e+09
2805.000000 2.46501000e+09
2815.000000 2.43859000e+09
2825.000000 2.39153000e+09
2835.000000 2.37661000e+09
2845.000000 2.35821000e+09
2855.000000 2.33201000e+09
2865.000000 2.30635000e+09
2875.000000 2.28108000e+09
2885.000000 2.25611000e+09
2895.000000 2.23142000e+09
2910.000000 2.19500000e+09
2930.000000 2.14771000e+09
2950.000000 2.08955000e+09
2970.000000 2.05694000e+09
2990.000000 2.01329000e+09
3010.000000 1.97070000e+09
3030.000000 1.92971000e+09
3050.000000 1.88954000e+09
3070.000000 1.85037000e+09
3090.000000 1.81154000e+09
3110.000000 1.77503000e+09
3130.000000 1.74043000e+09
3150.000000 1.70503000e+09
3170.000000 1.66990000e+09
3190.000000 1.62444000e+09
3210.000000 1.60273000e+09
3230.000000 1.57139000e+09
3250.000000 1.54005000e+09
3270.000000 1.51130000e+09
3290.000000 1.47983000e+09
3310.000000 1.45295000e+09
3330.000000 1.42482000e+09
3350.000000 1.39496000e+09
3370.000000 1.37059000e+09
3390.000000 1.34447000e+09
3410.000000 1.31896000e+09
3430.000000 1.28851000e+09
3450.000000 1.26007000e+09
3470.000000 1.24011000e+09
3490.000000 1.21709000e+09
3510.000000 1.19981000e+09
3530.000000 1.17854000e+09
3550.000000 1.15732000e+09
3570.000000 1.14102000e+09
3590.000000 1.11469000e+09
3610.000000 1.09604000e+09
3630.000000 1.07462000e+09
3640.000000 1.07122000e+09
3650.000000 1.05889000e+09
3670.000000 1.04380000e+09
3690.000000 1.01552000e+09
3710.000000 9.88182000e+08
3730.000000 9.62558000e+08
3750.000000 1.02703000e+09
3770.000000 1.02539000e+09
3790.000000 1.05273000e+09
3810.000000 1.08591000e+09
3830.000000 9.70299000e+08
3850.000000 1.09086000e+09
3870.000000 1.07906000e+09
3890.000000 9.25386000e+08
3910.000000 1.05446000e+09
3930.000000 1.03353000e+09
3950.000000 1.01862000e+09
3970.000000 8.57656000e+08
3990.000000 9.81170000e+08
4010.000000 9.65387000e+08
4030.000000 9.24652000e+08
4050.000000 9.38855000e+08
4070.000000 9.21327000e+08
4090.000000 8.78309000e+08
4110.000000 7.85503000e+08
4130.000000 8.67982000e+08
4150.000000 8.55502000e+08
4170.000000 8.45669000e+08
4190.000000 8.33281000e+08
4210.000000 8.19324000e+08
4230.000000 8.05994000e+08
4250.000000 7.92607000e+08
4270.000000 7.79208000e+08
4290.000000 7.66863000e+08
4310.000000 7.53171000e+08
4330.000000 7.09298000e+08
4350.000000 6.53635000e+08
4370.000000 7.16770000e+08
4390.000000 6.94909000e+08
4410.000000 6.95516000e+08
4430.000000 6.82340000e+08
4450.000000 6.73823000e+08
4470.000000 6.44597000e+08
4490.000000 6.52751000e+08
4510.000000 6.42622000e+08
4530.000000 6.32591000e+08
4550.000000 6.22511000e+08
4570.000000 6.13052000e+08
4590.000000 6.03626000e+08
4610.000000 5.94411000e+08
4630.000000 5.85333000e+08
4650.000000 5.75901000e+08
4670.000000 5.67610000e+08
4690.000000 5.57932000e+08
4710.000000 5.45036000e+08
4730.000000 5.42390000e+08
4750.000000 5.34242000e+08
4770.000000 5.26394000e+08
4790.000000 5.18575000e+08
4810.000000 5.10869000e+08
4830.000000 5.02496000e+08
4850.000000 4.78613000e+08
4870.000000 4.34169000e+08
4890.000000 4.80079000e+08
4910.000000 4.74520000e+08
4930.000000 4.59998000e+08
4950.000000 4.60978000e+08
4970.000000 4.54408000e+08
4990.000000 4.47898000e+08
5010.000000 4.37200000e+08
5030.000000 4.35234000e+08
5050.000000 4.27022000e+08
5070.000000 4.23029000e+08
5090.000000 4.17079000e+08
5110.000000 4.11238000e+08
5130.000000 4.05490000e+08
5150.000000 3.99847000e+08
5170.000000 3.94307000e+08
5190.000000 3.88868000e+08
5210.000000 3.83501000e+08
5230.000000 3.78246000e+08
5250.000000 3.73073000e+08
5270.000000 3.67995000e+08
5290.000000 3.62997000e+08
5310.000000 3.58076000e+08
5330.000000 3.53246000e+08
5350.000000 3.48504000e+08
5370.000000 3.43835000e+08
5390.000000 3.39239000e+08
5410.000000 3.34638000e+08
5430.000000 3.30286000e+08
5450.000000 3.25926000e+08
5470.000000 3.21633000e+08
5490.000000 3.17407000e+08
5510.000000 3.13258000e+08
5530.000000 3.09160000e+08
5550.000000 3.05151000e+08
5570.000000 3.01190000e+08
5590.000000 2.97303000e+08
5610.000000 2.93475000e+08
5630.000000 2.89706000e+08
5650.000000 2.85995000e+08
5670.000000 2.82340000e+08
5690.000000 2.78730000e+08
5710.000000 2.75232000e+08
5730.000000 2.71754000e+08
5750.000000 2.68317000e+08
5770.000000 2.64955000e+08
5790.000000 2.61644000e+08
5810.000000 2.58373000e+08
5830.000000 2.55162000e+08
5850.000000 2.52001000e+08
5870.000000 2.42873000e+08
5890.000000 2.45712000e+08
5910.000000 2.42800000e+08
5930.000000 2.39815000e+08
5950.000000 2.36886000e+08
5970.000000 2.34012000e+08
5990.000000 2.31171000e+08
6010.000000 2.28373000e+08
6030.000000 2.25618000e+08
6050.000000 2.22904000e+08
6070.000000 2.20231000e+08
6090.000000 2.17598000e+08
6110.000000 2.15005000e+08
6130.000000 2.12452000e+08
6150.000000 2.09937000e+08
6170.000000 2.07460000e+08
6190.000000 2.05020000e+08
6210.000000 2.02607000e+08
6230.000000 2.00241000e+08
6250.000000 1.97900000e+08
6270.000000 1.95595000e+08
6290.000000 1.93325000e+08
6310.000000 1.91089000e+08
6330.000000 1.88887000e+08
6350.000000 1.86709000e+08
6370.000000 1.84573000e+08
6390.000000 1.82459000e+08
6410.000000 1.80378000e+08
6430.000000 1.78328000e+08
6450.000000 1.76310000e+08
6470.000000 1.74312000e+08
6490.000000 1.72345000e+08
6510.000000 1.70408000e+08
6530.000000 1.68332000e+08
6550.000000 1.63512000e+08
6570.000000 1.47856000e+08
6590.000000 1.62279000e+08
6610.000000 1.61118000e+08
6630.000000 1.59341000e+08
6650.000000 1.57677000e+08
6670.000000 1.54701000e+08
6690.000000 1.53028000e+08
6710.000000 1.52544000e+08
6730.000000 1.50882000e+08
6750.000000 1.49245000e+08
6770.000000 1.47625000e+08
6790.000000 1.46021000e+08
6810.000000 1.44449000e+08
6830.000000 1.42894000e+08
6850.000000 1.41362000e+08
6870.000000 1.39854000e+08
6890.000000 1.38361000e+08
6910.000000 1.36882000e+08
6930.000000 1.35427000e+08
6950.000000 1.34001000e+08
6970.000000 1.32582000e+08
6990.000000 1.31177000e+08
7010.000000 1.29808000e+08
7030.000000 1.28453000e+08
7050.000000 1.27111000e+08
7070.000000 1.23899000e+08
7090.000000 1.24475000e+08
7110.000000 1.23187000e+08
7130.000000 1.21911000e+08
7150.000000 1.20655000e+08
7170.000000 1.19389000e+08
7190.000000 1.18187000e+08
7210.000000 1.16981000e+08
7230.000000 1.15751000e+08
7250.000000 1.14605000e+08
7270.000000 1.13440000e+08
7290.000000 1.11429000e+08
7310.000000 1.11145000e+08
7330.000000 1.10041000e+08
7350.000000 1.08934000e+08
7370.000000 1.07837000e+08
7390.000000 1.06765000e+08
7410.000000 1.05695000e+08
7430.000000 1.04642000e+08
7450.000000 1.03620000e+08
7470.000000 1.02593000e+08
7490.000000 1.01576000e+08
7510.000000 1.00541000e+08
7530.000000 9.95892000e+07
7550.000000 9.86129000e+07
7570.000000 9.76454000e+07
7590.000000 9.66934000e+07
7610.000000 9.57499000e+07
7630.000000 9.48215000e+07
7650.000000 9.39015000e+07
7670.000000 9.29962000e+07
7690.000000 9.20990000e+07
7710.000000 9.12099000e+07
7730.000000 9.03413000e+07
7750.000000 8.94679000e+07
7770.000000 8.86211000e+07
7790.000000 8.77755000e+07
7810.000000 8.68818000e+07
7830.000000 8.61190000e+07
7850.000000 8.53873000e+07
7870.000000 8.45828000e+07
7890.000000 8.37431000e+07
7910.000000 8.30010000e+07
7930.000000 8.22054000e+07
7950.000000 8.13095000e+07
7970.000000 8.04690000e+07
7990.000000 7.97539000e+07
8010.000000 7.90156000e+07
8030.000000 7.83011000e+07
8050.000000 7.76219000e+07
8070.000000 7.69368000e+07
8090.000000 7.60964000e+07
8110.000000 7.54580000e+07
8130.000000 7.48649000e+07
8150.000000 7.40442000e+07
8170.000000 7.35241000e+07
8190.000000 7.27835000e+07
8210.000000 7.19711000e+07
8230.000000 7.15383000e+07
8250.000000 7.09095000e+07
8270.000000 6.99170000e+07
8290.000000 6.95472000e+07
8310.000000 6.89455000e+07
8330.000000 6.83108000e+07
8350.000000 6.73842000e+07
8370.000000 6.69496000e+07
8390.000000 6.64328000e+07
8410.000000 6.58136000e+07
8430.000000 6.51412000e+07
8450.000000 6.42264000e+07
8470.000000 6.37554000e+07
8490.000000 6.34815000e+07
8510.000000 6.23564000e+07
8530.000000 6.25769000e+07
8550.000000 6.04292000e+07
8570.000000 6.23275000e+07
8590.000000 5.94951000e+07
8610.000000 5.91224000e+07
8630.000000 6.12615000e+07
8650.000000 5.96091000e+07
8670.000000 5.53199000e+07
8690.000000 5.98398000e+07
8710.000000 5.98980000e+07
8730.000000 5.82299000e+07
8750.000000 5.27187000e+07
8770.000000 5.67399000e+07
8790.000000 5.80131000e+07
8810.000000 5.75461000e+07
8830.000000 5.69813000e+07
8850.000000 5.40593000e+07
8870.000000 5.00714000e+07
8890.000000 5.52042000e+07
8910.000000 5.51702000e+07
8930.000000 5.47580000e+07
8950.000000 5.44430000e+07
8970.000000 5.39055000e+07
8990.000000 5.26870000e+07
9010.000000 4.74879000e+07
9030.000000 4.99159000e+07
9050.000000 5.19218000e+07
9070.000000 5.13129000e+07
9090.000000 5.11831000e+07
9110.000000 5.09178000e+07
9130.000000 5.05232000e+07
9150.000000 5.01046000e+07
9170.000000 4.95547000e+07
9190.000000 4.91207000e+07
9210.000000 4.74198000e+07
9230.000000 4.24793000e+07
9250.000000 4.69005000e+07
9270.000000 4.75006000e+07
9290.000000 4.73006000e+07
9310.000000 4.67239000e+07
9330.000000 4.65324000e+07
9350.000000 4.61267000e+07
9370.000000 4.57884000e+07
9390.000000 4.54184000e+07
9410.000000 4.50511000e+07
9430.000000 4.46907000e+07
9450.000000 4.43330000e+07
9470.000000 4.37385000e+07
9490.000000 4.36171000e+07
9510.000000 4.27673000e+07
9530.000000 4.13900000e+07
9550.000000 3.73476000e+07
9570.000000 4.15252000e+07
9590.000000 4.17823000e+07
9610.000000 4.14658000e+07
9630.000000 4.10784000e+07
9650.000000 4.09407000e+07
9670.000000 4.06225000e+07
9690.000000 4.02704000e+07
9710.000000 3.98765000e+07
9730.000000 3.96773000e+07
9750.000000 3.93689000e+07
9770.000000 3.90634000e+07
9790.000000 3.87605000e+07
9810.000000 3.84609000e+07
9830.000000 3.81642000e+07
9850.000000 3.78700000e+07
9870.000000 3.75790000e+07
9890.000000 3.72904000e+07
9910.000000 3.70008000e+07
9930.000000 3.67220000e+07
9950.000000 3.64414000e+07
9970.000000 3.61638000e+07
9990.000000 3.58882000e+07
10025.000000 3.43414000e+07
10075.000000 3.32535000e+07
10125.000000 3.40232000e+07
10175.000000 3.34662000e+07
10225.000000 3.28327000e+07
10275.000000 3.22421000e+07
10325.000000 3.15408000e+07
10375.000000 3.10730000e+07
10425.000000 3.05084000e+07
10475.000000 2.99566000e+07
10525.000000 2.94172000e+07
10575.000000 2.88897000e+07
10625.000000 2.83742000e+07
10675.000000 2.78221000e+07
10725.000000 2.73769000e+07
10775.000000 2.68946000e+07
10825.000000 2.61414000e+07
10875.000000 2.59350000e+07
10925.000000 2.38889000e+07
10975.000000 2.47483000e+07
11025.000000 2.45045000e+07
11075.000000 2.42063000e+07
11125.000000 2.38002000e+07
11175.000000 2.33955000e+07
11225.000000 2.29864000e+07
11275.000000 2.26111000e+07
11325.000000 2.22312000e+07
11375.000000 2.18592000e+07
11425.000000 2.14951000e+07
11475.000000 2.11385000e+07
11525.000000 2.07890000e+07
11575.000000 2.04470000e+07
11625.000000 2.01120000e+07
11675.000000 1.97837000e+07
11725.000000 1.94621000e+07
11775.000000 1.91472000e+07
11825.000000 1.88383000e+07
11875.000000 1.85360000e+07
11925.000000 1.82394000e+07
11975.000000 1.78123000e+07
12025.000000 1.76640000e+07
12075.000000 1.73850000e+07
12125.000000 1.71112000e+07
12175.000000 1.68428000e+07
12225.000000 1.65798000e+07
12275.000000 1.63217000e+07
12325.000000 1.60688000e+07
12375.000000 1.58209000e+07
12425.000000 1.55774000e+07
12475.000000 1.53388000e+07
12525.000000 1.50756000e+07
12575.000000 1.48752000e+07
12625.000000 1.46498000e+07
12675.000000 1.44287000e+07
12725.000000 1.42118000e+07
12775.000000 1.38122000e+07
12825.000000 1.29377000e+07
12875.000000 1.35428000e+07
12925.000000 1.33839000e+07
12975.000000 1.31102000e+07
13025.000000 1.29926000e+07
13075.000000 1.28024000e+07
