# Kurucz ODFNEW /NOVER, alpha: 0.0 (2003)
# teff = 31000 K (value for the effective temperature for the model. Temperatures are given in K)
# logg = 4.5 log(cm/s2) (value for Log(G) for the model.)
# lh = 1.25  (l/Hp where l is the  mixing length of the convective element and Hp is the pressure scale height)
# meta = -1  (value for the Metallicity for the model.)
# vtur = 2 km/s (Microturbulence velocity)
# alpha = 0  (Alpha)
#
# column 1: WAVELENGTH (ANGSTROM), Wavelength in Angstrom
# column 2: FLUX (ERG/CM2/S/A), Flux in erg/cm2/s/A
147.200000 6.44294000e-08
151.000000 1.98997000e-07
155.200000 6.50059000e-07
158.800000 1.70860000e-06
162.000000 3.89706000e-06
166.000000 1.04549000e-05
170.300000 2.86995000e-05
173.400000 5.76617000e-05
176.800000 1.20522000e-04
180.200000 2.45097000e-04
181.700000 3.32434000e-04
186.100000 7.91004000e-04
191.000000 1.98284000e-03
193.900000 3.34222000e-03
198.400000 7.29320000e-03
201.800000 1.28524000e-02
205.000000 2.15370000e-02
210.500000 5.04675000e-02
216.200000 1.16535000e-01
219.800000 1.93386000e-01
223.000000 2.99231000e-01
226.800000 4.94709000e-01
230.000000 2.34940000e+02
234.000000 7.14985000e+02
240.000000 1.26963000e+03
246.500000 2.33029000e+03
252.400000 3.92792000e+03
256.800000 4.81453000e+03
260.000000 7.76586000e+03
264.000000 1.05404000e+04
268.500000 1.51952000e+04
273.500000 2.17197000e+04
278.500000 2.98048000e+04
284.000000 4.87914000e+04
290.000000 7.08708000e+04
296.000000 9.92174000e+04
301.000000 1.23321000e+05
308.000000 1.78492000e+05
318.000000 3.68951000e+05
328.000000 5.77574000e+05
338.000000 9.45583000e+05
348.000000 1.45582000e+06
357.000000 2.28268000e+06
366.000000 3.38324000e+06
375.000000 4.47494000e+06
385.000000 6.38578000e+06
395.000000 8.85148000e+06
405.000000 1.16858000e+07
414.000000 1.51638000e+07
422.000000 1.82059000e+07
430.000000 2.22350000e+07
441.000000 2.88551000e+07
451.000000 3.61077000e+07
460.000000 4.29375000e+07
470.000000 5.30849000e+07
480.000000 6.41323000e+07
490.000000 7.66105000e+07
500.000000 9.24826000e+07
506.000000 4.00954000e+08
512.000000 1.68573000e+09
520.000000 1.65585000e+09
530.000000 1.68502000e+09
540.000000 1.55562000e+09
550.000000 1.82711000e+09
560.000000 2.00942000e+09
570.000000 2.12668000e+09
580.000000 1.99328000e+09
590.000000 2.20681000e+09
600.000000 2.19727000e+09
610.000000 2.34056000e+09
620.000000 2.52322000e+09
630.000000 2.57588000e+09
640.000000 2.54761000e+09
650.000000 2.69364000e+09
658.000000 2.70815000e+09
665.000000 2.80836000e+09
675.000000 2.85070000e+09
685.000000 2.77329000e+09
695.000000 3.11117000e+09
705.000000 3.03892000e+09
716.000000 3.29569000e+09
726.000000 3.31260000e+09
735.000000 3.39348000e+09
745.000000 3.51286000e+09
755.000000 3.56516000e+09
765.000000 3.65010000e+09
775.000000 3.74205000e+09
785.000000 3.88684000e+09
795.000000 3.92612000e+09
805.000000 3.96615000e+09
815.000000 4.00548000e+09
825.000000 4.14514000e+09
835.000000 3.92634000e+09
845.000000 4.20930000e+09
855.000000 4.26169000e+09
865.000000 4.36935000e+09
875.000000 4.46328000e+09
885.000000 4.55986000e+09
895.000000 4.63588000e+09
905.000000 4.63055000e+09
915.000000 5.19855000e+09
925.000000 2.08173000e+10
935.000000 3.82364000e+10
945.000000 6.65185000e+10
955.000000 7.59758000e+10
965.000000 9.27720000e+10
975.000000 4.35332000e+10
985.000000 8.77887000e+10
995.000000 8.04278000e+10
1005.000000 8.40310000e+10
1015.000000 8.19665000e+10
1025.000000 4.85333000e+10
1035.000000 7.62901000e+10
1045.000000 8.53004000e+10
1055.000000 8.24792000e+10
1065.000000 7.43411000e+10
1075.000000 7.60777000e+10
1085.000000 6.95776000e+10
1095.000000 7.42949000e+10
1105.000000 7.11853000e+10
1115.000000 6.96869000e+10
1125.000000 6.28783000e+10
1135.000000 6.69017000e+10
1145.000000 6.29451000e+10
1155.000000 6.26590000e+10
1165.000000 6.12632000e+10
1175.000000 4.85051000e+10
1185.000000 5.67847000e+10
1195.000000 5.51129000e+10
1205.000000 5.09692000e+10
1215.000000 3.15782000e+10
1225.000000 4.99059000e+10
1235.000000 5.22799000e+10
1245.000000 5.05879000e+10
1255.000000 5.02083000e+10
1265.000000 4.98461000e+10
1275.000000 4.92225000e+10
1285.000000 4.83841000e+10
1295.000000 4.47890000e+10
1305.000000 4.49281000e+10
1315.000000 4.54413000e+10
1325.000000 4.37001000e+10
1335.000000 4.22848000e+10
1345.000000 4.20623000e+10
1355.000000 4.14602000e+10
1365.000000 4.00138000e+10
1375.000000 3.93024000e+10
1385.000000 3.84050000e+10
1395.000000 3.43427000e+10
1405.000000 3.43785000e+10
1415.000000 3.56856000e+10
1425.000000 3.38525000e+10
1435.000000 3.41983000e+10
1442.000000 3.41407000e+10
1447.000000 3.36389000e+10
1455.000000 3.27824000e+10
1465.000000 3.20450000e+10
1475.000000 3.14319000e+10
1485.000000 3.10492000e+10
1495.000000 3.01920000e+10
1505.000000 2.92382000e+10
1512.000000 2.86418000e+10
1517.000000 2.84844000e+10
1525.000000 2.79158000e+10
1535.000000 2.57386000e+10
1545.000000 2.47042000e+10
1555.000000 2.40416000e+10
1565.000000 2.45875000e+10
1575.000000 2.48442000e+10
1585.000000 2.46847000e+10
1595.000000 2.43006000e+10
1605.000000 2.30862000e+10
1615.000000 2.23938000e+10
1625.000000 2.24015000e+10
1635.000000 2.22608000e+10
1645.000000 2.14299000e+10
1655.000000 2.18828000e+10
1665.000000 2.14930000e+10
1672.000000 2.07838000e+10
1677.000000 2.17210000e+10
1685.000000 2.11331000e+10
1695.000000 2.06104000e+10
1705.000000 2.00804000e+10
1715.000000 1.94767000e+10
1725.000000 1.90351000e+10
1735.000000 1.92093000e+10
1745.000000 1.88376000e+10
1755.000000 1.85097000e+10
1765.000000 1.80914000e+10
1775.000000 1.77697000e+10
1785.000000 1.76350000e+10
1795.000000 1.73572000e+10
1805.000000 1.72048000e+10
1815.000000 1.67012000e+10
1825.000000 1.64791000e+10
1835.000000 1.62698000e+10
1845.000000 1.54597000e+10
1855.000000 1.52388000e+10
1865.000000 1.51949000e+10
1875.000000 1.50751000e+10
1885.000000 1.43451000e+10
1895.000000 1.38836000e+10
1905.000000 1.41358000e+10
1915.000000 1.36598000e+10
1925.000000 1.31991000e+10
1935.000000 1.34172000e+10
1945.000000 1.34309000e+10
1955.000000 1.26611000e+10
1967.000000 1.28576000e+10
1976.000000 1.29646000e+10
1984.000000 1.24917000e+10
1995.000000 1.21130000e+10
2005.000000 1.22033000e+10
2015.000000 1.21373000e+10
2025.000000 1.20462000e+10
2035.000000 1.16542000e+10
2045.000000 1.14811000e+10
2055.000000 1.03009000e+10
2065.000000 1.00512000e+10
2074.000000 1.02102000e+10
2078.000000 1.00192000e+10
2085.000000 1.01695000e+10
2095.000000 1.02898000e+10
2105.000000 1.05154000e+10
2115.000000 1.04667000e+10
2125.000000 1.03417000e+10
2135.000000 1.01781000e+10
2145.000000 9.97947000e+09
2155.000000 9.91059000e+09
2165.000000 9.69547000e+09
2175.000000 9.63281000e+09
2185.000000 9.43278000e+09
2195.000000 9.38691000e+09
2205.000000 9.24695000e+09
2215.000000 9.03464000e+09
2225.000000 8.96807000e+09
2235.000000 8.82390000e+09
2245.000000 8.71407000e+09
2255.000000 8.50508000e+09
2265.000000 8.46466000e+09
2275.000000 8.34601000e+09
2285.000000 8.21178000e+09
2295.000000 7.86929000e+09
2305.000000 7.91320000e+09
2315.000000 7.85974000e+09
2325.000000 7.75325000e+09
2335.000000 7.63378000e+09
2345.000000 7.54689000e+09
2355.000000 7.43878000e+09
2365.000000 7.33626000e+09
2375.000000 7.22519000e+09
2385.000000 7.05942000e+09
2395.000000 7.01176000e+09
2405.000000 6.93078000e+09
2415.000000 6.83216000e+09
2425.000000 6.74517000e+09
2435.000000 6.63906000e+09
2445.000000 6.55713000e+09
2455.000000 6.47132000e+09
2465.000000 6.38606000e+09
2475.000000 6.29704000e+09
2485.000000 6.21047000e+09
2495.000000 5.74091000e+09
2505.000000 6.02885000e+09
2513.000000 5.82546000e+09
2518.000000 5.89813000e+09
2525.000000 5.88869000e+09
2535.000000 5.81360000e+09
2545.000000 5.70443000e+09
2555.000000 5.64411000e+09
2565.000000 5.58318000e+09
2575.000000 5.51149000e+09
2585.000000 5.44238000e+09
2595.000000 5.37170000e+09
2605.000000 5.32482000e+09
2615.000000 5.25354000e+09
2625.000000 5.18861000e+09
2635.000000 5.12016000e+09
2645.000000 5.05029000e+09
2655.000000 4.98378000e+09
2665.000000 4.90470000e+09
2675.000000 4.83930000e+09
2685.000000 4.80541000e+09
2695.000000 4.70524000e+09
2705.000000 4.67406000e+09
2715.000000 4.61900000e+09
2725.000000 4.53767000e+09
2735.000000 4.47932000e+09
2745.000000 4.45229000e+09
2755.000000 4.40062000e+09
2765.000000 4.31533000e+09
2775.000000 4.29755000e+09
2785.000000 4.24236000e+09
2795.000000 4.15206000e+09
2805.000000 4.12888000e+09
2815.000000 4.09337000e+09
2825.000000 4.01001000e+09
2835.000000 3.95824000e+09
2845.000000 3.94834000e+09
2855.000000 3.89725000e+09
2865.000000 3.85141000e+09
2875.000000 3.80666000e+09
2885.000000 3.76285000e+09
2895.000000 3.71797000e+09
2910.000000 3.64971000e+09
2930.000000 3.56864000e+09
2950.000000 3.46201000e+09
2970.000000 3.40534000e+09
2990.000000 3.32534000e+09
3010.000000 3.24632000e+09
3030.000000 3.17681000e+09
3050.000000 3.10832000e+09
3070.000000 3.04185000e+09
3090.000000 2.96164000e+09
3110.000000 2.90798000e+09
3130.000000 2.84371000e+09
3150.000000 2.78132000e+09
3170.000000 2.72107000e+09
3190.000000 2.64522000e+09
3210.000000 2.60092000e+09
3230.000000 2.55025000e+09
3250.000000 2.49788000e+09
3270.000000 2.44596000e+09
3290.000000 2.39289000e+09
3310.000000 2.34639000e+09
3330.000000 2.29634000e+09
3350.000000 2.24648000e+09
3370.000000 2.20357000e+09
3390.000000 2.16047000e+09
3410.000000 2.11690000e+09
3430.000000 2.06695000e+09
3450.000000 2.01910000e+09
3470.000000 1.98350000e+09
3490.000000 1.94401000e+09
3510.000000 1.90864000e+09
3530.000000 1.87468000e+09
3550.000000 1.83778000e+09
3570.000000 1.81142000e+09
3590.000000 1.76390000e+09
3610.000000 1.73591000e+09
3630.000000 1.69768000e+09
3640.000000 1.69246000e+09
3650.000000 1.65467000e+09
3670.000000 1.63017000e+09
3690.000000 1.59921000e+09
3710.000000 1.54731000e+09
3730.000000 1.49415000e+09
3750.000000 1.49259000e+09
3770.000000 1.46166000e+09
3790.000000 1.50625000e+09
3810.000000 1.54994000e+09
3830.000000 1.38060000e+09
3850.000000 1.56525000e+09
3870.000000 1.56805000e+09
3890.000000 1.30032000e+09
3910.000000 1.53456000e+09
3930.000000 1.50990000e+09
3950.000000 1.47917000e+09
3970.000000 1.20429000e+09
3990.000000 1.42125000e+09
4010.000000 1.40931000e+09
4030.000000 1.33745000e+09
4050.000000 1.37198000e+09
4070.000000 1.33376000e+09
4090.000000 1.24134000e+09
4110.000000 1.10857000e+09
4130.000000 1.25717000e+09
4150.000000 1.24436000e+09
4170.000000 1.23295000e+09
4190.000000 1.21179000e+09
4210.000000 1.19216000e+09
4230.000000 1.17281000e+09
4250.000000 1.14999000e+09
4270.000000 1.12544000e+09
4290.000000 1.10945000e+09
4310.000000 1.08394000e+09
4330.000000 9.96010000e+08
4350.000000 9.17709000e+08
4370.000000 1.02895000e+09
4390.000000 9.97511000e+08
4410.000000 1.00146000e+09
4430.000000 9.86067000e+08
4450.000000 9.71896000e+08
4470.000000 9.20853000e+08
4490.000000 9.39875000e+08
4510.000000 9.25965000e+08
4530.000000 9.11142000e+08
4550.000000 8.94124000e+08
4570.000000 8.81156000e+08
4590.000000 8.66359000e+08
4610.000000 8.52725000e+08
4630.000000 8.38836000e+08
4650.000000 8.16652000e+08
4670.000000 8.12194000e+08
4690.000000 7.95776000e+08
4710.000000 7.77825000e+08
4730.000000 7.76295000e+08
4750.000000 7.63711000e+08
4770.000000 7.53363000e+08
4790.000000 7.41617000e+08
4810.000000 7.29161000e+08
4830.000000 7.13930000e+08
4850.000000 6.66333000e+08
4870.000000 6.03704000e+08
4890.000000 6.80574000e+08
4910.000000 6.74150000e+08
4930.000000 6.51549000e+08
4950.000000 6.55350000e+08
4970.000000 6.46792000e+08
4990.000000 6.37139000e+08
5010.000000 6.20040000e+08
5030.000000 6.18365000e+08
5050.000000 6.06416000e+08
5070.000000 6.00571000e+08
5090.000000 5.91746000e+08
5110.000000 5.83141000e+08
5130.000000 5.74494000e+08
5150.000000 5.66220000e+08
5170.000000 5.58239000e+08
5190.000000 5.50407000e+08
5210.000000 5.42594000e+08
5230.000000 5.34899000e+08
5250.000000 5.27305000e+08
5270.000000 5.19838000e+08
5290.000000 5.12616000e+08
5310.000000 5.05435000e+08
5330.000000 4.98427000e+08
5350.000000 4.91469000e+08
5370.000000 4.84706000e+08
5390.000000 4.77964000e+08
5410.000000 4.70588000e+08
5430.000000 4.65007000e+08
5450.000000 4.58633000e+08
5470.000000 4.52389000e+08
5490.000000 4.46262000e+08
5510.000000 4.40261000e+08
5530.000000 4.34310000e+08
5550.000000 4.28519000e+08
5570.000000 4.22764000e+08
5590.000000 4.17116000e+08
5610.000000 4.11598000e+08
5630.000000 4.06159000e+08
5650.000000 4.00751000e+08
5670.000000 3.95292000e+08
5690.000000 3.89412000e+08
5710.000000 3.84308000e+08
5730.000000 3.79370000e+08
5750.000000 3.74263000e+08
5770.000000 3.70201000e+08
5790.000000 3.65401000e+08
5810.000000 3.60713000e+08
5830.000000 3.55993000e+08
5850.000000 3.51537000e+08
5870.000000 3.37447000e+08
5890.000000 3.41751000e+08
5910.000000 3.38352000e+08
5930.000000 3.34060000e+08
5950.000000 3.29870000e+08
5970.000000 3.25952000e+08
5990.000000 3.21763000e+08
6010.000000 3.17831000e+08
6030.000000 3.13840000e+08
6050.000000 3.10009000e+08
6070.000000 3.06221000e+08
6090.000000 3.02455000e+08
6110.000000 2.98743000e+08
6130.000000 2.95092000e+08
6150.000000 2.91403000e+08
6170.000000 2.87904000e+08
6190.000000 2.84464000e+08
6210.000000 2.81042000e+08
6230.000000 2.77658000e+08
6250.000000 2.74312000e+08
6270.000000 2.71041000e+08
6290.000000 2.67816000e+08
6310.000000 2.64616000e+08
6330.000000 2.61499000e+08
6350.000000 2.58378000e+08
6370.000000 2.55356000e+08
6390.000000 2.52349000e+08
6410.000000 2.49392000e+08
6430.000000 2.46485000e+08
6450.000000 2.43619000e+08
6470.000000 2.40693000e+08
6490.000000 2.37924000e+08
6510.000000 2.35202000e+08
6530.000000 2.31546000e+08
6550.000000 2.22468000e+08
6570.000000 2.00004000e+08
6590.000000 2.22430000e+08
6610.000000 2.21733000e+08
6630.000000 2.19549000e+08
6650.000000 2.17131000e+08
6670.000000 2.12723000e+08
6690.000000 2.10351000e+08
6710.000000 2.09902000e+08
6730.000000 2.07492000e+08
6750.000000 2.05247000e+08
6770.000000 2.02976000e+08
6790.000000 2.00580000e+08
6810.000000 1.98486000e+08
6830.000000 1.96283000e+08
6850.000000 1.94143000e+08
6870.000000 1.92009000e+08
6890.000000 1.89872000e+08
6910.000000 1.87780000e+08
6930.000000 1.85796000e+08
6950.000000 1.83777000e+08
6970.000000 1.81793000e+08
6990.000000 1.79821000e+08
7010.000000 1.77892000e+08
7030.000000 1.75966000e+08
7050.000000 1.74090000e+08
7070.000000 1.69798000e+08
7090.000000 1.70400000e+08
7110.000000 1.68578000e+08
7130.000000 1.66797000e+08
7150.000000 1.65040000e+08
7170.000000 1.63270000e+08
7190.000000 1.61583000e+08
7210.000000 1.59891000e+08
7230.000000 1.57775000e+08
7250.000000 1.56526000e+08
7270.000000 1.54939000e+08
7290.000000 1.52218000e+08
7310.000000 1.51732000e+08
7330.000000 1.50176000e+08
7350.000000 1.48635000e+08
7370.000000 1.47108000e+08
7390.000000 1.45602000e+08
7410.000000 1.44117000e+08
7430.000000 1.42646000e+08
7450.000000 1.41209000e+08
7470.000000 1.39718000e+08
7490.000000 1.38355000e+08
7510.000000 1.36932000e+08
7530.000000 1.35587000e+08
7550.000000 1.34229000e+08
7570.000000 1.32889000e+08
7590.000000 1.31556000e+08
7610.000000 1.30227000e+08
7630.000000 1.28957000e+08
7650.000000 1.27678000e+08
7670.000000 1.26418000e+08
7690.000000 1.25169000e+08
7710.000000 1.23937000e+08
7730.000000 1.22710000e+08
7750.000000 1.21519000e+08
7770.000000 1.20320000e+08
7790.000000 1.19157000e+08
7810.000000 1.17949000e+08
7830.000000 1.16855000e+08
7850.000000 1.15814000e+08
7870.000000 1.14667000e+08
7890.000000 1.13529000e+08
7910.000000 1.12504000e+08
7930.000000 1.11416000e+08
7950.000000 1.10362000e+08
7970.000000 1.09222000e+08
7990.000000 1.08251000e+08
8010.000000 1.07176000e+08
8030.000000 1.06129000e+08
8050.000000 1.05126000e+08
8070.000000 1.04142000e+08
8090.000000 1.03012000e+08
8110.000000 1.02058000e+08
8130.000000 1.01254000e+08
8150.000000 1.00196000e+08
8170.000000 9.93792000e+07
8190.000000 9.83047000e+07
8210.000000 9.71668000e+07
8230.000000 9.64170000e+07
8250.000000 9.56069000e+07
8270.000000 9.43409000e+07
8290.000000 9.38149000e+07
8310.000000 9.29929000e+07
8330.000000 9.21017000e+07
8350.000000 9.09154000e+07
8370.000000 9.03309000e+07
8390.000000 8.96224000e+07
8410.000000 8.88078000e+07
8430.000000 8.79576000e+07
8450.000000 8.66764000e+07
8470.000000 8.63621000e+07
8490.000000 8.54225000e+07
8510.000000 8.46990000e+07
8530.000000 8.38622000e+07
8550.000000 8.28055000e+07
8570.000000 8.28811000e+07
8590.000000 8.05198000e+07
8610.000000 8.03799000e+07
8630.000000 8.10953000e+07
8650.000000 7.91699000e+07
8670.000000 7.63493000e+07
8690.000000 7.89417000e+07
8710.000000 7.89768000e+07
8730.000000 7.68507000e+07
8750.000000 7.18892000e+07
8770.000000 7.47259000e+07
8790.000000 7.65121000e+07
8810.000000 7.61457000e+07
8830.000000 7.51102000e+07
8850.000000 7.10049000e+07
8870.000000 6.70986000e+07
8890.000000 7.24314000e+07
8910.000000 7.29797000e+07
8930.000000 7.25304000e+07
8950.000000 7.20655000e+07
8970.000000 7.12622000e+07
8990.000000 6.92208000e+07
9010.000000 6.28438000e+07
9030.000000 6.50791000e+07
9050.000000 6.83152000e+07
9070.000000 6.77944000e+07
9090.000000 6.77882000e+07
9110.000000 6.75318000e+07
9130.000000 6.70193000e+07
9150.000000 6.63892000e+07
9170.000000 6.55443000e+07
9190.000000 6.47776000e+07
9210.000000 6.19562000e+07
9230.000000 5.57668000e+07
9250.000000 6.09416000e+07
9270.000000 6.25552000e+07
9290.000000 6.24433000e+07
9310.000000 6.18406000e+07
9330.000000 6.16061000e+07
9350.000000 6.10584000e+07
9370.000000 6.06307000e+07
9390.000000 6.01377000e+07
9410.000000 5.96398000e+07
9430.000000 5.91583000e+07
9450.000000 5.86720000e+07
9470.000000 5.77775000e+07
9490.000000 5.75049000e+07
9510.000000 5.62553000e+07
9530.000000 5.37711000e+07
9550.000000 4.86761000e+07
9570.000000 5.39684000e+07
9590.000000 5.49601000e+07
9610.000000 5.46908000e+07
9630.000000 5.42242000e+07
9650.000000 5.41129000e+07
9670.000000 5.36839000e+07
9690.000000 5.32137000e+07
9710.000000 5.26631000e+07
9730.000000 5.24110000e+07
9750.000000 5.19981000e+07
9770.000000 5.15881000e+07
9790.000000 5.11810000e+07
9810.000000 5.07768000e+07
9830.000000 5.03832000e+07
9850.000000 4.99886000e+07
9870.000000 4.95928000e+07
9890.000000 4.91999000e+07
9910.000000 4.87560000e+07
9930.000000 4.84451000e+07
9950.000000 4.80679000e+07
9970.000000 4.76668000e+07
9990.000000 4.71704000e+07
10025.000000 4.47012000e+07
10075.000000 4.32974000e+07
10125.000000 4.46898000e+07
10175.000000 4.40843000e+07
10225.000000 4.32398000e+07
10275.000000 4.24454000e+07
10325.000000 4.15017000e+07
10375.000000 4.08856000e+07
10425.000000 4.01304000e+07
10475.000000 3.93911000e+07
10525.000000 3.86709000e+07
10575.000000 3.79658000e+07
10625.000000 3.72790000e+07
10675.000000 3.65438000e+07
10725.000000 3.59484000e+07
10775.000000 3.53072000e+07
10825.000000 3.43581000e+07
10875.000000 3.39282000e+07
10925.000000 3.09001000e+07
10975.000000 3.20961000e+07
11025.000000 3.20784000e+07
11075.000000 3.17065000e+07
11125.000000 3.11847000e+07
11175.000000 3.06468000e+07
11225.000000 3.01053000e+07
11275.000000 2.96042000e+07
11325.000000 2.90963000e+07
11375.000000 2.86050000e+07
11425.000000 2.81205000e+07
11475.000000 2.76485000e+07
11525.000000 2.71854000e+07
11575.000000 2.67300000e+07
11625.000000 2.62831000e+07
11675.000000 2.58479000e+07
11725.000000 2.54259000e+07
11775.000000 2.50083000e+07
11825.000000 2.45992000e+07
11875.000000 2.41988000e+07
11925.000000 2.38061000e+07
11975.000000 2.31869000e+07
12025.000000 2.30447000e+07
12075.000000 2.26755000e+07
12125.000000 2.23136000e+07
12175.000000 2.19589000e+07
12225.000000 2.16110000e+07
12275.000000 2.12703000e+07
12325.000000 2.09361000e+07
12375.000000 2.06083000e+07
12425.000000 2.02871000e+07
12475.000000 1.99711000e+07
12525.000000 1.96244000e+07
12575.000000 1.93591000e+07
12625.000000 1.90619000e+07
12675.000000 1.87711000e+07
12725.000000 1.84685000e+07
12775.000000 1.78729000e+07
12825.000000 1.65510000e+07
12875.000000 1.75222000e+07
12925.000000 1.73874000e+07
12975.000000 1.70171000e+07
13025.000000 1.68778000e+07
13075.000000 1.66289000e+07
