# Kurucz ODFNEW /NOVER, alpha: 0.0 (2003)
# teff = 22000 K (value for the effective temperature for the model. Temperatures are given in K)
# logg = 3.5 log(cm/s2) (value for Log(G) for the model.)
# lh = 1.25  (l/Hp where l is the  mixing length of the convective element and Hp is the pressure scale height)
# meta = -0.5  (value for the Metallicity for the model.)
# vtur = 2 km/s (Microturbulence velocity)
# alpha = 0  (Alpha)
#
# column 1: WAVELENGTH (ANGSTROM), Wavelength in Angstrom
# column 2: FLUX (ERG/CM2/S/A), Flux in erg/cm2/s/A
147.200000 1.21322000e-17
151.000000 6.55827000e-17
155.200000 3.87865000e-16
158.800000 1.66214000e-15
162.000000 5.76779000e-15
166.000000 2.56571000e-14
170.300000 1.18616000e-13
173.400000 3.42354000e-13
176.800000 1.05131000e-12
180.200000 3.10112000e-12
181.700000 4.93635000e-12
186.100000 1.85367000e-11
191.000000 7.54915000e-11
193.900000 1.67777000e-10
198.400000 5.53592000e-10
201.800000 1.31799000e-09
205.000000 2.90599000e-09
210.500000 1.07007000e-08
216.200000 3.85326000e-08
219.800000 8.36552000e-08
223.000000 1.63157000e-07
226.800000 3.51790000e-07
230.000000 1.13667000e-05
234.000000 2.77511000e-05
240.000000 7.38350000e-05
246.500000 2.02097000e-04
252.400000 4.87764000e-04
256.800000 8.71469000e-04
260.000000 1.42104000e-03
264.000000 2.41256000e-03
268.500000 4.29523000e-03
273.500000 7.95339000e-03
278.500000 1.44854000e-02
284.000000 2.75700000e-02
290.000000 5.32528000e-02
296.000000 1.00095000e-01
301.000000 1.65505000e-01
308.000000 3.19361000e-01
318.000000 8.35202000e-01
328.000000 1.94913000e+00
338.000000 4.44811000e+00
348.000000 9.51467000e+00
357.000000 1.94973000e+01
366.000000 3.65379000e+01
375.000000 6.41210000e+01
385.000000 1.18215000e+02
395.000000 2.10845000e+02
405.000000 3.62845000e+02
414.000000 5.81944000e+02
422.000000 8.57565000e+02
430.000000 1.25955000e+03
441.000000 2.08083000e+03
451.000000 3.20663000e+03
460.000000 4.62313000e+03
470.000000 6.89232000e+03
480.000000 1.00149000e+04
490.000000 1.44075000e+04
500.000000 2.03645000e+04
506.000000 1.58425000e+05
512.000000 7.83066000e+05
520.000000 9.62388000e+05
530.000000 1.28741000e+06
540.000000 1.44684000e+06
550.000000 2.09972000e+06
560.000000 2.50436000e+06
570.000000 3.15124000e+06
580.000000 3.14441000e+06
590.000000 4.22541000e+06
600.000000 5.12174000e+06
610.000000 6.21609000e+06
620.000000 7.10200000e+06
630.000000 8.19161000e+06
640.000000 8.72622000e+06
650.000000 8.49607000e+06
658.000000 1.14708000e+07
665.000000 1.27478000e+07
675.000000 1.38107000e+07
685.000000 1.51760000e+07
695.000000 1.83792000e+07
705.000000 1.98467000e+07
716.000000 2.26733000e+07
726.000000 2.45682000e+07
735.000000 2.64786000e+07
745.000000 3.02008000e+07
755.000000 3.32063000e+07
765.000000 3.64328000e+07
775.000000 4.00887000e+07
785.000000 4.38210000e+07
795.000000 4.68187000e+07
805.000000 5.02595000e+07
815.000000 5.33754000e+07
825.000000 5.86273000e+07
835.000000 5.88362000e+07
845.000000 6.50970000e+07
855.000000 6.91489000e+07
865.000000 7.46083000e+07
875.000000 8.07855000e+07
885.000000 8.75464000e+07
895.000000 9.29801000e+07
905.000000 9.53156000e+07
915.000000 1.61532000e+08
925.000000 1.50111000e+09
935.000000 4.35325000e+09
945.000000 9.44033000e+09
955.000000 1.20736000e+10
965.000000 1.41448000e+10
975.000000 2.87224000e+09
985.000000 1.32104000e+10
995.000000 1.28328000e+10
1005.000000 1.46775000e+10
1015.000000 1.43338000e+10
1025.000000 6.71865000e+09
1035.000000 1.08782000e+10
1045.000000 1.67216000e+10
1055.000000 1.55369000e+10
1065.000000 1.32131000e+10
1075.000000 1.50653000e+10
1085.000000 1.33587000e+10
1095.000000 1.51091000e+10
1105.000000 1.36885000e+10
1115.000000 1.34168000e+10
1125.000000 1.16714000e+10
1135.000000 1.41652000e+10
1145.000000 1.29313000e+10
1155.000000 1.34064000e+10
1165.000000 1.34770000e+10
1175.000000 9.35121000e+09
1185.000000 1.30954000e+10
1195.000000 1.16805000e+10
1205.000000 7.71218000e+09
1215.000000 5.13815000e+09
1225.000000 1.06593000e+10
1235.000000 1.22363000e+10
1245.000000 1.21844000e+10
1255.000000 1.19040000e+10
1265.000000 1.17448000e+10
1275.000000 1.21216000e+10
1285.000000 1.18796000e+10
1295.000000 8.85020000e+09
1305.000000 9.30041000e+09
1315.000000 1.14209000e+10
1325.000000 1.07605000e+10
1335.000000 1.01152000e+10
1345.000000 1.05510000e+10
1355.000000 1.04586000e+10
1365.000000 9.73151000e+09
1375.000000 9.56278000e+09
1385.000000 9.50551000e+09
1395.000000 7.81733000e+09
1405.000000 8.27401000e+09
1415.000000 8.64612000e+09
1425.000000 8.55618000e+09
1435.000000 8.70097000e+09
1442.000000 8.86382000e+09
1447.000000 8.66737000e+09
1455.000000 8.47889000e+09
1465.000000 7.97421000e+09
1475.000000 7.98731000e+09
1485.000000 7.84833000e+09
1495.000000 7.71857000e+09
1505.000000 7.18339000e+09
1512.000000 6.46909000e+09
1517.000000 6.67960000e+09
1525.000000 6.84653000e+09
1535.000000 6.04660000e+09
1545.000000 6.10273000e+09
1555.000000 5.82226000e+09
1565.000000 6.14694000e+09
1575.000000 6.42359000e+09
1585.000000 6.35494000e+09
1595.000000 6.35147000e+09
1605.000000 6.28456000e+09
1615.000000 6.17823000e+09
1625.000000 6.07418000e+09
1635.000000 6.31451000e+09
1645.000000 6.23533000e+09
1655.000000 6.11440000e+09
1665.000000 6.23197000e+09
1672.000000 6.00997000e+09
1677.000000 6.29046000e+09
1685.000000 6.16744000e+09
1695.000000 5.87630000e+09
1705.000000 5.66204000e+09
1715.000000 5.39613000e+09
1725.000000 5.33995000e+09
1735.000000 5.49183000e+09
1745.000000 5.35013000e+09
1755.000000 5.41079000e+09
1765.000000 5.21808000e+09
1775.000000 5.03617000e+09
1785.000000 5.07225000e+09
1795.000000 5.19256000e+09
1805.000000 5.20005000e+09
1815.000000 4.72332000e+09
1825.000000 4.88695000e+09
1835.000000 4.73638000e+09
1845.000000 4.35803000e+09
1855.000000 4.30822000e+09
1865.000000 4.38182000e+09
1875.000000 4.58178000e+09
1885.000000 4.11535000e+09
1895.000000 3.83305000e+09
1905.000000 4.13237000e+09
1915.000000 3.91458000e+09
1925.000000 3.75456000e+09
1935.000000 3.93490000e+09
1945.000000 4.00010000e+09
1955.000000 3.65185000e+09
1967.000000 3.92144000e+09
1976.000000 4.07375000e+09
1984.000000 3.78772000e+09
1995.000000 3.70480000e+09
2005.000000 3.81019000e+09
2015.000000 3.77237000e+09
2025.000000 3.87779000e+09
2035.000000 3.56222000e+09
2045.000000 3.60575000e+09
2055.000000 3.50901000e+09
2065.000000 3.52759000e+09
2074.000000 3.69445000e+09
2078.000000 3.37157000e+09
2085.000000 3.50556000e+09
2095.000000 3.32282000e+09
2105.000000 3.40908000e+09
2115.000000 3.40210000e+09
2125.000000 3.44599000e+09
2135.000000 3.37998000e+09
2145.000000 3.20624000e+09
2155.000000 3.32711000e+09
2165.000000 3.30432000e+09
2175.000000 3.25649000e+09
2185.000000 3.17230000e+09
2195.000000 3.19765000e+09
2205.000000 3.16259000e+09
2215.000000 3.11452000e+09
2225.000000 3.03895000e+09
2235.000000 3.01053000e+09
2245.000000 3.02152000e+09
2255.000000 2.93299000e+09
2265.000000 2.95767000e+09
2275.000000 2.91739000e+09
2285.000000 2.91478000e+09
2295.000000 2.76899000e+09
2305.000000 2.82535000e+09
2315.000000 2.74912000e+09
2325.000000 2.71792000e+09
2335.000000 2.63651000e+09
2345.000000 2.62812000e+09
2355.000000 2.63723000e+09
2365.000000 2.59288000e+09
2375.000000 2.55780000e+09
2385.000000 2.52746000e+09
2395.000000 2.51487000e+09
2405.000000 2.46723000e+09
2415.000000 2.43922000e+09
2425.000000 2.44457000e+09
2435.000000 2.38184000e+09
2445.000000 2.37903000e+09
2455.000000 2.37557000e+09
2465.000000 2.32942000e+09
2475.000000 2.30209000e+09
2485.000000 2.27707000e+09
2495.000000 2.14720000e+09
2505.000000 2.22519000e+09
2513.000000 2.13367000e+09
2518.000000 2.19324000e+09
2525.000000 2.16047000e+09
2535.000000 2.12728000e+09
2545.000000 2.07738000e+09
2555.000000 2.10086000e+09
2565.000000 2.06819000e+09
2575.000000 2.07000000e+09
2585.000000 2.04578000e+09
2595.000000 2.02535000e+09
2605.000000 2.01344000e+09
2615.000000 1.98942000e+09
2625.000000 1.97052000e+09
2635.000000 1.94870000e+09
2645.000000 1.94331000e+09
2655.000000 1.92848000e+09
2665.000000 1.88231000e+09
2675.000000 1.87764000e+09
2685.000000 1.86896000e+09
2695.000000 1.81953000e+09
2705.000000 1.81130000e+09
2715.000000 1.79599000e+09
2725.000000 1.76944000e+09
2735.000000 1.76750000e+09
2745.000000 1.71495000e+09
2755.000000 1.71037000e+09
2765.000000 1.69398000e+09
2775.000000 1.69974000e+09
2785.000000 1.67537000e+09
2795.000000 1.62178000e+09
2805.000000 1.63380000e+09
2815.000000 1.63072000e+09
2825.000000 1.60272000e+09
2835.000000 1.55834000e+09
2845.000000 1.57338000e+09
2855.000000 1.55572000e+09
2865.000000 1.54915000e+09
2875.000000 1.53169000e+09
2885.000000 1.51779000e+09
2895.000000 1.49914000e+09
2910.000000 1.47487000e+09
2930.000000 1.44471000e+09
2950.000000 1.40718000e+09
2970.000000 1.39000000e+09
2990.000000 1.35908000e+09
3010.000000 1.32764000e+09
3030.000000 1.31268000e+09
3050.000000 1.28754000e+09
3070.000000 1.26351000e+09
3090.000000 1.22980000e+09
3110.000000 1.21369000e+09
3130.000000 1.19088000e+09
3150.000000 1.16901000e+09
3170.000000 1.14388000e+09
3190.000000 1.11592000e+09
3210.000000 1.10367000e+09
3230.000000 1.08221000e+09
3250.000000 1.06322000e+09
3270.000000 1.04374000e+09
3290.000000 1.02336000e+09
3310.000000 1.00684000e+09
3330.000000 9.88155000e+08
3350.000000 9.68838000e+08
3370.000000 9.52795000e+08
3390.000000 9.36439000e+08
3410.000000 9.19979000e+08
3430.000000 8.98843000e+08
3450.000000 8.79906000e+08
3470.000000 8.66882000e+08
3490.000000 8.51779000e+08
3510.000000 8.40968000e+08
3530.000000 8.28231000e+08
3550.000000 8.14202000e+08
3570.000000 8.03656000e+08
3590.000000 7.84145000e+08
3610.000000 7.70740000e+08
3630.000000 7.58954000e+08
3640.000000 7.57519000e+08
3650.000000 7.42628000e+08
3670.000000 7.33773000e+08
3690.000000 7.13113000e+08
3710.000000 6.96495000e+08
3730.000000 6.83279000e+08
3750.000000 7.45877000e+08
3770.000000 7.49700000e+08
3790.000000 7.78658000e+08
3810.000000 8.07772000e+08
3830.000000 7.13939000e+08
3850.000000 8.20176000e+08
3870.000000 8.12324000e+08
3890.000000 6.81031000e+08
3910.000000 8.01851000e+08
3930.000000 7.77416000e+08
3950.000000 7.74127000e+08
3970.000000 6.32468000e+08
3990.000000 7.45408000e+08
4010.000000 7.37101000e+08
4030.000000 7.01504000e+08
4050.000000 7.17744000e+08
4070.000000 6.97084000e+08
4090.000000 6.59655000e+08
4110.000000 5.86233000e+08
4130.000000 6.58491000e+08
4150.000000 6.53122000e+08
4170.000000 6.47413000e+08
4190.000000 6.39788000e+08
4210.000000 6.31450000e+08
4230.000000 6.19850000e+08
4250.000000 6.08065000e+08
4270.000000 5.92857000e+08
4290.000000 5.88099000e+08
4310.000000 5.75535000e+08
4330.000000 5.35409000e+08
4350.000000 4.90261000e+08
4370.000000 5.47609000e+08
4390.000000 5.33736000e+08
4410.000000 5.34582000e+08
4430.000000 5.25850000e+08
4450.000000 5.20125000e+08
4470.000000 4.95835000e+08
4490.000000 5.02640000e+08
4510.000000 4.97821000e+08
4530.000000 4.89396000e+08
4550.000000 4.82010000e+08
4570.000000 4.74427000e+08
4590.000000 4.67619000e+08
4610.000000 4.59547000e+08
4630.000000 4.52580000e+08
4650.000000 4.43155000e+08
4670.000000 4.39747000e+08
4690.000000 4.34754000e+08
4710.000000 4.21102000e+08
4730.000000 4.19215000e+08
4750.000000 4.12820000e+08
4770.000000 4.10492000e+08
4790.000000 4.04066000e+08
4810.000000 3.97131000e+08
4830.000000 3.90393000e+08
4850.000000 3.68730000e+08
4870.000000 3.31540000e+08
4890.000000 3.74002000e+08
4910.000000 3.70290000e+08
4930.000000 3.57929000e+08
4950.000000 3.59748000e+08
4970.000000 3.55562000e+08
4990.000000 3.50266000e+08
5010.000000 3.38830000e+08
5030.000000 3.40340000e+08
5050.000000 3.32450000e+08
5070.000000 3.31254000e+08
5090.000000 3.26649000e+08
5110.000000 3.21947000e+08
5130.000000 3.16407000e+08
5150.000000 3.12321000e+08
5170.000000 3.09247000e+08
5190.000000 3.05119000e+08
5210.000000 3.00200000e+08
5230.000000 2.96917000e+08
5250.000000 2.93005000e+08
5270.000000 2.88954000e+08
5290.000000 2.85346000e+08
5310.000000 2.81450000e+08
5330.000000 2.77698000e+08
5350.000000 2.73756000e+08
5370.000000 2.70663000e+08
5390.000000 2.67050000e+08
5410.000000 2.63650000e+08
5430.000000 2.59898000e+08
5450.000000 2.56624000e+08
5470.000000 2.53328000e+08
5490.000000 2.50186000e+08
5510.000000 2.47082000e+08
5530.000000 2.43832000e+08
5550.000000 2.40879000e+08
5570.000000 2.37732000e+08
5590.000000 2.34840000e+08
5610.000000 2.31732000e+08
5630.000000 2.28995000e+08
5650.000000 2.25430000e+08
5670.000000 2.22307000e+08
5690.000000 2.19444000e+08
5710.000000 2.17528000e+08
5730.000000 2.14899000e+08
5750.000000 2.12040000e+08
5770.000000 2.09803000e+08
5790.000000 2.07210000e+08
5810.000000 2.04681000e+08
5830.000000 2.02048000e+08
5850.000000 1.99722000e+08
5870.000000 1.92132000e+08
5890.000000 1.93924000e+08
5910.000000 1.92430000e+08
5930.000000 1.89999000e+08
5950.000000 1.87575000e+08
5970.000000 1.85791000e+08
5990.000000 1.83335000e+08
6010.000000 1.81376000e+08
6030.000000 1.79139000e+08
6050.000000 1.77092000e+08
6070.000000 1.75078000e+08
6090.000000 1.73006000e+08
6110.000000 1.71017000e+08
6130.000000 1.69051000e+08
6150.000000 1.66738000e+08
6170.000000 1.65035000e+08
6190.000000 1.63223000e+08
6210.000000 1.61373000e+08
6230.000000 1.59523000e+08
6250.000000 1.57578000e+08
6270.000000 1.55865000e+08
6290.000000 1.54114000e+08
6310.000000 1.52315000e+08
6330.000000 1.50668000e+08
6350.000000 1.48608000e+08
6370.000000 1.47129000e+08
6390.000000 1.45591000e+08
6410.000000 1.43978000e+08
6430.000000 1.42428000e+08
6450.000000 1.40812000e+08
6470.000000 1.39079000e+08
6490.000000 1.37606000e+08
6510.000000 1.36175000e+08
6530.000000 1.34353000e+08
6550.000000 1.29784000e+08
6570.000000 1.15825000e+08
6590.000000 1.28838000e+08
6610.000000 1.28810000e+08
6630.000000 1.27519000e+08
6650.000000 1.26208000e+08
6670.000000 1.23818000e+08
6690.000000 1.22515000e+08
6710.000000 1.22213000e+08
6730.000000 1.20838000e+08
6750.000000 1.19636000e+08
6770.000000 1.18363000e+08
6790.000000 1.16702000e+08
6810.000000 1.15807000e+08
6830.000000 1.14604000e+08
6850.000000 1.13430000e+08
6870.000000 1.12244000e+08
6890.000000 1.11054000e+08
6910.000000 1.09883000e+08
6930.000000 1.08732000e+08
6950.000000 1.07631000e+08
6970.000000 1.06526000e+08
6990.000000 1.05401000e+08
7010.000000 1.04333000e+08
7030.000000 1.03259000e+08
7050.000000 1.02182000e+08
7070.000000 9.95771000e+07
7090.000000 1.00133000e+08
7110.000000 9.89516000e+07
7130.000000 9.79971000e+07
7150.000000 9.71033000e+07
7170.000000 9.61153000e+07
7190.000000 9.51660000e+07
7210.000000 9.42112000e+07
7230.000000 9.23285000e+07
7250.000000 9.23001000e+07
7270.000000 9.14151000e+07
7290.000000 8.97871000e+07
7310.000000 8.95926000e+07
7330.000000 8.87187000e+07
7350.000000 8.78530000e+07
7370.000000 8.69884000e+07
7390.000000 8.61388000e+07
7410.000000 8.52902000e+07
7430.000000 8.44427000e+07
7450.000000 8.36437000e+07
7470.000000 8.27644000e+07
7490.000000 8.20208000e+07
7510.000000 8.11971000e+07
7530.000000 8.04341000e+07
7550.000000 7.96847000e+07
7570.000000 7.89158000e+07
7590.000000 7.81538000e+07
7610.000000 7.74053000e+07
7630.000000 7.66700000e+07
7650.000000 7.59478000e+07
7670.000000 7.52256000e+07
7690.000000 7.45099000e+07
7710.000000 7.38070000e+07
7730.000000 7.31103000e+07
7750.000000 7.24261000e+07
7770.000000 7.15483000e+07
7790.000000 7.10821000e+07
7810.000000 7.03603000e+07
7830.000000 6.97616000e+07
7850.000000 6.91498000e+07
7870.000000 6.85008000e+07
7890.000000 6.77727000e+07
7910.000000 6.72498000e+07
7930.000000 6.65276000e+07
7950.000000 6.58535000e+07
7970.000000 6.52387000e+07
7990.000000 6.46175000e+07
8010.000000 6.40545000e+07
8030.000000 6.34846000e+07
8050.000000 6.29486000e+07
8070.000000 6.24345000e+07
8090.000000 6.17348000e+07
8110.000000 6.12130000e+07
8130.000000 6.07868000e+07
8150.000000 6.01315000e+07
8170.000000 5.97302000e+07
8190.000000 5.90906000e+07
8210.000000 5.83560000e+07
8230.000000 5.79837000e+07
8250.000000 5.75369000e+07
8270.000000 5.66805000e+07
8290.000000 5.64457000e+07
8310.000000 5.59671000e+07
8330.000000 5.54706000e+07
8350.000000 5.47081000e+07
8370.000000 5.43555000e+07
8390.000000 5.39683000e+07
8410.000000 5.34615000e+07
8430.000000 5.29150000e+07
8450.000000 5.20971000e+07
8470.000000 5.17674000e+07
8490.000000 5.16089000e+07
8510.000000 5.06155000e+07
8530.000000 5.09412000e+07
8550.000000 4.89731000e+07
8570.000000 5.08700000e+07
8590.000000 4.83297000e+07
8610.000000 4.80419000e+07
8630.000000 5.01297000e+07
8650.000000 4.86268000e+07
8670.000000 4.48473000e+07
8690.000000 4.90043000e+07
8710.000000 4.91842000e+07
8730.000000 4.76709000e+07
8750.000000 4.28127000e+07
8770.000000 4.63814000e+07
8790.000000 4.76982000e+07
8810.000000 4.73513000e+07
8830.000000 4.68461000e+07
8850.000000 4.41388000e+07
8870.000000 4.07773000e+07
8890.000000 4.53460000e+07
8910.000000 4.54245000e+07
8930.000000 4.50446000e+07
8950.000000 4.48553000e+07
8970.000000 4.44073000e+07
8990.000000 4.33126000e+07
9010.000000 3.87667000e+07
9030.000000 4.08027000e+07
9050.000000 4.27609000e+07
9070.000000 4.22648000e+07
9090.000000 4.21903000e+07
9110.000000 4.20134000e+07
9130.000000 4.17026000e+07
9150.000000 4.13616000e+07
9170.000000 4.08861000e+07
9190.000000 4.05125000e+07
9210.000000 3.89511000e+07
9230.000000 3.46669000e+07
9250.000000 3.84631000e+07
9270.000000 3.90557000e+07
9290.000000 3.90348000e+07
9310.000000 3.85761000e+07
9330.000000 3.84156000e+07
9350.000000 3.81157000e+07
9370.000000 3.78459000e+07
9390.000000 3.75447000e+07
9410.000000 3.71943000e+07
9430.000000 3.69524000e+07
9450.000000 3.66599000e+07
9470.000000 3.61477000e+07
9490.000000 3.60407000e+07
9510.000000 3.53211000e+07
9530.000000 3.40244000e+07
9550.000000 3.06179000e+07
9570.000000 3.41959000e+07
9590.000000 3.45409000e+07
9610.000000 3.42712000e+07
9630.000000 3.39368000e+07
9650.000000 3.38930000e+07
9670.000000 3.36285000e+07
9690.000000 3.33361000e+07
9710.000000 3.30067000e+07
9730.000000 3.28593000e+07
9750.000000 3.26037000e+07
9770.000000 3.23571000e+07
9790.000000 3.21087000e+07
9810.000000 3.18593000e+07
9830.000000 3.16190000e+07
9850.000000 3.13805000e+07
9870.000000 3.11367000e+07
9890.000000 3.08942000e+07
9910.000000 3.05739000e+07
9930.000000 3.04410000e+07
9950.000000 3.02118000e+07
9970.000000 2.99766000e+07
9990.000000 2.97340000e+07
10025.000000 2.83610000e+07
10075.000000 2.74492000e+07
10125.000000 2.82023000e+07
10175.000000 2.77744000e+07
10225.000000 2.72534000e+07
10275.000000 2.67707000e+07
10325.000000 2.61909000e+07
10375.000000 2.58116000e+07
10425.000000 2.53487000e+07
10475.000000 2.48954000e+07
10525.000000 2.44499000e+07
10575.000000 2.40192000e+07
10625.000000 2.35958000e+07
10675.000000 2.31309000e+07
10725.000000 2.27759000e+07
10775.000000 2.23791000e+07
10825.000000 2.17504000e+07
10875.000000 2.15792000e+07
10925.000000 1.98014000e+07
10975.000000 2.05485000e+07
11025.000000 2.03938000e+07
11075.000000 2.01646000e+07
11125.000000 1.98340000e+07
11175.000000 1.95004000e+07
11225.000000 1.91623000e+07
11275.000000 1.88427000e+07
11325.000000 1.85340000e+07
11375.000000 1.82349000e+07
11425.000000 1.79310000e+07
11475.000000 1.76409000e+07
11525.000000 1.73526000e+07
11575.000000 1.70669000e+07
11625.000000 1.67922000e+07
11675.000000 1.65218000e+07
11725.000000 1.62573000e+07
11775.000000 1.59943000e+07
11825.000000 1.57427000e+07
11875.000000 1.54928000e+07
11925.000000 1.52482000e+07
11975.000000 1.48878000e+07
12025.000000 1.47726000e+07
12075.000000 1.45418000e+07
12125.000000 1.43155000e+07
12175.000000 1.40934000e+07
12225.000000 1.38758000e+07
12275.000000 1.36625000e+07
12325.000000 1.34531000e+07
12375.000000 1.32477000e+07
12425.000000 1.30464000e+07
12475.000000 1.28457000e+07
12525.000000 1.26290000e+07
12575.000000 1.24625000e+07
12625.000000 1.22768000e+07
12675.000000 1.20943000e+07
12725.000000 1.19143000e+07
12775.000000 1.15698000e+07
12825.000000 1.08105000e+07
12875.000000 1.13483000e+07
12925.000000 1.12280000e+07
12975.000000 1.09957000e+07
13025.000000 1.09032000e+07
13075.000000 1.07455000e+07
