# Kurucz ODFNEW /NOVER, alpha: 0.0 (2003)
# teff = 23000 K (value for the effective temperature for the model. Temperatures are given in K)
# logg = 4.5 log(cm/s2) (value for Log(G) for the model.)
# lh = 1.25  (l/Hp where l is the  mixing length of the convective element and Hp is the pressure scale height)
# meta = -2  (value for the Metallicity for the model.)
# vtur = 2 km/s (Microturbulence velocity)
# alpha = 0  (Alpha)
#
# column 1: WAVELENGTH (ANGSTROM), Wavelength in Angstrom
# column 2: FLUX (ERG/CM2/S/A), Flux in erg/cm2/s/A
147.200000 1.48977000e-16
151.000000 8.24985000e-16
155.200000 4.97707000e-15
158.800000 2.15753000e-14
162.000000 7.53531000e-14
166.000000 3.36453000e-13
170.300000 1.55448000e-12
173.400000 4.47125000e-12
176.800000 1.36515000e-11
180.200000 3.99491000e-11
181.700000 6.33305000e-11
186.100000 2.34327000e-10
191.000000 9.36325000e-10
193.900000 2.05503000e-09
198.400000 6.64210000e-09
201.800000 1.55546000e-08
205.000000 3.37412000e-08
210.500000 1.20636000e-07
216.200000 4.20885000e-07
219.800000 8.95114000e-07
223.000000 1.71369000e-06
226.800000 3.61465000e-06
230.000000 1.26514000e-05
234.000000 2.84714000e-05
240.000000 7.84526000e-05
246.500000 2.21900000e-04
252.400000 5.46628000e-04
256.800000 1.02474000e-03
260.000000 1.62880000e-03
264.000000 2.81904000e-03
268.500000 5.11503000e-03
273.500000 9.68035000e-03
278.500000 1.79097000e-02
284.000000 3.43118000e-02
290.000000 6.76903000e-02
296.000000 1.29617000e-01
301.000000 2.18359000e-01
308.000000 4.35846000e-01
318.000000 1.12917000e+00
328.000000 2.72840000e+00
338.000000 6.23672000e+00
348.000000 1.35522000e+01
357.000000 2.61765000e+01
366.000000 4.88700000e+01
375.000000 8.82612000e+01
385.000000 1.64422000e+02
395.000000 2.95927000e+02
405.000000 5.16087000e+02
414.000000 8.30407000e+02
422.000000 1.24347000e+03
430.000000 1.83102000e+03
441.000000 3.04241000e+03
451.000000 4.71187000e+03
460.000000 6.85893000e+03
470.000000 1.02181000e+04
480.000000 1.49395000e+04
490.000000 2.14709000e+04
500.000000 3.03508000e+04
506.000000 1.77568000e+05
512.000000 5.54293000e+05
520.000000 7.00948000e+05
530.000000 9.82957000e+05
540.000000 1.08310000e+06
550.000000 1.51227000e+06
560.000000 1.82010000e+06
570.000000 2.21469000e+06
580.000000 2.27012000e+06
590.000000 2.97368000e+06
600.000000 3.67437000e+06
610.000000 4.32890000e+06
620.000000 5.01754000e+06
630.000000 5.82588000e+06
640.000000 6.61603000e+06
650.000000 7.64640000e+06
658.000000 8.54151000e+06
665.000000 9.32485000e+06
675.000000 1.04265000e+07
685.000000 1.17180000e+07
695.000000 1.33970000e+07
705.000000 1.49297000e+07
716.000000 1.67952000e+07
726.000000 1.86050000e+07
735.000000 2.04953000e+07
745.000000 2.26801000e+07
755.000000 2.49741000e+07
765.000000 2.73606000e+07
775.000000 2.99878000e+07
785.000000 3.27262000e+07
795.000000 3.55411000e+07
805.000000 3.85673000e+07
815.000000 4.16826000e+07
825.000000 4.51013000e+07
835.000000 4.80226000e+07
845.000000 5.20945000e+07
855.000000 5.56623000e+07
865.000000 5.98608000e+07
875.000000 6.40606000e+07
885.000000 6.84075000e+07
895.000000 7.28039000e+07
905.000000 7.65211000e+07
915.000000 1.16143000e+08
925.000000 5.88898000e+08
935.000000 1.87161000e+09
945.000000 7.69004000e+09
955.000000 1.38143000e+10
965.000000 1.91810000e+10
975.000000 6.35620000e+09
985.000000 2.51046000e+10
995.000000 2.51679000e+10
1005.000000 2.60034000e+10
1015.000000 2.13402000e+10
1025.000000 4.35348000e+09
1035.000000 1.81467000e+10
1045.000000 2.51437000e+10
1055.000000 2.48074000e+10
1065.000000 2.28809000e+10
1075.000000 2.36184000e+10
1085.000000 2.17994000e+10
1095.000000 2.28779000e+10
1105.000000 2.18008000e+10
1115.000000 2.15154000e+10
1125.000000 2.02500000e+10
1135.000000 2.06285000e+10
1145.000000 1.95217000e+10
1155.000000 1.97703000e+10
1165.000000 1.93804000e+10
1175.000000 1.69536000e+10
1185.000000 1.82757000e+10
1195.000000 1.67006000e+10
1205.000000 1.31601000e+10
1215.000000 3.15731000e+09
1225.000000 1.23488000e+10
1235.000000 1.57818000e+10
1245.000000 1.58717000e+10
1255.000000 1.56294000e+10
1265.000000 1.52716000e+10
1275.000000 1.52335000e+10
1285.000000 1.49222000e+10
1295.000000 1.38152000e+10
1305.000000 1.37235000e+10
1315.000000 1.39879000e+10
1325.000000 1.34991000e+10
1335.000000 1.29327000e+10
1345.000000 1.30635000e+10
1355.000000 1.29092000e+10
1365.000000 1.25377000e+10
1375.000000 1.23012000e+10
1385.000000 1.20787000e+10
1395.000000 1.15213000e+10
1405.000000 1.14191000e+10
1415.000000 1.13264000e+10
1425.000000 1.11459000e+10
1435.000000 1.09596000e+10
1442.000000 1.08515000e+10
1447.000000 1.07336000e+10
1455.000000 1.05631000e+10
1465.000000 1.03304000e+10
1475.000000 1.01461000e+10
1485.000000 9.93730000e+09
1495.000000 9.75288000e+09
1505.000000 9.47585000e+09
1512.000000 9.32503000e+09
1517.000000 9.28085000e+09
1525.000000 9.13319000e+09
1535.000000 8.79777000e+09
1545.000000 8.73066000e+09
1555.000000 8.49190000e+09
1565.000000 8.48463000e+09
1575.000000 8.38285000e+09
1585.000000 8.23662000e+09
1595.000000 8.10893000e+09
1605.000000 7.86912000e+09
1615.000000 7.73153000e+09
1625.000000 7.67062000e+09
1635.000000 7.56876000e+09
1645.000000 7.36398000e+09
1655.000000 7.30056000e+09
1665.000000 7.21204000e+09
1672.000000 7.03710000e+09
1677.000000 7.08415000e+09
1685.000000 6.98334000e+09
1695.000000 6.84152000e+09
1705.000000 6.70474000e+09
1715.000000 6.56017000e+09
1725.000000 6.46357000e+09
1735.000000 6.38527000e+09
1745.000000 6.26986000e+09
1755.000000 6.20131000e+09
1765.000000 5.98491000e+09
1775.000000 5.95700000e+09
1785.000000 5.88914000e+09
1795.000000 5.81740000e+09
1805.000000 5.73901000e+09
1815.000000 5.61888000e+09
1825.000000 5.54548000e+09
1835.000000 5.45567000e+09
1845.000000 5.28723000e+09
1855.000000 5.14816000e+09
1865.000000 5.11693000e+09
1875.000000 5.11286000e+09
1885.000000 4.93121000e+09
1895.000000 4.79495000e+09
1905.000000 4.83880000e+09
1915.000000 4.69203000e+09
1925.000000 4.61464000e+09
1935.000000 4.60198000e+09
1945.000000 4.58137000e+09
1955.000000 4.41427000e+09
1967.000000 4.43126000e+09
1976.000000 4.41627000e+09
1984.000000 4.30847000e+09
1995.000000 4.19019000e+09
2005.000000 4.20716000e+09
2015.000000 4.17395000e+09
2025.000000 4.13319000e+09
2035.000000 4.04382000e+09
2045.000000 3.98698000e+09
2055.000000 3.88815000e+09
2065.000000 3.84961000e+09
2074.000000 3.86444000e+09
2078.000000 3.78144000e+09
2085.000000 3.77464000e+09
2095.000000 3.69088000e+09
2105.000000 3.67987000e+09
2115.000000 3.64255000e+09
2125.000000 3.60743000e+09
2135.000000 3.55429000e+09
2145.000000 3.49683000e+09
2155.000000 3.46072000e+09
2165.000000 3.41620000e+09
2175.000000 3.36790000e+09
2185.000000 3.32657000e+09
2195.000000 3.28632000e+09
2205.000000 3.24186000e+09
2215.000000 3.20006000e+09
2225.000000 3.15538000e+09
2235.000000 3.11521000e+09
2245.000000 3.07840000e+09
2255.000000 3.03597000e+09
2265.000000 3.00056000e+09
2275.000000 2.96194000e+09
2285.000000 2.92647000e+09
2295.000000 2.86869000e+09
2305.000000 2.85180000e+09
2315.000000 2.81358000e+09
2325.000000 2.77967000e+09
2335.000000 2.74057000e+09
2345.000000 2.70451000e+09
2355.000000 2.67778000e+09
2365.000000 2.64205000e+09
2375.000000 2.61090000e+09
2385.000000 2.57475000e+09
2395.000000 2.54521000e+09
2405.000000 2.51504000e+09
2415.000000 2.48372000e+09
2425.000000 2.45854000e+09
2435.000000 2.42682000e+09
2445.000000 2.39844000e+09
2455.000000 2.37175000e+09
2465.000000 2.34213000e+09
2475.000000 2.31513000e+09
2485.000000 2.28750000e+09
2495.000000 2.24015000e+09
2505.000000 2.23323000e+09
2513.000000 2.20185000e+09
2518.000000 2.20001000e+09
2525.000000 2.18139000e+09
2535.000000 2.15472000e+09
2545.000000 2.12740000e+09
2555.000000 2.10801000e+09
2565.000000 2.08279000e+09
2575.000000 2.06079000e+09
2585.000000 2.03733000e+09
2595.000000 2.01382000e+09
2605.000000 2.00616000e+09
2615.000000 1.98473000e+09
2625.000000 1.96292000e+09
2635.000000 1.93763000e+09
2645.000000 1.91735000e+09
2655.000000 1.89267000e+09
2665.000000 1.86656000e+09
2675.000000 1.84394000e+09
2685.000000 1.83745000e+09
2695.000000 1.80060000e+09
2705.000000 1.79689000e+09
2715.000000 1.77693000e+09
2725.000000 1.74093000e+09
2735.000000 1.73859000e+09
2745.000000 1.71515000e+09
2755.000000 1.69781000e+09
2765.000000 1.66574000e+09
2775.000000 1.66486000e+09
2785.000000 1.64661000e+09
2795.000000 1.61310000e+09
2805.000000 1.60569000e+09
2815.000000 1.59492000e+09
2825.000000 1.55821000e+09
2835.000000 1.54620000e+09
2845.000000 1.54466000e+09
2855.000000 1.52859000e+09
2865.000000 1.51280000e+09
2875.000000 1.49691000e+09
2885.000000 1.48144000e+09
2895.000000 1.46605000e+09
2910.000000 1.44333000e+09
2930.000000 1.41351000e+09
2950.000000 1.37333000e+09
2970.000000 1.35707000e+09
2990.000000 1.32949000e+09
3010.000000 1.30311000e+09
3030.000000 1.27743000e+09
3050.000000 1.25219000e+09
3070.000000 1.22761000e+09
3090.000000 1.20333000e+09
3110.000000 1.18023000e+09
3130.000000 1.15877000e+09
3150.000000 1.13655000e+09
3170.000000 1.11442000e+09
3190.000000 1.08301000e+09
3210.000000 1.07219000e+09
3230.000000 1.05180000e+09
3250.000000 1.03194000e+09
3270.000000 1.01404000e+09
3290.000000 9.93743000e+08
3310.000000 9.77026000e+08
3330.000000 9.59108000e+08
3350.000000 9.39801000e+08
3370.000000 9.24566000e+08
3390.000000 9.07919000e+08
3410.000000 8.91631000e+08
3430.000000 8.71817000e+08
3450.000000 8.53097000e+08
3470.000000 8.40632000e+08
3490.000000 8.25829000e+08
3510.000000 8.13264000e+08
3530.000000 8.00900000e+08
3550.000000 7.87328000e+08
3570.000000 7.78442000e+08
3590.000000 7.59738000e+08
3610.000000 7.49146000e+08
3630.000000 7.34223000e+08
3640.000000 7.33408000e+08
3650.000000 7.21703000e+08
3670.000000 7.12935000e+08
3690.000000 6.99501000e+08
3710.000000 6.75147000e+08
3730.000000 6.45885000e+08
3750.000000 6.69286000e+08
3770.000000 6.68883000e+08
3790.000000 7.15450000e+08
3810.000000 7.53999000e+08
3830.000000 6.46395000e+08
3850.000000 7.86881000e+08
3870.000000 8.05734000e+08
3890.000000 6.08036000e+08
3910.000000 7.95469000e+08
3930.000000 7.92539000e+08
3950.000000 7.71640000e+08
3970.000000 5.66711000e+08
3990.000000 7.37434000e+08
4010.000000 7.42138000e+08
4030.000000 6.90045000e+08
4050.000000 7.28355000e+08
4070.000000 7.11321000e+08
4090.000000 6.33621000e+08
4110.000000 5.42320000e+08
4130.000000 6.64167000e+08
4150.000000 6.62024000e+08
4170.000000 6.58462000e+08
4190.000000 6.50196000e+08
4210.000000 6.39590000e+08
4230.000000 6.29009000e+08
4250.000000 6.18598000e+08
4270.000000 6.07093000e+08
4290.000000 5.96533000e+08
4310.000000 5.81599000e+08
4330.000000 5.08363000e+08
4350.000000 4.59462000e+08
4370.000000 5.51515000e+08
4390.000000 5.29846000e+08
4410.000000 5.42311000e+08
4430.000000 5.31666000e+08
4450.000000 5.25985000e+08
4470.000000 4.87483000e+08
4490.000000 5.08862000e+08
4510.000000 5.02229000e+08
4530.000000 4.94426000e+08
4550.000000 4.86778000e+08
4570.000000 4.79279000e+08
4590.000000 4.72000000e+08
4610.000000 4.64812000e+08
4630.000000 4.57747000e+08
4650.000000 4.50629000e+08
4670.000000 4.44048000e+08
4690.000000 4.37392000e+08
4710.000000 4.24379000e+08
4730.000000 4.24267000e+08
4750.000000 4.17796000e+08
4770.000000 4.12032000e+08
4790.000000 4.05626000e+08
4810.000000 3.98417000e+08
4830.000000 3.89036000e+08
4850.000000 3.48181000e+08
4870.000000 3.07300000e+08
4890.000000 3.69827000e+08
4910.000000 3.69274000e+08
4930.000000 3.54302000e+08
4950.000000 3.61239000e+08
4970.000000 3.56187000e+08
4990.000000 3.51129000e+08
5010.000000 3.40976000e+08
5030.000000 3.41263000e+08
5050.000000 3.33986000e+08
5070.000000 3.31810000e+08
5090.000000 3.27201000e+08
5110.000000 3.22654000e+08
5130.000000 3.18182000e+08
5150.000000 3.13784000e+08
5170.000000 3.09514000e+08
5190.000000 3.05273000e+08
5210.000000 3.01074000e+08
5230.000000 2.97027000e+08
5250.000000 2.93005000e+08
5270.000000 2.89063000e+08
5290.000000 2.85171000e+08
5310.000000 2.81357000e+08
5330.000000 2.77592000e+08
5350.000000 2.73888000e+08
5370.000000 2.70284000e+08
5390.000000 2.66713000e+08
5410.000000 2.63200000e+08
5430.000000 2.59731000e+08
5450.000000 2.56345000e+08
5470.000000 2.53013000e+08
5490.000000 2.49723000e+08
5510.000000 2.46486000e+08
5530.000000 2.43315000e+08
5550.000000 2.40182000e+08
5570.000000 2.37113000e+08
5590.000000 2.34081000e+08
5610.000000 2.31098000e+08
5630.000000 2.28175000e+08
5650.000000 2.25265000e+08
5670.000000 2.22424000e+08
5690.000000 2.19619000e+08
5710.000000 2.16893000e+08
5730.000000 2.14188000e+08
5750.000000 2.11515000e+08
5770.000000 2.08897000e+08
5790.000000 2.06322000e+08
5810.000000 2.03777000e+08
5830.000000 2.01261000e+08
5850.000000 1.98798000e+08
5870.000000 1.89278000e+08
5890.000000 1.93468000e+08
5910.000000 1.91632000e+08
5930.000000 1.89313000e+08
5950.000000 1.87021000e+08
5970.000000 1.84777000e+08
5990.000000 1.82558000e+08
6010.000000 1.80385000e+08
6030.000000 1.78227000e+08
6050.000000 1.76114000e+08
6070.000000 1.74035000e+08
6090.000000 1.71980000e+08
6110.000000 1.69958000e+08
6130.000000 1.67968000e+08
6150.000000 1.65991000e+08
6170.000000 1.64066000e+08
6190.000000 1.62162000e+08
6210.000000 1.60279000e+08
6230.000000 1.58426000e+08
6250.000000 1.56604000e+08
6270.000000 1.54801000e+08
6290.000000 1.53028000e+08
6310.000000 1.51284000e+08
6330.000000 1.49558000e+08
6350.000000 1.47842000e+08
6370.000000 1.46182000e+08
6390.000000 1.44539000e+08
6410.000000 1.42914000e+08
6430.000000 1.41307000e+08
6450.000000 1.39726000e+08
6470.000000 1.38161000e+08
6490.000000 1.36622000e+08
6510.000000 1.34717000e+08
6530.000000 1.32453000e+08
6550.000000 1.24472000e+08
6570.000000 1.09367000e+08
6590.000000 1.26860000e+08
6610.000000 1.27275000e+08
6630.000000 1.26320000e+08
6650.000000 1.25169000e+08
6670.000000 1.22277000e+08
6690.000000 1.20992000e+08
6710.000000 1.21150000e+08
6730.000000 1.19849000e+08
6750.000000 1.18561000e+08
6770.000000 1.17294000e+08
6790.000000 1.16032000e+08
6810.000000 1.14807000e+08
6830.000000 1.13587000e+08
6850.000000 1.12387000e+08
6870.000000 1.11198000e+08
6890.000000 1.10030000e+08
6910.000000 1.08873000e+08
6930.000000 1.07736000e+08
6950.000000 1.06610000e+08
6970.000000 1.05495000e+08
6990.000000 1.04398000e+08
7010.000000 1.03321000e+08
7030.000000 1.02253000e+08
7050.000000 1.01196000e+08
7070.000000 9.84088000e+07
7090.000000 9.91360000e+07
7110.000000 9.81170000e+07
7130.000000 9.71153000e+07
7150.000000 9.61306000e+07
7170.000000 9.51407000e+07
7190.000000 9.41895000e+07
7210.000000 9.32401000e+07
7230.000000 9.22204000e+07
7250.000000 9.13755000e+07
7270.000000 9.04600000e+07
7290.000000 8.87734000e+07
7310.000000 8.86549000e+07
7330.000000 8.77861000e+07
7350.000000 8.69115000e+07
7370.000000 8.60521000e+07
7390.000000 8.52075000e+07
7410.000000 8.43708000e+07
7430.000000 8.35419000e+07
7450.000000 8.27342000e+07
7470.000000 8.19272000e+07
7490.000000 8.11276000e+07
7510.000000 8.03087000e+07
7530.000000 7.95637000e+07
7550.000000 7.87925000e+07
7570.000000 7.80348000e+07
7590.000000 7.72841000e+07
7610.000000 7.65401000e+07
7630.000000 7.58093000e+07
7650.000000 7.50852000e+07
7670.000000 7.43739000e+07
7690.000000 7.36627000e+07
7710.000000 7.29641000e+07
7730.000000 7.22781000e+07
7750.000000 7.15919000e+07
7770.000000 7.09118000e+07
7790.000000 7.02564000e+07
7810.000000 6.95512000e+07
7830.000000 6.89444000e+07
7850.000000 6.83795000e+07
7870.000000 6.77405000e+07
7890.000000 6.70647000e+07
7910.000000 6.64971000e+07
7930.000000 6.58806000e+07
7950.000000 6.52634000e+07
7970.000000 6.45389000e+07
7990.000000 6.39330000e+07
8010.000000 6.33323000e+07
8030.000000 6.27484000e+07
8050.000000 6.21754000e+07
8070.000000 6.16362000e+07
8090.000000 6.09922000e+07
8110.000000 6.05314000e+07
8130.000000 6.00174000e+07
8150.000000 5.94169000e+07
8170.000000 5.89627000e+07
8190.000000 5.83661000e+07
8210.000000 5.77132000e+07
8230.000000 5.73608000e+07
8250.000000 5.68671000e+07
8270.000000 5.60911000e+07
8290.000000 5.58318000e+07
8310.000000 5.53724000e+07
8330.000000 5.48517000e+07
8350.000000 5.40975000e+07
8370.000000 5.38124000e+07
8390.000000 5.34261000e+07
8410.000000 5.29545000e+07
8430.000000 5.24411000e+07
8450.000000 5.16238000e+07
8470.000000 5.14896000e+07
8490.000000 5.09337000e+07
8510.000000 5.04714000e+07
8530.000000 5.00527000e+07
8550.000000 4.91453000e+07
8570.000000 4.96835000e+07
8590.000000 4.77579000e+07
8610.000000 4.76938000e+07
8630.000000 4.88403000e+07
8650.000000 4.72996000e+07
8670.000000 4.46910000e+07
8690.000000 4.75695000e+07
8710.000000 4.79517000e+07
8730.000000 4.62340000e+07
8750.000000 4.18852000e+07
8770.000000 4.46754000e+07
8790.000000 4.66489000e+07
8810.000000 4.65888000e+07
8830.000000 4.57976000e+07
8850.000000 4.23307000e+07
8870.000000 3.92713000e+07
8890.000000 4.38788000e+07
8910.000000 4.47184000e+07
8930.000000 4.45519000e+07
8950.000000 4.43323000e+07
8970.000000 4.37490000e+07
8990.000000 4.20480000e+07
9010.000000 3.70418000e+07
9030.000000 3.88063000e+07
9050.000000 4.17384000e+07
9070.000000 4.16173000e+07
9090.000000 4.17558000e+07
9110.000000 4.16403000e+07
9130.000000 4.13351000e+07
9150.000000 4.09625000e+07
9170.000000 4.03983000e+07
9190.000000 3.98046000e+07
9210.000000 3.74917000e+07
9230.000000 3.29246000e+07
9250.000000 3.67992000e+07
9270.000000 3.84336000e+07
9290.000000 3.85647000e+07
9310.000000 3.81793000e+07
9330.000000 3.81581000e+07
9350.000000 3.78529000e+07
9370.000000 3.75983000e+07
9390.000000 3.72978000e+07
9410.000000 3.69952000e+07
9430.000000 3.67049000e+07
9450.000000 3.63544000e+07
9470.000000 3.57205000e+07
9490.000000 3.55855000e+07
9510.000000 3.46129000e+07
9530.000000 3.25572000e+07
9550.000000 2.89508000e+07
9570.000000 3.28360000e+07
9590.000000 3.39150000e+07
9610.000000 3.38629000e+07
9630.000000 3.36041000e+07
9650.000000 3.36292000e+07
9670.000000 3.33875000e+07
9690.000000 3.30886000e+07
9710.000000 3.27534000e+07
9730.000000 3.26181000e+07
9750.000000 3.23663000e+07
9770.000000 3.21171000e+07
9790.000000 3.18701000e+07
9810.000000 3.16256000e+07
9830.000000 3.13836000e+07
9850.000000 3.11436000e+07
9870.000000 3.09058000e+07
9890.000000 3.06704000e+07
9910.000000 3.04282000e+07
9930.000000 3.02060000e+07
9950.000000 2.99523000e+07
9970.000000 2.96560000e+07
9990.000000 2.93407000e+07
10025.000000 2.74205000e+07
10075.000000 2.64743000e+07
10125.000000 2.78623000e+07
10175.000000 2.75462000e+07
10225.000000 2.70278000e+07
10275.000000 2.65488000e+07
10325.000000 2.59481000e+07
10375.000000 2.55936000e+07
10425.000000 2.51320000e+07
10475.000000 2.46812000e+07
10525.000000 2.42401000e+07
10575.000000 2.38090000e+07
10625.000000 2.33872000e+07
10675.000000 2.29194000e+07
10725.000000 2.25715000e+07
10775.000000 2.21769000e+07
10825.000000 2.15135000e+07
10875.000000 2.12524000e+07
10925.000000 1.89940000e+07
10975.000000 1.99383000e+07
11025.000000 2.01170000e+07
11075.000000 1.99499000e+07
11125.000000 1.96453000e+07
11175.000000 1.93139000e+07
11225.000000 1.89775000e+07
11275.000000 1.86715000e+07
11325.000000 1.83607000e+07
11375.000000 1.80561000e+07
11425.000000 1.77578000e+07
11475.000000 1.74658000e+07
11525.000000 1.71796000e+07
11575.000000 1.68993000e+07
11625.000000 1.66246000e+07
11675.000000 1.63557000e+07
11725.000000 1.60921000e+07
11775.000000 1.58334000e+07
11825.000000 1.55805000e+07
11875.000000 1.53323000e+07
11925.000000 1.50890000e+07
11975.000000 1.46656000e+07
12025.000000 1.46171000e+07
12075.000000 1.43880000e+07
12125.000000 1.41635000e+07
12175.000000 1.39432000e+07
12225.000000 1.37273000e+07
12275.000000 1.35154000e+07
12325.000000 1.33078000e+07
12375.000000 1.31040000e+07
12425.000000 1.29041000e+07
12475.000000 1.27079000e+07
12525.000000 1.24854000e+07
12575.000000 1.23270000e+07
12625.000000 1.21416000e+07
12675.000000 1.19599000e+07
12725.000000 1.17480000e+07
12775.000000 1.13175000e+07
12825.000000 1.03399000e+07
12875.000000 1.11206000e+07
12925.000000 1.10764000e+07
12975.000000 1.08400000e+07
13025.000000 1.07793000e+07
13075.000000 1.06228000e+07
