# Kurucz ODFNEW /NOVER, alpha: 0.0 (2003)
# teff = 7250 K (value for the effective temperature for the model. Temperatures are given in K)
# logg = 4.5 log(cm/s2) (value for Log(G) for the model.)
# lh = 1.25  (l/Hp where l is the  mixing length of the convective element and Hp is the pressure scale height)
# meta = -2.5  (value for the Metallicity for the model.)
# vtur = 2 km/s (Microturbulence velocity)
# alpha = 0  (Alpha)
#
# column 1: WAVELENGTH (ANGSTROM), Wavelength in Angstrom
# column 2: FLUX (ERG/CM2/S/A), Flux in erg/cm2/s/A
318.000000 1.21587000e-23
328.000000 2.40271000e-22
338.000000 2.53634000e-21
348.000000 2.30214000e-20
357.000000 1.50161000e-19
366.000000 1.42678000e-20
375.000000 7.11078000e-20
385.000000 3.85866000e-19
395.000000 1.91029000e-18
405.000000 8.69469000e-18
414.000000 3.18227000e-17
422.000000 9.59043000e-17
430.000000 2.76608000e-16
441.000000 1.10967000e-15
451.000000 3.68115000e-15
460.000000 1.03262000e-14
470.000000 3.09109000e-14
480.000000 8.80327000e-14
490.000000 2.39500000e-13
500.000000 6.23352000e-13
506.000000 1.43676000e-12
512.000000 2.78037000e-12
520.000000 5.57738000e-12
530.000000 1.29895000e-11
540.000000 2.87444000e-11
550.000000 6.24200000e-11
560.000000 1.30678000e-10
570.000000 2.65821000e-10
580.000000 5.20232000e-10
590.000000 1.01546000e-09
600.000000 1.91211000e-09
610.000000 3.51823000e-09
620.000000 6.33246000e-09
630.000000 1.11624000e-08
640.000000 1.92982000e-08
650.000000 3.27411000e-08
658.000000 4.93287000e-08
665.000000 6.99645000e-08
675.000000 1.13641000e-07
685.000000 1.81635000e-07
695.000000 2.85910000e-07
705.000000 4.43480000e-07
716.000000 7.07257000e-07
726.000000 1.06598000e-06
735.000000 1.52568000e-06
745.000000 2.24643000e-06
755.000000 3.26888000e-06
765.000000 4.70306000e-06
775.000000 6.69379000e-06
785.000000 9.42764000e-06
795.000000 1.31451000e-05
805.000000 1.81561000e-05
815.000000 2.48444000e-05
825.000000 3.36991000e-05
835.000000 4.53291000e-05
845.000000 6.04698000e-05
855.000000 8.00329000e-05
865.000000 1.05120000e-04
875.000000 1.37047000e-04
885.000000 1.77430000e-04
895.000000 2.28142000e-04
905.000000 2.91398000e-04
915.000000 4.48714000e-01
925.000000 2.83450000e+00
935.000000 4.90269000e+00
945.000000 8.51899000e+00
955.000000 1.19654000e+01
965.000000 1.57424000e+01
975.000000 1.36219000e+01
985.000000 2.64484000e+01
995.000000 3.26810000e+01
1005.000000 3.92833000e+01
1015.000000 4.05024000e+01
1025.000000 3.32278000e+01
1035.000000 6.21877000e+01
1045.000000 8.79498000e+01
1055.000000 1.03529000e+02
1065.000000 1.28760000e+02
1075.000000 1.54672000e+02
1085.000000 1.88130000e+02
1095.000000 2.17207000e+02
1105.000000 2.68790000e+02
1115.000000 3.27238000e+02
1125.000000 3.72078000e+02
1135.000000 4.43925000e+02
1145.000000 5.05227000e+02
1155.000000 5.50399000e+02
1165.000000 6.15519000e+02
1175.000000 6.51692000e+02
1185.000000 7.90227000e+02
1195.000000 6.13203000e+02
1205.000000 4.44128000e+02
1215.000000 2.13162000e+02
1225.000000 5.23084000e+02
1235.000000 1.02282000e+03
1245.000000 5.19489000e+02
1255.000000 1.40667000e+03
1265.000000 2.10941000e+03
1275.000000 2.52833000e+03
1285.000000 3.09054000e+03
1295.000000 3.67783000e+03
1305.000000 4.29350000e+03
1315.000000 5.03824000e+03
1325.000000 5.81201000e+03
1335.000000 6.64034000e+03
1345.000000 7.70233000e+03
1355.000000 8.69051000e+03
1365.000000 9.99982000e+03
1375.000000 1.11754000e+04
1385.000000 1.24015000e+04
1395.000000 1.38939000e+04
1405.000000 1.52593000e+04
1415.000000 1.73865000e+04
1425.000000 1.87583000e+04
1435.000000 2.06822000e+04
1442.000000 2.27321000e+04
1447.000000 2.29495000e+04
1455.000000 2.52674000e+04
1465.000000 2.66720000e+04
1475.000000 2.94977000e+04
1485.000000 3.20486000e+04
1495.000000 3.52790000e+04
1505.000000 3.86339000e+04
1512.000000 4.10471000e+04
1517.000000 4.11977000e+04
1525.000000 4.41262000e+04
1535.000000 4.71906000e+04
1545.000000 4.96198000e+04
1555.000000 5.25219000e+04
1565.000000 5.32510000e+04
1575.000000 5.82386000e+04
1585.000000 6.19254000e+04
1595.000000 6.62039000e+04
1605.000000 7.02193000e+04
1615.000000 7.78281000e+04
1625.000000 8.76331000e+04
1635.000000 1.03973000e+05
1645.000000 1.54324000e+05
1655.000000 2.65125000e+05
1665.000000 8.75594000e+05
1672.000000 1.33846000e+06
1677.000000 2.08517000e+06
1685.000000 3.19432000e+06
1695.000000 4.46459000e+06
1705.000000 5.94027000e+06
1715.000000 7.40734000e+06
1725.000000 8.22313000e+06
1735.000000 9.29989000e+06
1745.000000 9.48126000e+06
1755.000000 1.02953000e+07
1765.000000 9.64878000e+06
1775.000000 1.05980000e+07
1785.000000 1.08923000e+07
1795.000000 1.16232000e+07
1805.000000 1.13970000e+07
1815.000000 1.16282000e+07
1825.000000 1.14050000e+07
1835.000000 1.19579000e+07
1845.000000 1.13095000e+07
1855.000000 1.19401000e+07
1865.000000 1.24742000e+07
1875.000000 1.25611000e+07
1885.000000 1.27346000e+07
1895.000000 1.31262000e+07
1905.000000 1.29379000e+07
1915.000000 1.35068000e+07
1925.000000 1.39117000e+07
1935.000000 1.34182000e+07
1945.000000 1.42316000e+07
1955.000000 1.43357000e+07
1967.000000 1.47904000e+07
1976.000000 1.44167000e+07
1984.000000 1.44901000e+07
1995.000000 1.47331000e+07
2005.000000 1.44271000e+07
2015.000000 1.46953000e+07
2025.000000 1.41693000e+07
2035.000000 1.52539000e+07
2045.000000 1.56015000e+07
2055.000000 1.53608000e+07
2065.000000 1.54023000e+07
2074.000000 1.61763000e+07
2078.000000 1.61437000e+07
2085.000000 1.60762000e+07
2095.000000 1.59532000e+07
2105.000000 1.59040000e+07
2115.000000 1.62567000e+07
2125.000000 1.63586000e+07
2135.000000 1.58536000e+07
2145.000000 1.65634000e+07
2155.000000 1.64441000e+07
2165.000000 1.60410000e+07
2175.000000 1.62339000e+07
2185.000000 1.66474000e+07
2195.000000 1.71936000e+07
2205.000000 1.68907000e+07
2215.000000 1.63132000e+07
2225.000000 1.68206000e+07
2235.000000 1.77300000e+07
2245.000000 1.73041000e+07
2255.000000 1.67086000e+07
2265.000000 1.63507000e+07
2275.000000 1.71651000e+07
2285.000000 1.74041000e+07
2295.000000 1.69517000e+07
2305.000000 1.73991000e+07
2315.000000 1.74164000e+07
2325.000000 1.74321000e+07
2335.000000 1.74938000e+07
2345.000000 1.64516000e+07
2355.000000 1.78480000e+07
2365.000000 1.68952000e+07
2375.000000 1.75714000e+07
2385.000000 1.62157000e+07
2395.000000 1.74440000e+07
2405.000000 1.73709000e+07
2415.000000 1.74547000e+07
2425.000000 1.82316000e+07
2435.000000 1.78147000e+07
2445.000000 1.81041000e+07
2455.000000 1.81063000e+07
2465.000000 1.78078000e+07
2475.000000 1.75750000e+07
2485.000000 1.76285000e+07
2495.000000 1.74469000e+07
2505.000000 1.85086000e+07
2513.000000 1.76476000e+07
2518.000000 1.74523000e+07
2525.000000 1.70153000e+07
2535.000000 1.70730000e+07
2545.000000 1.70862000e+07
2555.000000 1.81987000e+07
2565.000000 1.82025000e+07
2575.000000 1.87517000e+07
2585.000000 1.89176000e+07
2595.000000 1.88420000e+07
2605.000000 1.85066000e+07
2615.000000 1.83880000e+07
2625.000000 1.87205000e+07
2635.000000 1.88679000e+07
2645.000000 2.00308000e+07
2655.000000 2.00095000e+07
2665.000000 1.93472000e+07
2675.000000 1.96956000e+07
2685.000000 2.00603000e+07
2695.000000 1.96222000e+07
2705.000000 1.97148000e+07
2715.000000 1.90843000e+07
2725.000000 1.91444000e+07
2735.000000 1.94287000e+07
2745.000000 1.82859000e+07
2755.000000 1.85783000e+07
2765.000000 1.92898000e+07
2775.000000 1.97508000e+07
2785.000000 1.95310000e+07
2795.000000 1.69600000e+07
2805.000000 1.82235000e+07
2815.000000 2.03292000e+07
2825.000000 2.02139000e+07
2835.000000 1.99023000e+07
2845.000000 1.97571000e+07
2855.000000 1.89492000e+07
2865.000000 1.96630000e+07
2875.000000 1.97056000e+07
2885.000000 1.99675000e+07
2895.000000 2.02034000e+07
2910.000000 2.04681000e+07
2930.000000 2.01238000e+07
2950.000000 1.99185000e+07
2970.000000 2.00107000e+07
2990.000000 2.00419000e+07
3010.000000 2.00375000e+07
3030.000000 2.00890000e+07
3050.000000 2.01480000e+07
3070.000000 2.01681000e+07
3090.000000 2.01640000e+07
3110.000000 2.01458000e+07
3130.000000 2.01768000e+07
3150.000000 2.02373000e+07
3170.000000 2.02343000e+07
3190.000000 1.98555000e+07
3210.000000 1.99682000e+07
3230.000000 1.97535000e+07
3250.000000 1.99577000e+07
3270.000000 2.01518000e+07
3290.000000 2.01731000e+07
3310.000000 2.01546000e+07
3330.000000 1.99710000e+07
3350.000000 1.97819000e+07
3370.000000 1.97565000e+07
3390.000000 1.96821000e+07
3410.000000 1.97940000e+07
3430.000000 1.97531000e+07
3450.000000 1.95991000e+07
3470.000000 1.95888000e+07
3490.000000 1.96142000e+07
3510.000000 1.96445000e+07
3530.000000 1.95879000e+07
3550.000000 1.96061000e+07
3570.000000 1.93341000e+07
3590.000000 1.92955000e+07
3610.000000 1.92624000e+07
3630.000000 1.92975000e+07
3640.000000 1.93315000e+07
3650.000000 1.93623000e+07
3670.000000 1.94153000e+07
3690.000000 1.87578000e+07
3710.000000 1.89111000e+07
3730.000000 1.84564000e+07
3750.000000 2.14221000e+07
3770.000000 2.20290000e+07
3790.000000 2.47144000e+07
3810.000000 2.75123000e+07
3830.000000 2.31748000e+07
3850.000000 2.93123000e+07
3870.000000 3.12237000e+07
3890.000000 2.19650000e+07
3910.000000 3.12806000e+07
3930.000000 3.16582000e+07
3950.000000 3.13215000e+07
3970.000000 2.14649000e+07
3990.000000 3.06091000e+07
4010.000000 3.23990000e+07
4030.000000 3.24702000e+07
4050.000000 3.22055000e+07
4070.000000 3.12393000e+07
4090.000000 2.73920000e+07
4110.000000 2.26701000e+07
4130.000000 3.05745000e+07
4150.000000 3.12255000e+07
4170.000000 3.12733000e+07
4190.000000 3.10699000e+07
4210.000000 3.08456000e+07
4230.000000 3.05567000e+07
4250.000000 3.04429000e+07
4270.000000 3.01274000e+07
4290.000000 2.98860000e+07
4310.000000 2.89968000e+07
4330.000000 2.47109000e+07
4350.000000 2.19060000e+07
4370.000000 2.84112000e+07
4390.000000 2.88762000e+07
4410.000000 2.88628000e+07
4430.000000 2.88312000e+07
4450.000000 2.86735000e+07
4470.000000 2.85174000e+07
4490.000000 2.83499000e+07
4510.000000 2.81860000e+07
4530.000000 2.79707000e+07
4550.000000 2.77745000e+07
4570.000000 2.76402000e+07
4590.000000 2.74481000e+07
4610.000000 2.72885000e+07
4630.000000 2.70972000e+07
4650.000000 2.69255000e+07
4670.000000 2.67559000e+07
4690.000000 2.65693000e+07
4710.000000 2.63543000e+07
4730.000000 2.62161000e+07
4750.000000 2.59991000e+07
4770.000000 2.57981000e+07
4790.000000 2.55667000e+07
4810.000000 2.52471000e+07
4830.000000 2.45766000e+07
4850.000000 2.14867000e+07
4870.000000 1.83894000e+07
4890.000000 2.37818000e+07
4910.000000 2.43526000e+07
4930.000000 2.43197000e+07
4950.000000 2.42620000e+07
4970.000000 2.41632000e+07
4990.000000 2.40243000e+07
5010.000000 2.38389000e+07
5030.000000 2.37227000e+07
5050.000000 2.35558000e+07
5070.000000 2.34129000e+07
5090.000000 2.32540000e+07
5110.000000 2.31011000e+07
5130.000000 2.29428000e+07
5150.000000 2.27778000e+07
5170.000000 2.24694000e+07
5190.000000 2.23889000e+07
5210.000000 2.23075000e+07
5230.000000 2.21524000e+07
5250.000000 2.20468000e+07
5270.000000 2.18445000e+07
5290.000000 2.17483000e+07
5310.000000 2.16035000e+07
5330.000000 2.14284000e+07
5350.000000 2.13172000e+07
5370.000000 2.11613000e+07
5390.000000 2.10253000e+07
5410.000000 2.08727000e+07
5430.000000 2.07422000e+07
5450.000000 2.06030000e+07
5470.000000 2.04765000e+07
5490.000000 2.03476000e+07
5510.000000 2.02125000e+07
5530.000000 2.00752000e+07
5550.000000 1.99467000e+07
5570.000000 1.98073000e+07
5590.000000 1.96719000e+07
5610.000000 1.95451000e+07
5630.000000 1.94219000e+07
5650.000000 1.92941000e+07
5670.000000 1.91641000e+07
5690.000000 1.90389000e+07
5710.000000 1.89127000e+07
5730.000000 1.87901000e+07
5750.000000 1.86641000e+07
5770.000000 1.85418000e+07
5790.000000 1.84195000e+07
5810.000000 1.82974000e+07
5830.000000 1.81776000e+07
5850.000000 1.80557000e+07
5870.000000 1.79373000e+07
5890.000000 1.77581000e+07
5910.000000 1.77017000e+07
5930.000000 1.75858000e+07
5950.000000 1.74709000e+07
5970.000000 1.73562000e+07
5990.000000 1.72415000e+07
6010.000000 1.71280000e+07
6030.000000 1.70156000e+07
6050.000000 1.69053000e+07
6070.000000 1.67952000e+07
6090.000000 1.66850000e+07
6110.000000 1.65760000e+07
6130.000000 1.64630000e+07
6150.000000 1.63581000e+07
6170.000000 1.62482000e+07
6190.000000 1.61483000e+07
6210.000000 1.60445000e+07
6230.000000 1.59387000e+07
6250.000000 1.58320000e+07
6270.000000 1.57341000e+07
6290.000000 1.56323000e+07
6310.000000 1.55295000e+07
6330.000000 1.54297000e+07
6350.000000 1.53298000e+07
6370.000000 1.52309000e+07
6390.000000 1.51330000e+07
6410.000000 1.50323000e+07
6430.000000 1.49362000e+07
6450.000000 1.48156000e+07
6470.000000 1.46990000e+07
6490.000000 1.45701000e+07
6510.000000 1.44078000e+07
6530.000000 1.40961000e+07
6550.000000 1.29187000e+07
6570.000000 1.08668000e+07
6590.000000 1.35691000e+07
6610.000000 1.38915000e+07
6630.000000 1.39132000e+07
6650.000000 1.38672000e+07
6670.000000 1.37977000e+07
6690.000000 1.37414000e+07
6710.000000 1.36546000e+07
6730.000000 1.35685000e+07
6750.000000 1.34825000e+07
6770.000000 1.33972000e+07
6790.000000 1.33126000e+07
6810.000000 1.32281000e+07
6830.000000 1.31442000e+07
6850.000000 1.30612000e+07
6870.000000 1.29797000e+07
6890.000000 1.28981000e+07
6910.000000 1.28164000e+07
6930.000000 1.27363000e+07
6950.000000 1.26560000e+07
6970.000000 1.25765000e+07
6990.000000 1.24977000e+07
7010.000000 1.24196000e+07
7030.000000 1.23422000e+07
7050.000000 1.22655000e+07
7070.000000 1.21886000e+07
7090.000000 1.21125000e+07
7110.000000 1.20362000e+07
7130.000000 1.19621000e+07
7150.000000 1.18872000e+07
7170.000000 1.18136000e+07
7190.000000 1.17407000e+07
7210.000000 1.16677000e+07
7230.000000 1.15967000e+07
7250.000000 1.15250000e+07
7270.000000 1.14538000e+07
7290.000000 1.13825000e+07
7310.000000 1.13126000e+07
7330.000000 1.12425000e+07
7350.000000 1.11744000e+07
7370.000000 1.11056000e+07
7390.000000 1.10372000e+07
7410.000000 1.09688000e+07
7430.000000 1.09017000e+07
7450.000000 1.08351000e+07
7470.000000 1.07690000e+07
7490.000000 1.07029000e+07
7510.000000 1.06379000e+07
7530.000000 1.05735000e+07
7550.000000 1.05096000e+07
7570.000000 1.04456000e+07
7590.000000 1.03821000e+07
7610.000000 1.03192000e+07
7630.000000 1.02567000e+07
7650.000000 1.01942000e+07
7670.000000 1.01321000e+07
7690.000000 1.00718000e+07
7710.000000 1.00101000e+07
7730.000000 9.95085000e+06
7750.000000 9.89015000e+06
7770.000000 9.82682000e+06
7790.000000 9.77270000e+06
7810.000000 9.71406000e+06
7830.000000 9.65529000e+06
7850.000000 9.59759000e+06
7870.000000 9.54036000e+06
7890.000000 9.48358000e+06
7910.000000 9.42725000e+06
7930.000000 9.37017000e+06
7950.000000 9.31474000e+06
7970.000000 9.26034000e+06
7990.000000 9.20519000e+06
8010.000000 9.15047000e+06
8030.000000 9.09677000e+06
8050.000000 9.04232000e+06
8070.000000 8.98946000e+06
8090.000000 8.93586000e+06
8110.000000 8.88382000e+06
8130.000000 8.83161000e+06
8150.000000 8.77925000e+06
8170.000000 8.72785000e+06
8190.000000 8.67404000e+06
8210.000000 8.62848000e+06
8230.000000 8.57825000e+06
8250.000000 8.53007000e+06
8270.000000 8.48280000e+06
8290.000000 8.43479000e+06
8310.000000 8.38660000e+06
8330.000000 8.33552000e+06
8350.000000 8.29078000e+06
8370.000000 8.24045000e+06
8390.000000 8.19050000e+06
8410.000000 8.14094000e+06
8430.000000 8.09600000e+06
8450.000000 8.04875000e+06
8470.000000 7.97192000e+06
8490.000000 7.96890000e+06
8510.000000 7.80976000e+06
8530.000000 7.88968000e+06
8550.000000 7.62915000e+06
8570.000000 7.82595000e+06
8590.000000 7.65374000e+06
8610.000000 7.55978000e+06
8630.000000 7.72813000e+06
8650.000000 7.61439000e+06
8670.000000 7.12223000e+06
8690.000000 7.58387000e+06
8710.000000 7.60221000e+06
8730.000000 7.49031000e+06
8750.000000 6.82775000e+06
8770.000000 7.32368000e+06
8790.000000 7.45471000e+06
8810.000000 7.43498000e+06
8830.000000 7.36027000e+06
8850.000000 7.06441000e+06
8870.000000 6.48289000e+06
8890.000000 7.16496000e+06
8910.000000 7.23818000e+06
8930.000000 7.22705000e+06
8950.000000 7.18962000e+06
8970.000000 7.12341000e+06
8990.000000 6.97941000e+06
9010.000000 6.22498000e+06
9030.000000 6.57629000e+06
9050.000000 6.90834000e+06
9070.000000 6.93972000e+06
9090.000000 6.91880000e+06
9110.000000 6.89889000e+06
9130.000000 6.86463000e+06
9150.000000 6.82205000e+06
9170.000000 6.76858000e+06
9190.000000 6.68563000e+06
9210.000000 6.48119000e+06
9230.000000 5.65318000e+06
9250.000000 6.35261000e+06
9270.000000 6.52821000e+06
9290.000000 6.54815000e+06
9310.000000 6.53221000e+06
9330.000000 6.50510000e+06
9350.000000 6.48463000e+06
9370.000000 6.45011000e+06
9390.000000 6.41540000e+06
9410.000000 6.37071000e+06
9430.000000 6.34372000e+06
9450.000000 6.29665000e+06
9470.000000 6.25454000e+06
9490.000000 6.20101000e+06
9510.000000 6.11289000e+06
9530.000000 5.87654000e+06
9550.000000 5.14023000e+06
9570.000000 5.86577000e+06
9590.000000 5.99535000e+06
9610.000000 6.00918000e+06
9630.000000 5.99318000e+06
9650.000000 5.97322000e+06
9670.000000 5.94854000e+06
9690.000000 5.92039000e+06
9710.000000 5.88964000e+06
9730.000000 5.85869000e+06
9750.000000 5.82754000e+06
9770.000000 5.79700000e+06
9790.000000 5.76665000e+06
9810.000000 5.73651000e+06
9830.000000 5.70617000e+06
9850.000000 5.67642000e+06
9870.000000 5.64687000e+06
9890.000000 5.61673000e+06
9910.000000 5.58756000e+06
9930.000000 5.55858000e+06
9950.000000 5.51685000e+06
9970.000000 5.47996000e+06
9990.000000 5.43426000e+06
10025.000000 5.16510000e+06
10075.000000 4.96884000e+06
10125.000000 5.25540000e+06
10175.000000 5.21370000e+06
10225.000000 5.15167000e+06
10275.000000 5.08666000e+06
10325.000000 5.02232000e+06
10375.000000 4.95933000e+06
10425.000000 4.89732000e+06
10475.000000 4.83522000e+06
10525.000000 4.77579000e+06
10575.000000 4.71625000e+06
10625.000000 4.65762000e+06
10675.000000 4.59326000e+06
10725.000000 4.54234000e+06
10775.000000 4.48698000e+06
10825.000000 4.42055000e+06
10875.000000 4.33476000e+06
10925.000000 3.89242000e+06
10975.000000 4.11570000e+06
11025.000000 4.19716000e+06
11075.000000 4.16641000e+06
11125.000000 4.12204000e+06
11175.000000 4.07287000e+06
11225.000000 4.02471000e+06
11275.000000 3.97635000e+06
11325.000000 3.92927000e+06
11375.000000 3.88345000e+06
11425.000000 3.83770000e+06
11475.000000 3.79317000e+06
11525.000000 3.74870000e+06
11575.000000 3.70514000e+06
11625.000000 3.66162000e+06
11675.000000 3.61872000e+06
11725.000000 3.57806000e+06
11775.000000 3.53415000e+06
11825.000000 3.49463000e+06
11875.000000 3.45537000e+06
11925.000000 3.41692000e+06
11975.000000 3.37584000e+06
12025.000000 3.33949000e+06
12075.000000 3.30104000e+06
12125.000000 3.26464000e+06
12175.000000 3.22822000e+06
12225.000000 3.19204000e+06
12275.000000 3.15634000e+06
12325.000000 3.12136000e+06
12375.000000 3.08659000e+06
12425.000000 3.05253000e+06
12475.000000 3.01891000e+06
12525.000000 2.98573000e+06
12575.000000 2.95274000e+06
12625.000000 2.91994000e+06
12675.000000 2.88030000e+06
12725.000000 2.83607000e+06
12775.000000 2.74028000e+06
12825.000000 2.42303000e+06
12875.000000 2.69833000e+06
12925.000000 2.71809000e+06
12975.000000 2.69942000e+06
13025.000000 2.67762000e+06
13075.000000 2.64925000e+06
13125.000000 2.62101000e+06
13175.000000 2.59313000e+06
13225.000000 2.56602000e+06
13275.000000 2.53881000e+06
13325.000000 2.51216000e+06
13375.000000 2.48583000e+06
13425.000000 2.45961000e+06
13475.000000 2.43392000e+06
13525.000000 2.40855000e+06
13575.000000 2.38348000e+06
13625.000000 2.35891000e+06
13675.000000 2.33444000e+06
13725.000000 2.31007000e+06
13775.000000 2.28658000e+06
13825.000000 2.26297000e+06
13875.000000 2.23984000e+06
13925.000000 2.21679000e+06
13975.000000 2.19421000e+06
14025.000000 2.17169000e+06
14075.000000 2.14964000e+06
14125.000000 2.12784000e+06
14175.000000 2.10629000e+06
14225.000000 2.08481000e+06
14275.000000 2.06357000e+06
14325.000000 2.04295000e+06
14375.000000 2.02238000e+06
14425.000000 2.00078000e+06
14475.000000 1.98177000e+06
14525.000000 1.96118000e+06
14570.000000 1.94394000e+06
14620.000000 1.92520000e+06
14675.000000 1.90433000e+06
14725.000000 1.88551000e+06
14775.000000 1.86690000e+06
14825.000000 1.84867000e+06
