# Kurucz ODFNEW /NOVER, alpha: 0.0 (2003)
# teff = 28000 K (value for the effective temperature for the model. Temperatures are given in K)
# logg = 4 log(cm/s2) (value for Log(G) for the model.)
# lh = 1.25  (l/Hp where l is the  mixing length of the convective element and Hp is the pressure scale height)
# meta = -1  (value for the Metallicity for the model.)
# vtur = 2 km/s (Microturbulence velocity)
# alpha = 0  (Alpha)
#
# column 1: WAVELENGTH (ANGSTROM), Wavelength in Angstrom
# column 2: FLUX (ERG/CM2/S/A), Flux in erg/cm2/s/A
147.200000 5.55292000e-11
151.000000 2.09670000e-10
155.200000 8.45094000e-10
158.800000 2.63424000e-09
162.000000 6.94245000e-09
166.000000 2.21203000e-08
170.300000 7.23294000e-08
173.400000 1.63847000e-07
176.800000 3.88550000e-07
180.200000 8.91599000e-07
181.700000 1.27334000e-06
186.100000 3.50566000e-06
191.000000 1.02430000e-05
193.900000 1.88258000e-05
198.400000 4.67101000e-05
201.800000 9.02987000e-05
205.000000 1.64551000e-04
210.500000 4.42312000e-04
216.200000 1.16753000e-03
219.800000 2.09918000e-03
223.000000 3.47934000e-03
226.800000 6.22526000e-03
230.000000 1.83501000e+00
234.000000 4.49171000e+00
240.000000 8.92836000e+00
246.500000 1.85475000e+01
252.400000 3.50191000e+01
256.800000 4.81938000e+01
260.000000 7.66054000e+01
264.000000 1.09155000e+02
268.500000 1.67524000e+02
273.500000 2.60223000e+02
278.500000 3.93009000e+02
284.000000 6.50832000e+02
290.000000 1.02747000e+03
296.000000 1.58941000e+03
301.000000 2.18222000e+03
308.000000 3.31795000e+03
318.000000 7.24073000e+03
328.000000 1.28489000e+04
338.000000 2.32173000e+04
348.000000 3.93889000e+04
357.000000 7.26063000e+04
366.000000 1.15846000e+05
375.000000 1.65806000e+05
385.000000 2.55253000e+05
395.000000 3.83599000e+05
405.000000 5.46680000e+05
414.000000 7.55740000e+05
422.000000 9.58959000e+05
430.000000 1.24302000e+06
441.000000 1.72716000e+06
451.000000 2.29519000e+06
460.000000 2.88422000e+06
470.000000 3.77071000e+06
480.000000 4.79660000e+06
490.000000 6.07710000e+06
500.000000 7.64731000e+06
506.000000 4.30971000e+07
512.000000 1.60640000e+08
520.000000 1.68678000e+08
530.000000 1.85307000e+08
540.000000 1.82215000e+08
550.000000 2.27843000e+08
560.000000 2.55410000e+08
570.000000 2.84594000e+08
580.000000 2.73823000e+08
590.000000 3.24208000e+08
600.000000 3.43096000e+08
610.000000 3.77884000e+08
620.000000 4.11335000e+08
630.000000 4.35996000e+08
640.000000 4.39208000e+08
650.000000 4.69035000e+08
658.000000 5.03006000e+08
665.000000 5.34718000e+08
675.000000 5.48791000e+08
685.000000 5.59315000e+08
695.000000 6.44244000e+08
705.000000 6.48435000e+08
716.000000 7.12607000e+08
726.000000 7.33123000e+08
735.000000 7.60676000e+08
745.000000 8.17093000e+08
755.000000 8.49521000e+08
765.000000 8.90220000e+08
775.000000 9.32940000e+08
785.000000 9.84335000e+08
795.000000 1.01230000e+09
805.000000 1.04469000e+09
815.000000 1.06606000e+09
825.000000 1.12594000e+09
835.000000 1.08136000e+09
845.000000 1.17352000e+09
855.000000 1.20487000e+09
865.000000 1.25456000e+09
875.000000 1.30818000e+09
885.000000 1.36267000e+09
895.000000 1.40416000e+09
905.000000 1.42017000e+09
915.000000 1.89372000e+09
925.000000 1.17881000e+10
935.000000 2.39623000e+10
945.000000 4.22701000e+10
955.000000 4.78458000e+10
965.000000 5.66333000e+10
975.000000 2.33815000e+10
985.000000 5.28386000e+10
995.000000 4.91448000e+10
1005.000000 5.15547000e+10
1015.000000 5.04927000e+10
1025.000000 3.01491000e+10
1035.000000 4.58768000e+10
1045.000000 5.38414000e+10
1055.000000 5.14446000e+10
1065.000000 4.58396000e+10
1075.000000 4.80551000e+10
1085.000000 4.41204000e+10
1095.000000 4.73117000e+10
1105.000000 4.50801000e+10
1115.000000 4.43660000e+10
1125.000000 3.97439000e+10
1135.000000 4.30619000e+10
1145.000000 4.01176000e+10
1155.000000 4.05584000e+10
1165.000000 3.98928000e+10
1175.000000 3.07332000e+10
1185.000000 3.72484000e+10
1195.000000 3.57966000e+10
1205.000000 3.21174000e+10
1215.000000 2.03990000e+10
1225.000000 3.28999000e+10
1235.000000 3.45601000e+10
1245.000000 3.35138000e+10
1255.000000 3.32258000e+10
1265.000000 3.29262000e+10
1275.000000 3.28104000e+10
1285.000000 3.22401000e+10
1295.000000 2.90956000e+10
1305.000000 2.95163000e+10
1315.000000 3.04416000e+10
1325.000000 2.92178000e+10
1335.000000 2.82046000e+10
1345.000000 2.81137000e+10
1355.000000 2.79506000e+10
1365.000000 2.68289000e+10
1375.000000 2.63484000e+10
1385.000000 2.58691000e+10
1395.000000 2.25919000e+10
1405.000000 2.29413000e+10
1415.000000 2.40049000e+10
1425.000000 2.29289000e+10
1435.000000 2.31611000e+10
1442.000000 2.32430000e+10
1447.000000 2.28685000e+10
1455.000000 2.23188000e+10
1465.000000 2.16711000e+10
1475.000000 2.13800000e+10
1485.000000 2.10776000e+10
1495.000000 2.05505000e+10
1505.000000 1.97045000e+10
1512.000000 1.89539000e+10
1517.000000 1.90535000e+10
1525.000000 1.88071000e+10
1535.000000 1.71575000e+10
1545.000000 1.67783000e+10
1555.000000 1.61705000e+10
1565.000000 1.67229000e+10
1575.000000 1.70184000e+10
1585.000000 1.68583000e+10
1595.000000 1.66550000e+10
1605.000000 1.59026000e+10
1615.000000 1.54738000e+10
1625.000000 1.54865000e+10
1635.000000 1.55612000e+10
1645.000000 1.50732000e+10
1655.000000 1.52162000e+10
1665.000000 1.50041000e+10
1672.000000 1.45620000e+10
1677.000000 1.52161000e+10
1685.000000 1.47880000e+10
1695.000000 1.43583000e+10
1705.000000 1.39675000e+10
1715.000000 1.35067000e+10
1725.000000 1.32568000e+10
1735.000000 1.33472000e+10
1745.000000 1.30957000e+10
1755.000000 1.29750000e+10
1765.000000 1.26374000e+10
1775.000000 1.23280000e+10
1785.000000 1.22978000e+10
1795.000000 1.21974000e+10
1805.000000 1.21343000e+10
1815.000000 1.16236000e+10
1825.000000 1.15825000e+10
1835.000000 1.13951000e+10
1845.000000 1.06541000e+10
1855.000000 1.05872000e+10
1865.000000 1.06490000e+10
1875.000000 1.06489000e+10
1885.000000 9.92518000e+09
1895.000000 9.45688000e+09
1905.000000 9.81794000e+09
1915.000000 9.44930000e+09
1925.000000 9.10403000e+09
1935.000000 9.36807000e+09
1945.000000 9.44377000e+09
1955.000000 8.77098000e+09
1967.000000 9.04685000e+09
1976.000000 9.25813000e+09
1984.000000 8.78729000e+09
1995.000000 8.54120000e+09
2005.000000 8.62358000e+09
2015.000000 8.62384000e+09
2025.000000 8.64058000e+09
2035.000000 8.22847000e+09
2045.000000 8.14450000e+09
2055.000000 7.60439000e+09
2065.000000 7.51104000e+09
2074.000000 7.72582000e+09
2078.000000 7.44449000e+09
2085.000000 7.55266000e+09
2095.000000 7.43772000e+09
2105.000000 7.56473000e+09
2115.000000 7.51737000e+09
2125.000000 7.50610000e+09
2135.000000 7.36785000e+09
2145.000000 7.16625000e+09
2155.000000 7.17834000e+09
2165.000000 7.07513000e+09
2175.000000 6.97988000e+09
2185.000000 6.87179000e+09
2195.000000 6.83098000e+09
2205.000000 6.73228000e+09
2215.000000 6.62648000e+09
2225.000000 6.52740000e+09
2235.000000 6.41603000e+09
2245.000000 6.36729000e+09
2255.000000 6.24212000e+09
2265.000000 6.19344000e+09
2275.000000 6.11225000e+09
2285.000000 6.02986000e+09
2295.000000 5.76822000e+09
2305.000000 5.84314000e+09
2315.000000 5.76205000e+09
2325.000000 5.68750000e+09
2335.000000 5.59225000e+09
2345.000000 5.55219000e+09
2355.000000 5.47974000e+09
2365.000000 5.40871000e+09
2375.000000 5.32492000e+09
2385.000000 5.24109000e+09
2395.000000 5.18040000e+09
2405.000000 5.11833000e+09
2415.000000 5.04599000e+09
2425.000000 4.99152000e+09
2435.000000 4.90918000e+09
2445.000000 4.85574000e+09
2455.000000 4.80114000e+09
2465.000000 4.73870000e+09
2475.000000 4.67318000e+09
2485.000000 4.61057000e+09
2495.000000 4.26553000e+09
2505.000000 4.48117000e+09
2513.000000 4.35431000e+09
2518.000000 4.40032000e+09
2525.000000 4.38186000e+09
2535.000000 4.32890000e+09
2545.000000 4.23538000e+09
2555.000000 4.20241000e+09
2565.000000 4.16272000e+09
2575.000000 4.11437000e+09
2585.000000 4.06383000e+09
2595.000000 4.01439000e+09
2605.000000 3.98390000e+09
2615.000000 3.93305000e+09
2625.000000 3.88674000e+09
2635.000000 3.83597000e+09
2645.000000 3.78564000e+09
2655.000000 3.73847000e+09
2665.000000 3.67727000e+09
2675.000000 3.63456000e+09
2685.000000 3.61307000e+09
2695.000000 3.53174000e+09
2705.000000 3.51191000e+09
2715.000000 3.47494000e+09
2725.000000 3.41671000e+09
2735.000000 3.38830000e+09
2745.000000 3.35271000e+09
2755.000000 3.31764000e+09
2765.000000 3.25520000e+09
2775.000000 3.24504000e+09
2785.000000 3.20376000e+09
2795.000000 3.12817000e+09
2805.000000 3.11739000e+09
2815.000000 3.09647000e+09
2825.000000 3.03541000e+09
2835.000000 2.98975000e+09
2845.000000 2.99069000e+09
2855.000000 2.95175000e+09
2865.000000 2.92040000e+09
2875.000000 2.88781000e+09
2885.000000 2.85597000e+09
2895.000000 2.82220000e+09
2910.000000 2.77196000e+09
2930.000000 2.71305000e+09
2950.000000 2.63479000e+09
2970.000000 2.59366000e+09
2990.000000 2.53527000e+09
3010.000000 2.47391000e+09
3030.000000 2.42720000e+09
3050.000000 2.37673000e+09
3070.000000 2.32735000e+09
3090.000000 2.26446000e+09
3110.000000 2.22834000e+09
3130.000000 2.18065000e+09
3150.000000 2.13524000e+09
3170.000000 2.08986000e+09
3190.000000 2.03330000e+09
3210.000000 2.00406000e+09
3230.000000 1.96275000e+09
3250.000000 1.92397000e+09
3270.000000 1.88581000e+09
3290.000000 1.84566000e+09
3310.000000 1.81149000e+09
3330.000000 1.77437000e+09
3350.000000 1.73710000e+09
3370.000000 1.70503000e+09
3390.000000 1.67268000e+09
3410.000000 1.64022000e+09
3430.000000 1.60162000e+09
3450.000000 1.56544000e+09
3470.000000 1.53903000e+09
3490.000000 1.50919000e+09
3510.000000 1.48449000e+09
3530.000000 1.45937000e+09
3550.000000 1.43198000e+09
3570.000000 1.41175000e+09
3590.000000 1.37610000e+09
3610.000000 1.35361000e+09
3630.000000 1.32624000e+09
3640.000000 1.32300000e+09
3650.000000 1.29597000e+09
3670.000000 1.27816000e+09
3690.000000 1.25081000e+09
3710.000000 1.20865000e+09
3730.000000 1.16331000e+09
3750.000000 1.20130000e+09
3770.000000 1.19172000e+09
3790.000000 1.23320000e+09
3810.000000 1.27102000e+09
3830.000000 1.13156000e+09
3850.000000 1.28359000e+09
3870.000000 1.27710000e+09
3890.000000 1.07262000e+09
3910.000000 1.25107000e+09
3930.000000 1.22454000e+09
3950.000000 1.20623000e+09
3970.000000 9.94236000e+08
3990.000000 1.16080000e+09
4010.000000 1.14696000e+09
4030.000000 1.09294000e+09
4050.000000 1.11665000e+09
4070.000000 1.08498000e+09
4090.000000 1.02163000e+09
4110.000000 9.14096000e+08
4130.000000 1.02466000e+09
4150.000000 1.01365000e+09
4170.000000 1.00382000e+09
4190.000000 9.87804000e+08
4210.000000 9.73021000e+08
4230.000000 9.56346000e+08
4250.000000 9.37751000e+08
4270.000000 9.17189000e+08
4290.000000 9.05832000e+08
4310.000000 8.86129000e+08
4330.000000 8.23408000e+08
4350.000000 7.57580000e+08
4370.000000 8.42374000e+08
4390.000000 8.18159000e+08
4410.000000 8.19065000e+08
4430.000000 8.06675000e+08
4450.000000 7.95427000e+08
4470.000000 7.57422000e+08
4490.000000 7.69731000e+08
4510.000000 7.58863000e+08
4530.000000 7.46835000e+08
4550.000000 7.33824000e+08
4570.000000 7.22094000e+08
4590.000000 7.10629000e+08
4610.000000 6.99584000e+08
4630.000000 6.88720000e+08
4650.000000 6.71309000e+08
4670.000000 6.66902000e+08
4690.000000 6.56345000e+08
4710.000000 6.38946000e+08
4730.000000 6.37764000e+08
4750.000000 6.27362000e+08
4770.000000 6.19844000e+08
4790.000000 6.10311000e+08
4810.000000 6.00540000e+08
4830.000000 5.88778000e+08
4850.000000 5.55120000e+08
4870.000000 5.02758000e+08
4890.000000 5.62492000e+08
4910.000000 5.56732000e+08
4930.000000 5.38490000e+08
4950.000000 5.40498000e+08
4970.000000 5.33670000e+08
4990.000000 5.25785000e+08
5010.000000 5.11374000e+08
5030.000000 5.10607000e+08
5050.000000 5.00632000e+08
5070.000000 4.96147000e+08
5090.000000 4.88955000e+08
5110.000000 4.81976000e+08
5130.000000 4.74804000e+08
5150.000000 4.68083000e+08
5170.000000 4.61763000e+08
5190.000000 4.55413000e+08
5210.000000 4.48981000e+08
5230.000000 4.42758000e+08
5250.000000 4.36630000e+08
5270.000000 4.30501000e+08
5290.000000 4.24627000e+08
5310.000000 4.18749000e+08
5330.000000 4.13066000e+08
5350.000000 4.07377000e+08
5370.000000 4.01918000e+08
5390.000000 3.96400000e+08
5410.000000 3.90900000e+08
5430.000000 3.85828000e+08
5450.000000 3.80592000e+08
5470.000000 3.75509000e+08
5490.000000 3.70504000e+08
5510.000000 3.65647000e+08
5530.000000 3.60740000e+08
5550.000000 3.56054000e+08
5570.000000 3.51328000e+08
5590.000000 3.46745000e+08
5610.000000 3.42206000e+08
5630.000000 3.37770000e+08
5650.000000 3.33283000e+08
5670.000000 3.28709000e+08
5690.000000 3.24052000e+08
5710.000000 3.20503000e+08
5730.000000 3.16434000e+08
5750.000000 3.12151000e+08
5770.000000 3.08497000e+08
5790.000000 3.04538000e+08
5810.000000 3.00715000e+08
5830.000000 2.96816000e+08
5850.000000 2.93160000e+08
5870.000000 2.82080000e+08
5890.000000 2.85283000e+08
5910.000000 2.82223000e+08
5930.000000 2.78640000e+08
5950.000000 2.75185000e+08
5970.000000 2.72012000e+08
5990.000000 2.68519000e+08
6010.000000 2.65326000e+08
6030.000000 2.62026000e+08
6050.000000 2.58876000e+08
6070.000000 2.55782000e+08
6090.000000 2.52683000e+08
6110.000000 2.49628000e+08
6130.000000 2.46639000e+08
6150.000000 2.43563000e+08
6170.000000 2.40700000e+08
6190.000000 2.37879000e+08
6210.000000 2.35069000e+08
6230.000000 2.32281000e+08
6250.000000 2.29514000e+08
6270.000000 2.26816000e+08
6290.000000 2.24157000e+08
6310.000000 2.21518000e+08
6330.000000 2.18945000e+08
6350.000000 2.16354000e+08
6370.000000 2.13874000e+08
6390.000000 2.11393000e+08
6410.000000 2.08957000e+08
6430.000000 2.06566000e+08
6450.000000 2.04191000e+08
6470.000000 2.01752000e+08
6490.000000 1.99464000e+08
6510.000000 1.97254000e+08
6530.000000 1.94475000e+08
6550.000000 1.87880000e+08
6570.000000 1.68942000e+08
6590.000000 1.86916000e+08
6610.000000 1.86235000e+08
6630.000000 1.84290000e+08
6650.000000 1.82297000e+08
6670.000000 1.78767000e+08
6690.000000 1.76816000e+08
6710.000000 1.76324000e+08
6730.000000 1.74304000e+08
6750.000000 1.72471000e+08
6770.000000 1.70582000e+08
6790.000000 1.68549000e+08
6810.000000 1.66846000e+08
6830.000000 1.65030000e+08
6850.000000 1.63257000e+08
6870.000000 1.61485000e+08
6890.000000 1.59716000e+08
6910.000000 1.57980000e+08
6930.000000 1.56324000e+08
6950.000000 1.54654000e+08
6970.000000 1.53008000e+08
6990.000000 1.51370000e+08
7010.000000 1.49764000e+08
7030.000000 1.48173000e+08
7050.000000 1.46614000e+08
7070.000000 1.42959000e+08
7090.000000 1.43548000e+08
7110.000000 1.42026000e+08
7130.000000 1.40549000e+08
7150.000000 1.39093000e+08
7170.000000 1.37622000e+08
7190.000000 1.36216000e+08
7210.000000 1.34809000e+08
7230.000000 1.32861000e+08
7250.000000 1.32000000e+08
7270.000000 1.30683000e+08
7290.000000 1.28372000e+08
7310.000000 1.28009000e+08
7330.000000 1.26722000e+08
7350.000000 1.25434000e+08
7370.000000 1.24164000e+08
7390.000000 1.22907000e+08
7410.000000 1.21668000e+08
7430.000000 1.20447000e+08
7450.000000 1.19252000e+08
7470.000000 1.17993000e+08
7490.000000 1.16873000e+08
7510.000000 1.15677000e+08
7530.000000 1.14565000e+08
7550.000000 1.13430000e+08
7570.000000 1.12306000e+08
7590.000000 1.11198000e+08
7610.000000 1.10087000e+08
7630.000000 1.09026000e+08
7650.000000 1.07961000e+08
7670.000000 1.06905000e+08
7690.000000 1.05866000e+08
7710.000000 1.04836000e+08
7730.000000 1.03815000e+08
7750.000000 1.02815000e+08
7770.000000 1.01794000e+08
7790.000000 1.00843000e+08
7810.000000 9.98212000e+07
7830.000000 9.89186000e+07
7850.000000 9.80545000e+07
7870.000000 9.71006000e+07
7890.000000 9.61127000e+07
7910.000000 9.52841000e+07
7930.000000 9.43667000e+07
7950.000000 9.34574000e+07
7970.000000 9.24611000e+07
7990.000000 9.15975000e+07
8010.000000 9.07062000e+07
8030.000000 8.98518000e+07
8050.000000 8.90570000e+07
8070.000000 8.82517000e+07
8090.000000 8.72921000e+07
8110.000000 8.65012000e+07
8130.000000 8.58596000e+07
8150.000000 8.49453000e+07
8170.000000 8.42985000e+07
8190.000000 8.33874000e+07
8210.000000 8.24059000e+07
8230.000000 8.18335000e+07
8250.000000 8.11549000e+07
8270.000000 8.00082000e+07
8290.000000 7.96117000e+07
8310.000000 7.89234000e+07
8330.000000 7.81811000e+07
8350.000000 7.71317000e+07
8370.000000 7.66559000e+07
8390.000000 7.60661000e+07
8410.000000 7.53745000e+07
8430.000000 7.46356000e+07
8450.000000 7.35230000e+07
8470.000000 7.32077000e+07
8490.000000 7.25182000e+07
8510.000000 7.17044000e+07
8530.000000 7.13064000e+07
8550.000000 6.97879000e+07
8570.000000 7.07654000e+07
8590.000000 6.81235000e+07
8610.000000 6.78785000e+07
8630.000000 6.94308000e+07
8650.000000 6.75794000e+07
8670.000000 6.38249000e+07
8690.000000 6.76721000e+07
8710.000000 6.77987000e+07
8730.000000 6.58868000e+07
8750.000000 6.03308000e+07
8770.000000 6.40480000e+07
8790.000000 6.57218000e+07
8810.000000 6.53073000e+07
8830.000000 6.45334000e+07
8850.000000 6.09761000e+07
8870.000000 5.68803000e+07
8890.000000 6.23496000e+07
8910.000000 6.25920000e+07
8930.000000 6.21277000e+07
8950.000000 6.17516000e+07
8970.000000 6.11347000e+07
8990.000000 5.95718000e+07
9010.000000 5.36971000e+07
9030.000000 5.61068000e+07
9050.000000 5.87662000e+07
9070.000000 5.81592000e+07
9090.000000 5.80996000e+07
9110.000000 5.78357000e+07
9130.000000 5.73928000e+07
9150.000000 5.69127000e+07
9170.000000 5.62257000e+07
9190.000000 5.56556000e+07
9210.000000 5.34599000e+07
9230.000000 4.78380000e+07
9250.000000 5.27168000e+07
9270.000000 5.37741000e+07
9290.000000 5.36083000e+07
9310.000000 5.30261000e+07
9330.000000 5.27861000e+07
9350.000000 5.23579000e+07
9370.000000 5.19716000e+07
9390.000000 5.15496000e+07
9410.000000 5.11265000e+07
9430.000000 5.07193000e+07
9450.000000 5.03107000e+07
9470.000000 4.96154000e+07
9490.000000 4.93981000e+07
9510.000000 4.83991000e+07
9530.000000 4.65369000e+07
9550.000000 4.19554000e+07
9570.000000 4.67164000e+07
9590.000000 4.72918000e+07
9610.000000 4.69851000e+07
9630.000000 4.65667000e+07
9650.000000 4.64345000e+07
9670.000000 4.60694000e+07
9690.000000 4.56668000e+07
9710.000000 4.52072000e+07
9730.000000 4.49897000e+07
9750.000000 4.46349000e+07
9770.000000 4.42866000e+07
9790.000000 4.39407000e+07
9810.000000 4.35934000e+07
9830.000000 4.32602000e+07
9850.000000 4.29255000e+07
9870.000000 4.25893000e+07
9890.000000 4.22555000e+07
9910.000000 4.18665000e+07
9930.000000 4.16139000e+07
9950.000000 4.12946000e+07
9970.000000 4.09699000e+07
9990.000000 4.05946000e+07
10025.000000 3.86586000e+07
10075.000000 3.74296000e+07
10125.000000 3.84940000e+07
10175.000000 3.78983000e+07
10225.000000 3.71791000e+07
10275.000000 3.65041000e+07
10325.000000 3.56991000e+07
10375.000000 3.51703000e+07
10425.000000 3.45270000e+07
10475.000000 3.38981000e+07
10525.000000 3.32829000e+07
10575.000000 3.26826000e+07
10625.000000 3.20954000e+07
10675.000000 3.14652000e+07
10725.000000 3.09596000e+07
10775.000000 3.04108000e+07
10825.000000 2.95753000e+07
10875.000000 2.92813000e+07
10925.000000 2.68019000e+07
10975.000000 2.78275000e+07
11025.000000 2.76717000e+07
11075.000000 2.73438000e+07
11125.000000 2.68901000e+07
11175.000000 2.64298000e+07
11225.000000 2.59661000e+07
11275.000000 2.55366000e+07
11325.000000 2.51024000e+07
11375.000000 2.46831000e+07
11425.000000 2.42678000e+07
11475.000000 2.38642000e+07
11525.000000 2.34676000e+07
11575.000000 2.30772000e+07
11625.000000 2.26973000e+07
11675.000000 2.23226000e+07
11725.000000 2.19602000e+07
11775.000000 2.16024000e+07
11825.000000 2.12520000e+07
11875.000000 2.09088000e+07
11925.000000 2.05723000e+07
11975.000000 2.00643000e+07
12025.000000 1.99192000e+07
12075.000000 1.96026000e+07
12125.000000 1.92919000e+07
12175.000000 1.89876000e+07
12225.000000 1.86892000e+07
12275.000000 1.83967000e+07
12325.000000 1.81099000e+07
12375.000000 1.78285000e+07
12425.000000 1.75528000e+07
12475.000000 1.72809000e+07
12525.000000 1.69833000e+07
12575.000000 1.67554000e+07
12625.000000 1.65003000e+07
12675.000000 1.62507000e+07
12725.000000 1.60035000e+07
12775.000000 1.55176000e+07
12825.000000 1.44413000e+07
12875.000000 1.52134000e+07
12925.000000 1.50669000e+07
12975.000000 1.47496000e+07
13025.000000 1.46232000e+07
13075.000000 1.44087000e+07
