# Kurucz ODFNEW /NOVER, alpha: 0.0 (2003)
# teff = 21000 K (value for the effective temperature for the model. Temperatures are given in K)
# logg = 3.5 log(cm/s2) (value for Log(G) for the model.)
# lh = 1.25  (l/Hp where l is the  mixing length of the convective element and Hp is the pressure scale height)
# meta = 0.5  (value for the Metallicity for the model.)
# vtur = 2 km/s (Microturbulence velocity)
# alpha = 0  (Alpha)
#
# column 1: WAVELENGTH (ANGSTROM), Wavelength in Angstrom
# column 2: FLUX (ERG/CM2/S/A), Flux in erg/cm2/s/A
147.200000 3.28050000e-19
151.000000 1.81896000e-18
155.200000 1.10086000e-17
158.800000 4.79475000e-17
162.000000 1.68526000e-16
166.000000 7.60404000e-16
170.300000 3.55217000e-15
173.400000 1.03826000e-14
176.800000 3.21949000e-14
180.200000 9.58946000e-14
181.700000 1.53374000e-13
186.100000 5.83828000e-13
191.000000 2.41811000e-12
193.900000 5.42551000e-12
198.400000 1.81959000e-11
201.800000 4.38912000e-11
205.000000 9.80438000e-11
210.500000 3.69807000e-10
216.200000 1.36781000e-09
219.800000 3.02236000e-09
223.000000 5.99014000e-09
226.800000 1.31779000e-08
230.000000 2.67385000e-07
234.000000 6.79188000e-07
240.000000 1.96298000e-06
246.500000 5.83097000e-06
252.400000 1.50897000e-05
256.800000 2.88616000e-05
260.000000 4.93276000e-05
264.000000 8.76365000e-05
268.500000 1.64101000e-04
273.500000 3.20044000e-04
278.500000 6.16612000e-04
284.000000 1.27766000e-03
290.000000 2.61466000e-03
296.000000 5.21176000e-03
301.000000 9.03018000e-03
308.000000 1.95140000e-02
318.000000 5.47860000e-02
328.000000 1.37551000e-01
338.000000 3.43147000e-01
348.000000 7.89706000e-01
357.000000 2.27695000e+00
366.000000 4.57398000e+00
375.000000 8.26568000e+00
385.000000 1.58703000e+01
395.000000 3.02035000e+01
405.000000 5.38090000e+01
414.000000 8.95621000e+01
422.000000 1.37211000e+02
430.000000 2.11205000e+02
441.000000 3.63052000e+02
451.000000 5.72259000e+02
460.000000 8.46680000e+02
470.000000 1.31262000e+03
480.000000 1.96867000e+03
490.000000 2.93554000e+03
500.000000 4.26729000e+03
506.000000 2.17339000e+04
512.000000 4.61714000e+05
520.000000 5.64537000e+05
530.000000 7.44835000e+05
540.000000 8.47796000e+05
550.000000 1.35784000e+06
560.000000 1.65131000e+06
570.000000 2.15358000e+06
580.000000 2.09430000e+06
590.000000 2.98624000e+06
600.000000 3.69069000e+06
610.000000 4.64812000e+06
620.000000 5.21806000e+06
630.000000 5.79009000e+06
640.000000 5.46175000e+06
650.000000 3.82409000e+06
658.000000 6.74193000e+06
665.000000 8.54792000e+06
675.000000 9.45245000e+06
685.000000 9.94281000e+06
695.000000 1.34001000e+07
705.000000 1.41096000e+07
716.000000 1.62690000e+07
726.000000 1.73421000e+07
735.000000 1.85078000e+07
745.000000 2.17964000e+07
755.000000 2.40766000e+07
765.000000 2.66738000e+07
775.000000 2.93317000e+07
785.000000 3.19950000e+07
795.000000 3.39013000e+07
805.000000 3.59582000e+07
815.000000 3.81253000e+07
825.000000 4.25136000e+07
835.000000 3.81325000e+07
845.000000 4.54977000e+07
855.000000 4.74199000e+07
865.000000 5.19207000e+07
875.000000 5.65617000e+07
885.000000 6.29482000e+07
895.000000 6.71837000e+07
905.000000 6.47550000e+07
915.000000 1.21722000e+08
925.000000 1.24939000e+09
935.000000 2.99393000e+09
945.000000 5.60100000e+09
955.000000 7.80164000e+09
965.000000 7.28437000e+09
975.000000 9.64110000e+08
985.000000 4.59659000e+09
995.000000 6.39282000e+09
1005.000000 9.35720000e+09
1015.000000 9.67252000e+09
1025.000000 5.62965000e+09
1035.000000 6.13859000e+09
1045.000000 1.29351000e+10
1055.000000 1.19021000e+10
1065.000000 8.29537000e+09
1075.000000 1.09483000e+10
1085.000000 8.98090000e+09
1095.000000 1.13437000e+10
1105.000000 9.38225000e+09
1115.000000 8.08413000e+09
1125.000000 6.39499000e+09
1135.000000 1.03843000e+10
1145.000000 9.12064000e+09
1155.000000 9.73491000e+09
1165.000000 9.59044000e+09
1175.000000 4.85816000e+09
1185.000000 9.39956000e+09
1195.000000 7.24479000e+09
1205.000000 2.79299000e+09
1215.000000 4.05254000e+09
1225.000000 7.99313000e+09
1235.000000 1.02648000e+10
1245.000000 9.91098000e+09
1255.000000 9.74578000e+09
1265.000000 9.64409000e+09
1275.000000 1.01024000e+10
1285.000000 1.02842000e+10
1295.000000 5.06971000e+09
1305.000000 5.50243000e+09
1315.000000 9.75665000e+09
1325.000000 8.90954000e+09
1335.000000 7.91983000e+09
1345.000000 9.27525000e+09
1355.000000 8.88626000e+09
1365.000000 7.51245000e+09
1375.000000 7.41912000e+09
1385.000000 7.17293000e+09
1395.000000 4.81998000e+09
1405.000000 5.42796000e+09
1415.000000 6.02887000e+09
1425.000000 6.33100000e+09
1435.000000 6.60128000e+09
1442.000000 6.88122000e+09
1447.000000 6.72597000e+09
1455.000000 6.47373000e+09
1465.000000 5.72969000e+09
1475.000000 6.06213000e+09
1485.000000 6.01681000e+09
1495.000000 5.87186000e+09
1505.000000 5.14193000e+09
1512.000000 4.42753000e+09
1517.000000 4.69502000e+09
1525.000000 4.97668000e+09
1535.000000 4.06640000e+09
1545.000000 3.97590000e+09
1555.000000 3.93474000e+09
1565.000000 4.26439000e+09
1575.000000 4.60284000e+09
1585.000000 4.79057000e+09
1595.000000 4.66213000e+09
1605.000000 4.89144000e+09
1615.000000 4.88955000e+09
1625.000000 4.65607000e+09
1635.000000 5.15793000e+09
1645.000000 5.13146000e+09
1655.000000 4.92701000e+09
1665.000000 5.29661000e+09
1672.000000 4.99173000e+09
1677.000000 5.38759000e+09
1685.000000 5.41683000e+09
1695.000000 4.97310000e+09
1705.000000 4.84936000e+09
1715.000000 4.44714000e+09
1725.000000 4.44030000e+09
1735.000000 4.79374000e+09
1745.000000 4.57144000e+09
1755.000000 4.71165000e+09
1765.000000 4.53820000e+09
1775.000000 4.24245000e+09
1785.000000 4.43105000e+09
1795.000000 4.74428000e+09
1805.000000 4.86680000e+09
1815.000000 4.02206000e+09
1825.000000 4.36245000e+09
1835.000000 4.14129000e+09
1845.000000 3.68725000e+09
1855.000000 3.54787000e+09
1865.000000 3.66730000e+09
1875.000000 4.20362000e+09
1885.000000 3.57155000e+09
1895.000000 3.27168000e+09
1905.000000 3.77246000e+09
1915.000000 3.31239000e+09
1925.000000 3.18270000e+09
1935.000000 3.51019000e+09
1945.000000 3.55994000e+09
1955.000000 3.14402000e+09
1967.000000 3.61259000e+09
1976.000000 3.75043000e+09
1984.000000 3.45265000e+09
1995.000000 3.35543000e+09
2005.000000 3.65285000e+09
2015.000000 3.49671000e+09
2025.000000 3.70755000e+09
2035.000000 3.27894000e+09
2045.000000 3.45495000e+09
2055.000000 3.29777000e+09
2065.000000 3.23922000e+09
2074.000000 3.55335000e+09
2078.000000 3.02747000e+09
2085.000000 3.34446000e+09
2095.000000 3.11416000e+09
2105.000000 3.24678000e+09
2115.000000 3.29759000e+09
2125.000000 3.31601000e+09
2135.000000 3.22742000e+09
2145.000000 3.06385000e+09
2155.000000 3.24550000e+09
2165.000000 3.25939000e+09
2175.000000 3.23379000e+09
2185.000000 3.04076000e+09
2195.000000 3.16145000e+09
2205.000000 3.15089000e+09
2215.000000 3.04472000e+09
2225.000000 2.94367000e+09
2235.000000 2.97018000e+09
2245.000000 3.00119000e+09
2255.000000 2.84090000e+09
2265.000000 2.95620000e+09
2275.000000 2.92372000e+09
2285.000000 2.95685000e+09
2295.000000 2.63888000e+09
2305.000000 2.81883000e+09
2315.000000 2.68030000e+09
2325.000000 2.63708000e+09
2335.000000 2.50143000e+09
2345.000000 2.53556000e+09
2355.000000 2.55850000e+09
2365.000000 2.51246000e+09
2375.000000 2.48934000e+09
2385.000000 2.44553000e+09
2395.000000 2.48262000e+09
2405.000000 2.37109000e+09
2415.000000 2.41609000e+09
2425.000000 2.42452000e+09
2435.000000 2.31258000e+09
2445.000000 2.37777000e+09
2455.000000 2.38613000e+09
2465.000000 2.32118000e+09
2475.000000 2.26728000e+09
2485.000000 2.27006000e+09
2495.000000 1.98749000e+09
2505.000000 2.21366000e+09
2513.000000 2.07628000e+09
2518.000000 2.20524000e+09
2525.000000 2.12750000e+09
2535.000000 2.10788000e+09
2545.000000 2.00084000e+09
2555.000000 2.08995000e+09
2565.000000 2.05943000e+09
2575.000000 2.10914000e+09
2585.000000 2.07938000e+09
2595.000000 2.06294000e+09
2605.000000 2.04325000e+09
2615.000000 2.01454000e+09
2625.000000 2.00551000e+09
2635.000000 2.00160000e+09
2645.000000 2.00001000e+09
2655.000000 2.00779000e+09
2665.000000 1.88879000e+09
2675.000000 1.93418000e+09
2685.000000 1.91541000e+09
2695.000000 1.83955000e+09
2705.000000 1.79390000e+09
2715.000000 1.79982000e+09
2725.000000 1.80622000e+09
2735.000000 1.81172000e+09
2745.000000 1.72850000e+09
2755.000000 1.72948000e+09
2765.000000 1.72793000e+09
2775.000000 1.76094000e+09
2785.000000 1.73200000e+09
2795.000000 1.65699000e+09
2805.000000 1.68920000e+09
2815.000000 1.69528000e+09
2825.000000 1.67934000e+09
2835.000000 1.57962000e+09
2845.000000 1.59698000e+09
2855.000000 1.58054000e+09
2865.000000 1.60849000e+09
2875.000000 1.58711000e+09
2885.000000 1.57088000e+09
2895.000000 1.54081000e+09
2910.000000 1.52510000e+09
2930.000000 1.50443000e+09
2950.000000 1.45597000e+09
2970.000000 1.44112000e+09
2990.000000 1.41247000e+09
3010.000000 1.36187000e+09
3030.000000 1.37189000e+09
3050.000000 1.34715000e+09
3070.000000 1.32734000e+09
3090.000000 1.27632000e+09
3110.000000 1.27047000e+09
3130.000000 1.24418000e+09
3150.000000 1.22630000e+09
3170.000000 1.18925000e+09
3190.000000 1.16627000e+09
3210.000000 1.15434000e+09
3230.000000 1.13038000e+09
3250.000000 1.11540000e+09
3270.000000 1.09162000e+09
3290.000000 1.07077000e+09
3310.000000 1.05353000e+09
3330.000000 1.03117000e+09
3350.000000 1.01392000e+09
3370.000000 9.94293000e+08
3390.000000 9.80825000e+08
3410.000000 9.64138000e+08
3430.000000 9.41399000e+08
3450.000000 9.22192000e+08
3470.000000 9.07306000e+08
3490.000000 8.89915000e+08
3510.000000 8.76623000e+08
3530.000000 8.67171000e+08
3550.000000 8.52106000e+08
3570.000000 8.40487000e+08
3590.000000 8.13172000e+08
3610.000000 7.99070000e+08
3630.000000 7.92347000e+08
3640.000000 7.92520000e+08
3650.000000 7.79785000e+08
3670.000000 7.72260000e+08
3690.000000 7.50244000e+08
3710.000000 7.29012000e+08
3730.000000 7.14364000e+08
3750.000000 7.84213000e+08
3770.000000 7.84423000e+08
3790.000000 8.14746000e+08
3810.000000 8.47402000e+08
3830.000000 7.43345000e+08
3850.000000 8.48413000e+08
3870.000000 8.33906000e+08
3890.000000 7.08790000e+08
3910.000000 8.36645000e+08
3930.000000 8.00662000e+08
3950.000000 7.99577000e+08
3970.000000 6.57446000e+08
3990.000000 7.71439000e+08
4010.000000 7.66246000e+08
4030.000000 7.25419000e+08
4050.000000 7.39219000e+08
4070.000000 7.03407000e+08
4090.000000 6.71456000e+08
4110.000000 6.02558000e+08
4130.000000 6.72405000e+08
4150.000000 6.67777000e+08
4170.000000 6.65807000e+08
4190.000000 6.62084000e+08
4210.000000 6.56871000e+08
4230.000000 6.41452000e+08
4250.000000 6.23770000e+08
4270.000000 6.03684000e+08
4290.000000 6.00606000e+08
4310.000000 5.81275000e+08
4330.000000 5.42181000e+08
4350.000000 4.99897000e+08
4370.000000 5.51318000e+08
4390.000000 5.52111000e+08
4410.000000 5.48180000e+08
4430.000000 5.41245000e+08
4450.000000 5.36505000e+08
4470.000000 5.14463000e+08
4490.000000 5.19084000e+08
4510.000000 5.17324000e+08
4530.000000 5.06855000e+08
4550.000000 5.01918000e+08
4570.000000 4.93584000e+08
4590.000000 4.85751000e+08
4610.000000 4.72576000e+08
4630.000000 4.65479000e+08
4650.000000 4.53661000e+08
4670.000000 4.54102000e+08
4690.000000 4.51796000e+08
4710.000000 4.31936000e+08
4730.000000 4.32046000e+08
4750.000000 4.26128000e+08
4770.000000 4.28788000e+08
4790.000000 4.19681000e+08
4810.000000 4.09620000e+08
4830.000000 4.04248000e+08
4850.000000 3.84185000e+08
4870.000000 3.43310000e+08
4890.000000 3.88749000e+08
4910.000000 3.84229000e+08
4930.000000 3.71027000e+08
4950.000000 3.72509000e+08
4970.000000 3.70402000e+08
4990.000000 3.63459000e+08
5010.000000 3.44428000e+08
5030.000000 3.51507000e+08
5050.000000 3.41653000e+08
5070.000000 3.43198000e+08
5090.000000 3.37685000e+08
5110.000000 3.31008000e+08
5130.000000 3.21288000e+08
5150.000000 3.19536000e+08
5170.000000 3.19648000e+08
5190.000000 3.15581000e+08
5210.000000 3.07847000e+08
5230.000000 3.06420000e+08
5250.000000 3.02942000e+08
5270.000000 2.97527000e+08
5290.000000 2.95362000e+08
5310.000000 2.90616000e+08
5330.000000 2.86569000e+08
5350.000000 2.81864000e+08
5370.000000 2.80056000e+08
5390.000000 2.76114000e+08
5410.000000 2.72764000e+08
5430.000000 2.68024000e+08
5450.000000 2.64716000e+08
5470.000000 2.60945000e+08
5490.000000 2.58248000e+08
5510.000000 2.55694000e+08
5530.000000 2.51458000e+08
5550.000000 2.49502000e+08
5570.000000 2.45819000e+08
5590.000000 2.43340000e+08
5610.000000 2.39633000e+08
5630.000000 2.37470000e+08
5650.000000 2.30965000e+08
5670.000000 2.27358000e+08
5690.000000 2.24936000e+08
5710.000000 2.24184000e+08
5730.000000 2.21876000e+08
5750.000000 2.18477000e+08
5770.000000 2.17135000e+08
5790.000000 2.14154000e+08
5810.000000 2.11566000e+08
5830.000000 2.08300000e+08
5850.000000 2.06228000e+08
5870.000000 1.98233000e+08
5890.000000 1.98398000e+08
5910.000000 1.97748000e+08
5930.000000 1.95088000e+08
5950.000000 1.91959000e+08
5970.000000 1.92060000e+08
5990.000000 1.88312000e+08
6010.000000 1.87300000e+08
6030.000000 1.84444000e+08
6050.000000 1.82485000e+08
6070.000000 1.80804000e+08
6090.000000 1.78521000e+08
6110.000000 1.76557000e+08
6130.000000 1.74776000e+08
6150.000000 1.70812000e+08
6170.000000 1.69815000e+08
6190.000000 1.68464000e+08
6210.000000 1.66726000e+08
6230.000000 1.64861000e+08
6250.000000 1.61937000e+08
6270.000000 1.60599000e+08
6290.000000 1.58998000e+08
6310.000000 1.56885000e+08
6330.000000 1.55604000e+08
6350.000000 1.52654000e+08
6370.000000 1.51567000e+08
6390.000000 1.50038000e+08
6410.000000 1.48452000e+08
6430.000000 1.47166000e+08
6450.000000 1.45268000e+08
6470.000000 1.43084000e+08
6490.000000 1.41604000e+08
6510.000000 1.40255000e+08
6530.000000 1.38276000e+08
6550.000000 1.33604000e+08
6570.000000 1.17728000e+08
6590.000000 1.31874000e+08
6610.000000 1.32552000e+08
6630.000000 1.31428000e+08
6650.000000 1.29999000e+08
6670.000000 1.27519000e+08
6690.000000 1.26244000e+08
6710.000000 1.25986000e+08
6730.000000 1.24240000e+08
6750.000000 1.23389000e+08
6770.000000 1.22086000e+08
6790.000000 1.18941000e+08
6810.000000 1.19031000e+08
6830.000000 1.17859000e+08
6850.000000 1.16875000e+08
6870.000000 1.15652000e+08
6890.000000 1.14307000e+08
6910.000000 1.13031000e+08
6930.000000 1.11870000e+08
6950.000000 1.10892000e+08
6970.000000 1.09768000e+08
6990.000000 1.08554000e+08
7010.000000 1.07399000e+08
7030.000000 1.06293000e+08
7050.000000 1.05070000e+08
7070.000000 1.02215000e+08
7090.000000 1.02891000e+08
7110.000000 9.99726000e+07
7130.000000 9.91532000e+07
7150.000000 9.96530000e+07
7170.000000 9.88927000e+07
7190.000000 9.79789000e+07
7210.000000 9.69795000e+07
7230.000000 9.39357000e+07
7250.000000 9.47871000e+07
7270.000000 9.40453000e+07
7290.000000 9.23320000e+07
7310.000000 9.21518000e+07
7330.000000 9.12008000e+07
7350.000000 9.03914000e+07
7370.000000 8.94992000e+07
7390.000000 8.86084000e+07
7410.000000 8.77396000e+07
7430.000000 8.67083000e+07
7450.000000 8.59583000e+07
7470.000000 8.46615000e+07
7490.000000 8.42167000e+07
7510.000000 8.33679000e+07
7530.000000 8.25004000e+07
7550.000000 8.18723000e+07
7570.000000 8.11049000e+07
7590.000000 8.02595000e+07
7610.000000 7.94739000e+07
7630.000000 7.87472000e+07
7650.000000 7.80077000e+07
7670.000000 7.72748000e+07
7690.000000 7.65167000e+07
7710.000000 7.57843000e+07
7730.000000 7.50270000e+07
7750.000000 7.43768000e+07
7770.000000 7.28899000e+07
7790.000000 7.29879000e+07
7810.000000 7.22502000e+07
7830.000000 7.16296000e+07
7850.000000 7.07760000e+07
7870.000000 7.01126000e+07
7890.000000 6.91706000e+07
7910.000000 6.88333000e+07
7930.000000 6.81750000e+07
7950.000000 6.72900000e+07
7970.000000 6.68756000e+07
7990.000000 6.59689000e+07
8010.000000 6.56633000e+07
8030.000000 6.50679000e+07
8050.000000 6.45008000e+07
8070.000000 6.39848000e+07
8090.000000 6.32832000e+07
8110.000000 6.25648000e+07
8130.000000 6.22801000e+07
8150.000000 6.16345000e+07
8170.000000 6.12315000e+07
8190.000000 6.04105000e+07
8210.000000 5.97253000e+07
8230.000000 5.90572000e+07
8250.000000 5.89760000e+07
8270.000000 5.78813000e+07
8290.000000 5.78326000e+07
8310.000000 5.73418000e+07
8330.000000 5.68985000e+07
8350.000000 5.60805000e+07
8370.000000 5.56623000e+07
8390.000000 5.53490000e+07
8410.000000 5.47932000e+07
8430.000000 5.42419000e+07
8450.000000 5.31043000e+07
8470.000000 5.30429000e+07
8490.000000 5.28612000e+07
8510.000000 5.17682000e+07
8530.000000 5.22579000e+07
8550.000000 5.00121000e+07
8570.000000 5.22123000e+07
8590.000000 4.94152000e+07
8610.000000 4.91223000e+07
8630.000000 5.14635000e+07
8650.000000 4.98120000e+07
8670.000000 4.56041000e+07
8690.000000 5.01816000e+07
8710.000000 5.04679000e+07
8730.000000 4.88958000e+07
8750.000000 4.34721000e+07
8770.000000 4.75462000e+07
8790.000000 4.89196000e+07
8810.000000 4.86443000e+07
8830.000000 4.79913000e+07
8850.000000 4.51681000e+07
8870.000000 4.13791000e+07
8890.000000 4.65663000e+07
8910.000000 4.66137000e+07
8930.000000 4.61647000e+07
8950.000000 4.60724000e+07
8970.000000 4.55994000e+07
8990.000000 4.44248000e+07
9010.000000 3.93454000e+07
9030.000000 4.17258000e+07
9050.000000 4.38911000e+07
9070.000000 4.33002000e+07
9090.000000 4.32102000e+07
9110.000000 4.30815000e+07
9130.000000 4.27682000e+07
9150.000000 4.24321000e+07
9170.000000 4.19219000e+07
9190.000000 4.15238000e+07
9210.000000 3.98540000e+07
9230.000000 3.48530000e+07
9250.000000 3.91913000e+07
9270.000000 3.96510000e+07
9290.000000 3.99855000e+07
9310.000000 3.95297000e+07
9330.000000 3.92678000e+07
9350.000000 3.90806000e+07
9370.000000 3.87963000e+07
9390.000000 3.84834000e+07
9410.000000 3.79856000e+07
9430.000000 3.78738000e+07
9450.000000 3.75630000e+07
9470.000000 3.70450000e+07
9490.000000 3.69078000e+07
9510.000000 3.61716000e+07
9530.000000 3.47980000e+07
9550.000000 3.09153000e+07
9570.000000 3.50079000e+07
9590.000000 3.54105000e+07
9610.000000 3.50577000e+07
9630.000000 3.46039000e+07
9650.000000 3.47462000e+07
9670.000000 3.44439000e+07
9690.000000 3.41546000e+07
9710.000000 3.38023000e+07
9730.000000 3.36706000e+07
9750.000000 3.33781000e+07
9770.000000 3.31607000e+07
9790.000000 3.28921000e+07
9810.000000 3.26070000e+07
9830.000000 3.23695000e+07
9850.000000 3.21334000e+07
9870.000000 3.18486000e+07
9890.000000 3.15470000e+07
9910.000000 3.11332000e+07
9930.000000 3.11730000e+07
9950.000000 3.09192000e+07
9970.000000 3.06368000e+07
9990.000000 3.04282000e+07
10025.000000 2.89326000e+07
10075.000000 2.78913000e+07
10125.000000 2.87601000e+07
10175.000000 2.84072000e+07
10225.000000 2.78875000e+07
10275.000000 2.73891000e+07
10325.000000 2.67796000e+07
10375.000000 2.64042000e+07
10425.000000 2.59321000e+07
10475.000000 2.54595000e+07
10525.000000 2.49781000e+07
10575.000000 2.45541000e+07
10625.000000 2.41244000e+07
10675.000000 2.36100000e+07
10725.000000 2.32783000e+07
10775.000000 2.28655000e+07
10825.000000 2.21851000e+07
10875.000000 2.20456000e+07
10925.000000 2.00432000e+07
10975.000000 2.09613000e+07
11025.000000 2.08110000e+07
11075.000000 2.05952000e+07
11125.000000 2.02525000e+07
11175.000000 1.99079000e+07
11225.000000 1.95638000e+07
11275.000000 1.91750000e+07
11325.000000 1.88627000e+07
11375.000000 1.86072000e+07
11425.000000 1.82759000e+07
11475.000000 1.80008000e+07
11525.000000 1.77032000e+07
11575.000000 1.73922000e+07
11625.000000 1.71108000e+07
11675.000000 1.68363000e+07
11725.000000 1.65763000e+07
11775.000000 1.62801000e+07
11825.000000 1.60490000e+07
11875.000000 1.57920000e+07
11925.000000 1.55457000e+07
11975.000000 1.51608000e+07
12025.000000 1.50566000e+07
12075.000000 1.48208000e+07
12125.000000 1.45861000e+07
12175.000000 1.43590000e+07
12225.000000 1.41367000e+07
12275.000000 1.39170000e+07
12325.000000 1.37011000e+07
12375.000000 1.34915000e+07
12425.000000 1.32875000e+07
12475.000000 1.30609000e+07
12525.000000 1.28519000e+07
12575.000000 1.26731000e+07
12625.000000 1.24907000e+07
12675.000000 1.23098000e+07
12725.000000 1.21263000e+07
12775.000000 1.17522000e+07
12825.000000 1.09097000e+07
12875.000000 1.15433000e+07
12925.000000 1.14231000e+07
12975.000000 1.11779000e+07
13025.000000 1.10900000e+07
13075.000000 1.09313000e+07
