# Kurucz ODFNEW /NOVER, alpha: 0.0 (2003)
# teff = 18000 K (value for the effective temperature for the model. Temperatures are given in K)
# logg = 2.5 log(cm/s2) (value for Log(G) for the model.)
# lh = 1.25  (l/Hp where l is the  mixing length of the convective element and Hp is the pressure scale height)
# meta = -2  (value for the Metallicity for the model.)
# vtur = 2 km/s (Microturbulence velocity)
# alpha = 0  (Alpha)
#
# column 1: WAVELENGTH (ANGSTROM), Wavelength in Angstrom
# column 2: FLUX (ERG/CM2/S/A), Flux in erg/cm2/s/A
147.200000 6.62394000e-23
151.000000 8.61863000e-22
155.200000 7.94076000e-21
158.800000 4.78907000e-20
162.000000 2.20764000e-19
166.000000 1.37001000e-18
170.300000 8.83964000e-18
173.400000 3.19601000e-17
176.800000 1.24077000e-16
180.200000 4.57001000e-16
181.700000 7.99413000e-16
186.100000 3.90716000e-15
191.000000 2.09251000e-14
193.900000 5.42050000e-14
198.400000 2.24243000e-13
201.800000 6.27650000e-13
205.000000 1.60095000e-12
210.500000 7.46908000e-12
216.200000 3.38160000e-11
219.800000 8.41543000e-11
223.000000 1.84429000e-10
226.800000 4.54383000e-10
230.000000 1.17199000e-09
234.000000 2.93500000e-09
240.000000 1.03110000e-08
246.500000 3.74452000e-08
252.400000 1.14008000e-07
256.800000 2.51021000e-07
260.000000 4.41548000e-07
264.000000 8.71662000e-07
268.500000 1.82584000e-06
273.500000 4.03003000e-06
278.500000 8.64034000e-06
284.000000 1.93493000e-05
290.000000 4.49477000e-05
296.000000 1.00697000e-04
301.000000 1.92263000e-04
308.000000 4.56734000e-04
318.000000 1.47612000e-03
328.000000 4.41112000e-03
338.000000 1.23076000e-02
348.000000 3.22558000e-02
357.000000 7.30675000e-02
366.000000 1.58593000e-01
375.000000 3.30691000e-01
385.000000 7.16555000e-01
395.000000 1.48852000e+00
405.000000 2.97410000e+00
414.000000 5.37566000e+00
422.000000 8.89043000e+00
430.000000 1.44056000e+01
441.000000 2.71214000e+01
451.000000 4.68113000e+01
460.000000 7.48225000e+01
470.000000 1.23110000e+02
480.000000 1.97963000e+02
490.000000 3.11614000e+02
500.000000 4.80707000e+02
506.000000 3.04284000e+03
512.000000 9.28890000e+03
520.000000 1.25965000e+04
530.000000 2.04217000e+04
540.000000 2.29397000e+04
550.000000 3.74924000e+04
560.000000 4.86565000e+04
570.000000 6.34353000e+04
580.000000 6.37192000e+04
590.000000 9.09194000e+04
600.000000 1.28161000e+05
610.000000 1.61667000e+05
620.000000 1.98636000e+05
630.000000 2.44376000e+05
640.000000 2.91680000e+05
650.000000 3.54491000e+05
658.000000 4.15011000e+05
665.000000 4.67588000e+05
675.000000 5.46145000e+05
685.000000 6.44460000e+05
695.000000 7.72450000e+05
705.000000 8.97435000e+05
716.000000 1.05842000e+06
726.000000 1.21723000e+06
735.000000 1.38760000e+06
745.000000 1.60181000e+06
755.000000 1.83122000e+06
765.000000 2.07875000e+06
775.000000 2.36340000e+06
785.000000 2.66958000e+06
795.000000 2.99428000e+06
805.000000 3.35445000e+06
815.000000 3.72773000e+06
825.000000 4.16834000e+06
835.000000 4.56652000e+06
845.000000 5.08894000e+06
855.000000 5.59251000e+06
865.000000 6.18547000e+06
875.000000 6.81397000e+06
885.000000 7.48384000e+06
895.000000 8.16786000e+06
905.000000 8.76985000e+06
915.000000 2.17846000e+07
925.000000 5.94710000e+08
935.000000 1.69752000e+09
945.000000 3.29353000e+09
955.000000 3.83452000e+09
965.000000 4.48204000e+09
975.000000 1.99361000e+09
985.000000 4.57251000e+09
995.000000 4.39887000e+09
1005.000000 4.64410000e+09
1015.000000 4.50038000e+09
1025.000000 2.42405000e+09
1035.000000 3.91913000e+09
1045.000000 4.95809000e+09
1055.000000 4.81275000e+09
1065.000000 4.42652000e+09
1075.000000 4.76770000e+09
1085.000000 4.47093000e+09
1095.000000 4.81883000e+09
1105.000000 4.57651000e+09
1115.000000 4.63175000e+09
1125.000000 4.37534000e+09
1135.000000 4.63899000e+09
1145.000000 4.45026000e+09
1155.000000 4.59522000e+09
1165.000000 4.61799000e+09
1175.000000 4.05783000e+09
1185.000000 4.55625000e+09
1195.000000 4.20384000e+09
1205.000000 3.44499000e+09
1215.000000 1.53338000e+09
1225.000000 3.83627000e+09
1235.000000 4.24715000e+09
1245.000000 4.30315000e+09
1255.000000 4.21093000e+09
1265.000000 4.15239000e+09
1275.000000 4.22864000e+09
1285.000000 4.16947000e+09
1295.000000 3.78521000e+09
1305.000000 3.84488000e+09
1315.000000 4.05961000e+09
1325.000000 3.94964000e+09
1335.000000 3.77591000e+09
1345.000000 3.89969000e+09
1355.000000 3.91457000e+09
1365.000000 3.81900000e+09
1375.000000 3.76724000e+09
1385.000000 3.75821000e+09
1395.000000 3.57850000e+09
1405.000000 3.61972000e+09
1415.000000 3.63384000e+09
1425.000000 3.60139000e+09
1435.000000 3.59528000e+09
1442.000000 3.58836000e+09
1447.000000 3.55910000e+09
1455.000000 3.51794000e+09
1465.000000 3.46393000e+09
1475.000000 3.42994000e+09
1485.000000 3.38663000e+09
1495.000000 3.34552000e+09
1505.000000 3.27693000e+09
1512.000000 3.20793000e+09
1517.000000 3.22725000e+09
1525.000000 3.19688000e+09
1535.000000 3.07622000e+09
1545.000000 3.10660000e+09
1555.000000 3.01972000e+09
1565.000000 3.05447000e+09
1575.000000 3.05211000e+09
1585.000000 3.02016000e+09
1595.000000 3.00329000e+09
1605.000000 2.91728000e+09
1615.000000 2.88632000e+09
1625.000000 2.87930000e+09
1635.000000 2.87590000e+09
1645.000000 2.83254000e+09
1655.000000 2.80213000e+09
1665.000000 2.80024000e+09
1672.000000 2.73277000e+09
1677.000000 2.77370000e+09
1685.000000 2.74544000e+09
1695.000000 2.69098000e+09
1705.000000 2.64123000e+09
1715.000000 2.58439000e+09
1725.000000 2.56781000e+09
1735.000000 2.55969000e+09
1745.000000 2.52079000e+09
1755.000000 2.52541000e+09
1765.000000 2.42758000e+09
1775.000000 2.43211000e+09
1785.000000 2.42480000e+09
1795.000000 2.41680000e+09
1805.000000 2.40108000e+09
1815.000000 2.34096000e+09
1825.000000 2.33404000e+09
1835.000000 2.30722000e+09
1845.000000 2.21731000e+09
1855.000000 2.16500000e+09
1865.000000 2.17586000e+09
1875.000000 2.20082000e+09
1885.000000 2.09537000e+09
1895.000000 2.02641000e+09
1905.000000 2.09042000e+09
1915.000000 2.02283000e+09
1925.000000 1.98998000e+09
1935.000000 2.01514000e+09
1945.000000 2.02176000e+09
1955.000000 1.92947000e+09
1967.000000 1.97201000e+09
1976.000000 1.98979000e+09
1984.000000 1.92487000e+09
1995.000000 1.87540000e+09
2005.000000 1.89694000e+09
2015.000000 1.89867000e+09
2025.000000 1.89760000e+09
2035.000000 1.84370000e+09
2045.000000 1.82715000e+09
2055.000000 1.78060000e+09
2065.000000 1.78089000e+09
2074.000000 1.81250000e+09
2078.000000 1.75597000e+09
2085.000000 1.76162000e+09
2095.000000 1.71755000e+09
2105.000000 1.72822000e+09
2115.000000 1.71579000e+09
2125.000000 1.71770000e+09
2135.000000 1.69412000e+09
2145.000000 1.65888000e+09
2155.000000 1.66096000e+09
2165.000000 1.64356000e+09
2175.000000 1.62394000e+09
2185.000000 1.60935000e+09
2195.000000 1.59855000e+09
2205.000000 1.57974000e+09
2215.000000 1.56306000e+09
2225.000000 1.54128000e+09
2235.000000 1.52819000e+09
2245.000000 1.51782000e+09
2255.000000 1.49661000e+09
2265.000000 1.48739000e+09
2275.000000 1.47129000e+09
2285.000000 1.46017000e+09
2295.000000 1.43074000e+09
2305.000000 1.42891000e+09
2315.000000 1.40964000e+09
2325.000000 1.39768000e+09
2335.000000 1.37543000e+09
2345.000000 1.35660000e+09
2355.000000 1.35652000e+09
2365.000000 1.33605000e+09
2375.000000 1.32642000e+09
2385.000000 1.30552000e+09
2395.000000 1.29655000e+09
2405.000000 1.28448000e+09
2415.000000 1.26889000e+09
2425.000000 1.26639000e+09
2435.000000 1.25010000e+09
2445.000000 1.23921000e+09
2455.000000 1.23032000e+09
2465.000000 1.21546000e+09
2475.000000 1.20467000e+09
2485.000000 1.19231000e+09
2495.000000 1.16625000e+09
2505.000000 1.16951000e+09
2513.000000 1.15038000e+09
2518.000000 1.15354000e+09
2525.000000 1.14432000e+09
2535.000000 1.13044000e+09
2545.000000 1.11750000e+09
2555.000000 1.11472000e+09
2565.000000 1.10020000e+09
2575.000000 1.09440000e+09
2585.000000 1.08296000e+09
2595.000000 1.07200000e+09
2605.000000 1.06790000e+09
2615.000000 1.05848000e+09
2625.000000 1.04824000e+09
2635.000000 1.03482000e+09
2645.000000 1.03218000e+09
2655.000000 1.02212000e+09
2665.000000 1.01033000e+09
2675.000000 1.00163000e+09
2685.000000 9.97474000e+08
2695.000000 9.81008000e+08
2705.000000 9.78402000e+08
2715.000000 9.68652000e+08
2725.000000 9.52576000e+08
2735.000000 9.51163000e+08
2745.000000 9.34246000e+08
2755.000000 9.27377000e+08
2765.000000 9.16837000e+08
2775.000000 9.16993000e+08
2785.000000 9.07894000e+08
2795.000000 8.86845000e+08
2805.000000 8.85560000e+08
2815.000000 8.83939000e+08
2825.000000 8.69053000e+08
2835.000000 8.61152000e+08
2845.000000 8.59391000e+08
2855.000000 8.51856000e+08
2865.000000 8.44635000e+08
2875.000000 8.36809000e+08
2885.000000 8.29434000e+08
2895.000000 8.22006000e+08
2910.000000 8.10929000e+08
2930.000000 7.96034000e+08
2950.000000 7.77831000e+08
2970.000000 7.68672000e+08
2990.000000 7.54799000e+08
3010.000000 7.41808000e+08
3030.000000 7.29339000e+08
3050.000000 7.16687000e+08
3070.000000 7.04342000e+08
3090.000000 6.91979000e+08
3110.000000 6.80420000e+08
3130.000000 6.69637000e+08
3150.000000 6.58085000e+08
3170.000000 6.46696000e+08
3190.000000 6.31541000e+08
3210.000000 6.25341000e+08
3230.000000 6.14841000e+08
3250.000000 6.04622000e+08
3270.000000 5.95240000e+08
3290.000000 5.84719000e+08
3310.000000 5.75920000e+08
3330.000000 5.66577000e+08
3350.000000 5.56442000e+08
3370.000000 5.48364000e+08
3390.000000 5.39585000e+08
3410.000000 5.30942000e+08
3430.000000 5.20317000e+08
3450.000000 5.10472000e+08
3470.000000 5.03947000e+08
3490.000000 4.97106000e+08
3510.000000 4.91426000e+08
3530.000000 4.83938000e+08
3550.000000 4.76468000e+08
3570.000000 4.70553000e+08
3590.000000 4.61496000e+08
3610.000000 4.54575000e+08
3630.000000 4.47321000e+08
3640.000000 4.46004000e+08
3650.000000 4.38643000e+08
3670.000000 4.31834000e+08
3690.000000 4.16513000e+08
3710.000000 4.36723000e+08
3730.000000 4.54337000e+08
3750.000000 5.05949000e+08
3770.000000 5.04253000e+08
3790.000000 5.09751000e+08
3810.000000 5.27044000e+08
3830.000000 4.76482000e+08
3850.000000 5.27612000e+08
3870.000000 5.17368000e+08
3890.000000 4.60029000e+08
3910.000000 5.08044000e+08
3930.000000 4.96471000e+08
3950.000000 4.92591000e+08
3970.000000 4.28768000e+08
3990.000000 4.77061000e+08
4010.000000 4.68144000e+08
4030.000000 4.52932000e+08
4050.000000 4.56922000e+08
4070.000000 4.49667000e+08
4090.000000 4.36295000e+08
4110.000000 3.93855000e+08
4130.000000 4.26338000e+08
4150.000000 4.20576000e+08
4170.000000 4.16270000e+08
4190.000000 4.11190000e+08
4210.000000 4.05188000e+08
4230.000000 3.99197000e+08
4250.000000 3.93300000e+08
4270.000000 3.86794000e+08
4290.000000 3.81927000e+08
4310.000000 3.76241000e+08
4330.000000 3.60998000e+08
4350.000000 3.33238000e+08
4370.000000 3.60082000e+08
4390.000000 3.50787000e+08
4410.000000 3.49995000e+08
4430.000000 3.43809000e+08
4450.000000 3.40231000e+08
4470.000000 3.28181000e+08
4490.000000 3.30496000e+08
4510.000000 3.26071000e+08
4530.000000 3.21473000e+08
4550.000000 3.16942000e+08
4570.000000 3.12515000e+08
4590.000000 3.08224000e+08
4610.000000 3.03960000e+08
4630.000000 2.99775000e+08
4650.000000 2.95460000e+08
4670.000000 2.91587000e+08
4690.000000 2.87650000e+08
4710.000000 2.80916000e+08
4730.000000 2.79656000e+08
4750.000000 2.75703000e+08
4770.000000 2.72386000e+08
4790.000000 2.68721000e+08
4810.000000 2.65090000e+08
4830.000000 2.61511000e+08
4850.000000 2.52744000e+08
4870.000000 2.30022000e+08
4890.000000 2.51052000e+08
4910.000000 2.47964000e+08
4930.000000 2.41585000e+08
4950.000000 2.41497000e+08
4970.000000 2.38368000e+08
4990.000000 2.35251000e+08
5010.000000 2.30029000e+08
5030.000000 2.29171000e+08
5050.000000 2.24967000e+08
5070.000000 2.23313000e+08
5090.000000 2.20456000e+08
5110.000000 2.17623000e+08
5130.000000 2.14827000e+08
5150.000000 2.12082000e+08
5170.000000 2.09430000e+08
5190.000000 2.06784000e+08
5210.000000 2.04130000e+08
5230.000000 2.01608000e+08
5250.000000 1.99077000e+08
5270.000000 1.96592000e+08
5290.000000 1.94139000e+08
5310.000000 1.91731000e+08
5330.000000 1.89353000e+08
5350.000000 1.87006000e+08
5370.000000 1.84727000e+08
5390.000000 1.82451000e+08
5410.000000 1.80216000e+08
5430.000000 1.77997000e+08
5450.000000 1.75843000e+08
5470.000000 1.73716000e+08
5490.000000 1.71615000e+08
5510.000000 1.69540000e+08
5530.000000 1.67503000e+08
5550.000000 1.65503000e+08
5570.000000 1.63515000e+08
5590.000000 1.61563000e+08
5610.000000 1.59635000e+08
5630.000000 1.57755000e+08
5650.000000 1.55861000e+08
5670.000000 1.54025000e+08
5690.000000 1.52199000e+08
5710.000000 1.50453000e+08
5730.000000 1.48693000e+08
5750.000000 1.46954000e+08
5770.000000 1.45258000e+08
5790.000000 1.43571000e+08
5810.000000 1.41915000e+08
5830.000000 1.40267000e+08
5850.000000 1.38660000e+08
5870.000000 1.34196000e+08
5890.000000 1.35469000e+08
5910.000000 1.33960000e+08
5930.000000 1.32437000e+08
5950.000000 1.30920000e+08
5970.000000 1.29453000e+08
5990.000000 1.27991000e+08
6010.000000 1.26557000e+08
6030.000000 1.25138000e+08
6050.000000 1.23736000e+08
6070.000000 1.22359000e+08
6090.000000 1.20998000e+08
6110.000000 1.19653000e+08
6130.000000 1.18332000e+08
6150.000000 1.17015000e+08
6170.000000 1.15743000e+08
6190.000000 1.14466000e+08
6210.000000 1.13222000e+08
6230.000000 1.11982000e+08
6250.000000 1.10764000e+08
6270.000000 1.09561000e+08
6290.000000 1.08379000e+08
6310.000000 1.07201000e+08
6330.000000 1.06055000e+08
6350.000000 1.04883000e+08
6370.000000 1.03780000e+08
6390.000000 1.02680000e+08
6410.000000 1.01581000e+08
6430.000000 1.00504000e+08
6450.000000 9.94379000e+07
6470.000000 9.83831000e+07
6490.000000 9.73484000e+07
6510.000000 9.63245000e+07
6530.000000 9.52847000e+07
6550.000000 9.30705000e+07
6570.000000 8.43120000e+07
6590.000000 9.20655000e+07
6610.000000 9.14057000e+07
6630.000000 9.04609000e+07
6650.000000 8.95853000e+07
6670.000000 8.81005000e+07
6690.000000 8.72125000e+07
6710.000000 8.68524000e+07
6730.000000 8.59627000e+07
6750.000000 8.50902000e+07
6770.000000 8.42183000e+07
6790.000000 8.33552000e+07
6810.000000 8.25170000e+07
6830.000000 8.16872000e+07
6850.000000 8.08657000e+07
6870.000000 8.00523000e+07
6890.000000 7.92438000e+07
6910.000000 7.84559000e+07
6930.000000 7.76656000e+07
6950.000000 7.68995000e+07
6970.000000 7.61362000e+07
6990.000000 7.53727000e+07
7010.000000 7.46374000e+07
7030.000000 7.39015000e+07
7050.000000 7.31743000e+07
7070.000000 7.14517000e+07
7090.000000 7.17484000e+07
7110.000000 7.10480000e+07
7130.000000 7.03558000e+07
7150.000000 6.96724000e+07
7170.000000 6.89838000e+07
7190.000000 6.83309000e+07
7210.000000 6.76719000e+07
7230.000000 6.69297000e+07
7250.000000 6.63768000e+07
7270.000000 6.57419000e+07
7290.000000 6.46615000e+07
7310.000000 6.44830000e+07
7330.000000 6.38805000e+07
7350.000000 6.32746000e+07
7370.000000 6.26758000e+07
7390.000000 6.20845000e+07
7410.000000 6.14994000e+07
7430.000000 6.09210000e+07
7450.000000 6.03588000e+07
7470.000000 5.97944000e+07
7490.000000 5.92364000e+07
7510.000000 5.86641000e+07
7530.000000 5.81403000e+07
7550.000000 5.76014000e+07
7570.000000 5.70686000e+07
7590.000000 5.65420000e+07
7610.000000 5.60214000e+07
7630.000000 5.55068000e+07
7650.000000 5.49981000e+07
7670.000000 5.44971000e+07
7690.000000 5.39949000e+07
7710.000000 5.35022000e+07
7730.000000 5.30233000e+07
7750.000000 5.25361000e+07
7770.000000 5.20551000e+07
7790.000000 5.15988000e+07
7810.000000 5.10977000e+07
7830.000000 5.06760000e+07
7850.000000 5.02720000e+07
7870.000000 4.98221000e+07
7890.000000 4.93484000e+07
7910.000000 4.89035000e+07
7930.000000 4.83953000e+07
7950.000000 4.79566000e+07
7970.000000 4.75169000e+07
7990.000000 4.71531000e+07
8010.000000 4.67012000e+07
8030.000000 4.63257000e+07
8050.000000 4.59377000e+07
8070.000000 4.55553000e+07
8090.000000 4.50759000e+07
8110.000000 4.47118000e+07
8130.000000 4.43969000e+07
8150.000000 4.39240000e+07
8170.000000 4.36376000e+07
8190.000000 4.32438000e+07
8210.000000 4.26925000e+07
8230.000000 4.24435000e+07
8250.000000 4.20747000e+07
8270.000000 4.15360000e+07
8290.000000 4.13062000e+07
8310.000000 4.09636000e+07
8330.000000 4.05896000e+07
8350.000000 4.00885000e+07
8370.000000 3.96831000e+07
8390.000000 3.93973000e+07
8410.000000 3.90056000e+07
8430.000000 3.87825000e+07
8450.000000 3.83591000e+07
8470.000000 3.76116000e+07
8490.000000 3.83884000e+07
8510.000000 3.68520000e+07
8530.000000 3.80592000e+07
8550.000000 3.58015000e+07
8570.000000 3.80515000e+07
8590.000000 3.61448000e+07
8610.000000 3.57514000e+07
8630.000000 3.75602000e+07
8650.000000 3.67533000e+07
8670.000000 3.36536000e+07
8690.000000 3.68622000e+07
8710.000000 3.67314000e+07
8730.000000 3.58569000e+07
8750.000000 3.25160000e+07
8770.000000 3.51730000e+07
8790.000000 3.55826000e+07
8810.000000 3.52460000e+07
8830.000000 3.49778000e+07
8850.000000 3.36160000e+07
8870.000000 3.11398000e+07
8890.000000 3.40320000e+07
8910.000000 3.38652000e+07
8930.000000 3.35568000e+07
8950.000000 3.33619000e+07
8970.000000 3.31093000e+07
8990.000000 3.25231000e+07
9010.000000 2.97040000e+07
9030.000000 3.12173000e+07
9050.000000 3.20068000e+07
9070.000000 3.15956000e+07
9090.000000 3.14599000e+07
9110.000000 3.12874000e+07
9130.000000 3.10574000e+07
9150.000000 3.08124000e+07
9170.000000 3.05030000e+07
9190.000000 3.03173000e+07
9210.000000 2.95213000e+07
9230.000000 2.68102000e+07
9250.000000 2.92657000e+07
9270.000000 2.93583000e+07
9290.000000 2.91613000e+07
9310.000000 2.88367000e+07
9330.000000 2.87088000e+07
9350.000000 2.84676000e+07
9370.000000 2.82677000e+07
9390.000000 2.80496000e+07
9410.000000 2.78305000e+07
9430.000000 2.76194000e+07
9450.000000 2.74077000e+07
9470.000000 2.70732000e+07
9490.000000 2.69893000e+07
9510.000000 2.65814000e+07
9530.000000 2.59759000e+07
9550.000000 2.37317000e+07
9570.000000 2.59678000e+07
9590.000000 2.59685000e+07
9610.000000 2.57198000e+07
9630.000000 2.54904000e+07
9650.000000 2.53958000e+07
9670.000000 2.52050000e+07
9690.000000 2.49940000e+07
9710.000000 2.47632000e+07
9730.000000 2.46428000e+07
9750.000000 2.44590000e+07
9770.000000 2.42769000e+07
9790.000000 2.40964000e+07
9810.000000 2.39177000e+07
9830.000000 2.37405000e+07
9850.000000 2.35650000e+07
9870.000000 2.33911000e+07
9890.000000 2.32188000e+07
9910.000000 2.30427000e+07
9930.000000 2.28789000e+07
9950.000000 2.27113000e+07
9970.000000 2.25452000e+07
9990.000000 2.23806000e+07
10025.000000 2.16380000e+07
10075.000000 2.09914000e+07
10125.000000 2.12726000e+07
10175.000000 2.09272000e+07
10225.000000 2.05461000e+07
10275.000000 2.01907000e+07
10325.000000 1.97794000e+07
10375.000000 1.94863000e+07
10425.000000 1.91456000e+07
10475.000000 1.88122000e+07
10525.000000 1.84859000e+07
10575.000000 1.81670000e+07
10625.000000 1.78549000e+07
10675.000000 1.75234000e+07
10725.000000 1.72500000e+07
10775.000000 1.69576000e+07
10825.000000 1.65052000e+07
10875.000000 1.63901000e+07
10925.000000 1.53207000e+07
10975.000000 1.57428000e+07
11025.000000 1.55222000e+07
11075.000000 1.53243000e+07
11125.000000 1.50731000e+07
11175.000000 1.48257000e+07
11225.000000 1.45755000e+07
11275.000000 1.43454000e+07
11325.000000 1.41130000e+07
11375.000000 1.38853000e+07
11425.000000 1.36618000e+07
11475.000000 1.34429000e+07
11525.000000 1.32284000e+07
11575.000000 1.30182000e+07
11625.000000 1.28119000e+07
11675.000000 1.26098000e+07
11725.000000 1.24118000e+07
11775.000000 1.22175000e+07
11825.000000 1.20271000e+07
11875.000000 1.18405000e+07
11925.000000 1.16572000e+07
11975.000000 1.14224000e+07
12025.000000 1.13016000e+07
12075.000000 1.11289000e+07
12125.000000 1.09591000e+07
12175.000000 1.07930000e+07
12225.000000 1.06298000e+07
12275.000000 1.04696000e+07
12325.000000 1.03127000e+07
12375.000000 1.01584000e+07
12425.000000 1.00073000e+07
12475.000000 9.85871000e+06
12525.000000 9.69755000e+06
12575.000000 9.56984000e+06
12625.000000 9.42943000e+06
12675.000000 9.29163000e+06
12725.000000 9.15617000e+06
12775.000000 8.94590000e+06
12825.000000 8.47982000e+06
12875.000000 8.75589000e+06
12925.000000 8.63911000e+06
12975.000000 8.48203000e+06
13025.000000 8.39416000e+06
13075.000000 8.27499000e+06
