# Kurucz ODFNEW /NOVER, alpha: 0.0 (2003)
# teff = 19000 K (value for the effective temperature for the model. Temperatures are given in K)
# logg = 5 log(cm/s2) (value for Log(G) for the model.)
# lh = 1.25  (l/Hp where l is the  mixing length of the convective element and Hp is the pressure scale height)
# meta = -1.5  (value for the Metallicity for the model.)
# vtur = 2 km/s (Microturbulence velocity)
# alpha = 0  (Alpha)
#
# column 1: WAVELENGTH (ANGSTROM), Wavelength in Angstrom
# column 2: FLUX (ERG/CM2/S/A), Flux in erg/cm2/s/A
147.200000 1.43837000e-21
151.000000 9.83452000e-21
155.200000 7.36206000e-20
158.800000 3.80308000e-19
162.000000 1.54588000e-18
166.000000 8.30880000e-18
170.300000 4.66007000e-17
173.400000 1.53473000e-16
176.800000 5.41757000e-16
180.200000 1.82738000e-15
181.700000 3.08094000e-15
186.100000 1.36156000e-14
191.000000 6.58587000e-14
193.900000 1.60944000e-13
198.400000 6.13045000e-13
201.800000 1.62438000e-12
205.000000 3.95492000e-12
210.500000 1.70739000e-11
216.200000 7.20060000e-11
219.800000 1.72067000e-10
223.000000 3.63911000e-10
226.800000 8.62977000e-10
230.000000 1.93749000e-09
234.000000 4.78329000e-09
240.000000 1.63367000e-08
246.500000 5.74851000e-08
252.400000 1.70317000e-07
256.800000 3.68553000e-07
260.000000 6.40774000e-07
264.000000 1.24749000e-06
268.500000 2.57348000e-06
273.500000 5.59134000e-06
278.500000 1.18208000e-05
284.000000 2.60893000e-05
290.000000 5.97123000e-05
296.000000 1.31866000e-04
301.000000 2.49171000e-04
308.000000 5.84331000e-04
318.000000 1.85425000e-03
328.000000 5.45534000e-03
338.000000 1.50067000e-02
348.000000 3.88414000e-02
357.000000 8.70963000e-02
366.000000 1.87347000e-01
375.000000 3.87378000e-01
385.000000 8.32299000e-01
395.000000 1.71537000e+00
405.000000 3.40291000e+00
414.000000 6.11507000e+00
422.000000 1.00639000e+01
430.000000 1.62340000e+01
441.000000 3.03892000e+01
451.000000 5.21992000e+01
460.000000 8.30923000e+01
470.000000 1.36150000e+02
480.000000 2.18075000e+02
490.000000 3.42038000e+02
500.000000 5.25824000e+02
506.000000 4.12917000e+03
512.000000 1.04166000e+04
520.000000 1.35147000e+04
530.000000 1.96291000e+04
540.000000 2.42574000e+04
550.000000 3.49754000e+04
560.000000 4.55211000e+04
570.000000 5.92992000e+04
580.000000 6.77508000e+04
590.000000 9.31499000e+04
600.000000 1.19999000e+05
610.000000 1.49922000e+05
620.000000 1.84454000e+05
630.000000 2.26522000e+05
640.000000 2.72899000e+05
650.000000 3.32200000e+05
658.000000 3.85253000e+05
665.000000 4.35429000e+05
675.000000 5.14932000e+05
685.000000 6.06862000e+05
695.000000 7.20467000e+05
705.000000 8.41800000e+05
716.000000 9.91838000e+05
726.000000 1.14775000e+06
735.000000 1.30420000e+06
745.000000 1.49877000e+06
755.000000 1.71398000e+06
765.000000 1.94736000e+06
775.000000 2.21098000e+06
785.000000 2.49694000e+06
795.000000 2.80652000e+06
805.000000 3.14714000e+06
815.000000 3.51261000e+06
825.000000 3.91633000e+06
835.000000 4.30381000e+06
845.000000 4.80598000e+06
855.000000 5.28846000e+06
865.000000 5.84359000e+06
875.000000 6.41295000e+06
885.000000 7.03748000e+06
895.000000 7.68673000e+06
905.000000 8.28503000e+06
915.000000 1.29889000e+07
925.000000 3.80329000e+07
935.000000 7.75027000e+07
945.000000 3.85536000e+08
955.000000 1.64410000e+09
965.000000 2.50329000e+09
975.000000 5.87312000e+08
985.000000 6.25498000e+09
995.000000 8.22619000e+09
1005.000000 8.34677000e+09
1015.000000 4.47150000e+09
1025.000000 2.63417000e+08
1035.000000 3.29557000e+09
1045.000000 8.39170000e+09
1055.000000 9.29550000e+09
1065.000000 8.67601000e+09
1075.000000 9.37696000e+09
1085.000000 8.77385000e+09
1095.000000 9.19402000e+09
1105.000000 8.61739000e+09
1115.000000 8.57715000e+09
1125.000000 8.11845000e+09
1135.000000 8.29362000e+09
1145.000000 7.78645000e+09
1155.000000 7.94732000e+09
1165.000000 7.90029000e+09
1175.000000 6.97016000e+09
1185.000000 7.25437000e+09
1195.000000 5.58093000e+09
1205.000000 2.84618000e+09
1215.000000 2.88629000e+08
1225.000000 2.22971000e+09
1235.000000 5.38360000e+09
1245.000000 6.29857000e+09
1255.000000 6.36411000e+09
1265.000000 6.23400000e+09
1275.000000 6.41538000e+09
1285.000000 6.38345000e+09
1295.000000 5.83237000e+09
1305.000000 5.58980000e+09
1315.000000 6.05172000e+09
1325.000000 5.83819000e+09
1335.000000 5.57075000e+09
1345.000000 5.71729000e+09
1355.000000 5.61783000e+09
1365.000000 5.46909000e+09
1375.000000 5.38645000e+09
1385.000000 5.33330000e+09
1395.000000 5.15063000e+09
1405.000000 5.13960000e+09
1415.000000 5.05686000e+09
1425.000000 5.00822000e+09
1435.000000 4.92768000e+09
1442.000000 4.90297000e+09
1447.000000 4.85619000e+09
1455.000000 4.77215000e+09
1465.000000 4.67071000e+09
1475.000000 4.60205000e+09
1485.000000 4.49740000e+09
1495.000000 4.43508000e+09
1505.000000 4.33093000e+09
1512.000000 4.25055000e+09
1517.000000 4.25924000e+09
1525.000000 4.17158000e+09
1535.000000 4.04098000e+09
1545.000000 4.06602000e+09
1555.000000 3.93552000e+09
1565.000000 3.86477000e+09
1575.000000 3.86870000e+09
1585.000000 3.81794000e+09
1595.000000 3.79450000e+09
1605.000000 3.67498000e+09
1615.000000 3.62123000e+09
1625.000000 3.56267000e+09
1635.000000 3.52416000e+09
1645.000000 3.47365000e+09
1655.000000 3.36316000e+09
1665.000000 3.41461000e+09
1672.000000 3.28286000e+09
1677.000000 3.33404000e+09
1685.000000 3.31320000e+09
1695.000000 3.24551000e+09
1705.000000 3.16466000e+09
1715.000000 3.10250000e+09
1725.000000 3.04701000e+09
1735.000000 3.05453000e+09
1745.000000 2.98536000e+09
1755.000000 2.97932000e+09
1765.000000 2.82642000e+09
1775.000000 2.88123000e+09
1785.000000 2.83166000e+09
1795.000000 2.82241000e+09
1805.000000 2.78001000e+09
1815.000000 2.72830000e+09
1825.000000 2.70753000e+09
1835.000000 2.66132000e+09
1845.000000 2.58894000e+09
1855.000000 2.51863000e+09
1865.000000 2.49548000e+09
1875.000000 2.51137000e+09
1885.000000 2.43401000e+09
1895.000000 2.37744000e+09
1905.000000 2.40268000e+09
1915.000000 2.33338000e+09
1925.000000 2.30259000e+09
1935.000000 2.28791000e+09
1945.000000 2.28844000e+09
1955.000000 2.21758000e+09
1967.000000 2.22634000e+09
1976.000000 2.21663000e+09
1984.000000 2.16912000e+09
1995.000000 2.11223000e+09
2005.000000 2.11857000e+09
2015.000000 2.09667000e+09
2025.000000 2.08419000e+09
2035.000000 2.04756000e+09
2045.000000 2.02254000e+09
2055.000000 1.96187000e+09
2065.000000 1.95652000e+09
2074.000000 1.95823000e+09
2078.000000 1.92828000e+09
2085.000000 1.92835000e+09
2095.000000 1.88990000e+09
2105.000000 1.88262000e+09
2115.000000 1.86427000e+09
2125.000000 1.85052000e+09
2135.000000 1.82363000e+09
2145.000000 1.79996000e+09
2155.000000 1.78240000e+09
2165.000000 1.75070000e+09
2175.000000 1.73169000e+09
2185.000000 1.71438000e+09
2195.000000 1.70208000e+09
2205.000000 1.67404000e+09
2215.000000 1.64837000e+09
2225.000000 1.62392000e+09
2235.000000 1.62073000e+09
2245.000000 1.59915000e+09
2255.000000 1.57551000e+09
2265.000000 1.56340000e+09
2275.000000 1.54328000e+09
2285.000000 1.53189000e+09
2295.000000 1.50412000e+09
2305.000000 1.49103000e+09
2315.000000 1.47206000e+09
2325.000000 1.45977000e+09
2335.000000 1.42967000e+09
2345.000000 1.39490000e+09
2355.000000 1.40223000e+09
2365.000000 1.37046000e+09
2375.000000 1.36756000e+09
2385.000000 1.33764000e+09
2395.000000 1.33582000e+09
2405.000000 1.31848000e+09
2415.000000 1.30371000e+09
2425.000000 1.30259000e+09
2435.000000 1.28035000e+09
2445.000000 1.26876000e+09
2455.000000 1.26276000e+09
2465.000000 1.24032000e+09
2475.000000 1.23130000e+09
2485.000000 1.22117000e+09
2495.000000 1.19688000e+09
2505.000000 1.19778000e+09
2513.000000 1.17961000e+09
2518.000000 1.18194000e+09
2525.000000 1.16358000e+09
2535.000000 1.14287000e+09
2545.000000 1.13879000e+09
2555.000000 1.13803000e+09
2565.000000 1.12042000e+09
2575.000000 1.11559000e+09
2585.000000 1.10382000e+09
2595.000000 1.09147000e+09
2605.000000 1.08050000e+09
2615.000000 1.07060000e+09
2625.000000 1.06049000e+09
2635.000000 1.04947000e+09
2645.000000 1.05156000e+09
2655.000000 1.04008000e+09
2665.000000 1.02460000e+09
2675.000000 1.01700000e+09
2685.000000 1.01028000e+09
2695.000000 9.94546000e+08
2705.000000 9.89729000e+08
2715.000000 9.77443000e+08
2725.000000 9.62063000e+08
2735.000000 9.60228000e+08
2745.000000 9.36096000e+08
2755.000000 9.30305000e+08
2765.000000 9.24919000e+08
2775.000000 9.25358000e+08
2785.000000 9.14742000e+08
2795.000000 8.86797000e+08
2805.000000 8.91354000e+08
2815.000000 8.91403000e+08
2825.000000 8.76276000e+08
2835.000000 8.66824000e+08
2845.000000 8.63580000e+08
2855.000000 8.56848000e+08
2865.000000 8.50188000e+08
2875.000000 8.41413000e+08
2885.000000 8.34096000e+08
2895.000000 8.26726000e+08
2910.000000 8.15644000e+08
2930.000000 7.98799000e+08
2950.000000 7.81078000e+08
2970.000000 7.71661000e+08
2990.000000 7.57327000e+08
3010.000000 7.44552000e+08
3030.000000 7.31473000e+08
3050.000000 7.18469000e+08
3070.000000 7.05781000e+08
3090.000000 6.93517000e+08
3110.000000 6.81315000e+08
3130.000000 6.69906000e+08
3150.000000 6.58313000e+08
3170.000000 6.47071000e+08
3190.000000 6.32282000e+08
3210.000000 6.25085000e+08
3230.000000 6.14552000e+08
3250.000000 6.04229000e+08
3270.000000 5.94500000e+08
3290.000000 5.84336000e+08
3310.000000 5.75026000e+08
3330.000000 5.65558000e+08
3350.000000 5.55905000e+08
3370.000000 5.47236000e+08
3390.000000 5.38405000e+08
3410.000000 5.29743000e+08
3430.000000 5.20637000e+08
3450.000000 5.11706000e+08
3470.000000 5.04104000e+08
3490.000000 4.96209000e+08
3510.000000 4.88919000e+08
3530.000000 4.81248000e+08
3550.000000 4.73539000e+08
3570.000000 4.67154000e+08
3590.000000 4.58631000e+08
3610.000000 4.52320000e+08
3630.000000 4.44662000e+08
3640.000000 4.42592000e+08
3650.000000 4.38672000e+08
3670.000000 4.33540000e+08
3690.000000 4.26778000e+08
3710.000000 4.14005000e+08
3730.000000 3.93764000e+08
3750.000000 4.03506000e+08
3770.000000 4.02311000e+08
3790.000000 4.40642000e+08
3810.000000 4.76800000e+08
3830.000000 4.03364000e+08
3850.000000 5.06339000e+08
3870.000000 5.38950000e+08
3890.000000 3.68735000e+08
3910.000000 5.33549000e+08
3930.000000 5.49280000e+08
3950.000000 5.20745000e+08
3970.000000 3.47427000e+08
3990.000000 4.94289000e+08
4010.000000 5.18211000e+08
4030.000000 4.84525000e+08
4050.000000 5.11424000e+08
4070.000000 4.95107000e+08
4090.000000 4.12197000e+08
4110.000000 3.43118000e+08
4130.000000 4.60197000e+08
4150.000000 4.67169000e+08
4170.000000 4.66164000e+08
4190.000000 4.60716000e+08
4210.000000 4.53692000e+08
4230.000000 4.46444000e+08
4250.000000 4.39123000e+08
4270.000000 4.30701000e+08
4290.000000 4.22518000e+08
4310.000000 4.06884000e+08
4330.000000 3.31823000e+08
4350.000000 2.96386000e+08
4370.000000 3.84563000e+08
4390.000000 3.77294000e+08
4410.000000 3.86394000e+08
4430.000000 3.79956000e+08
4450.000000 3.75559000e+08
4470.000000 3.48996000e+08
4490.000000 3.63180000e+08
4510.000000 3.59966000e+08
4530.000000 3.54554000e+08
4550.000000 3.49261000e+08
4570.000000 3.44100000e+08
4590.000000 3.39033000e+08
4610.000000 3.34042000e+08
4630.000000 3.29088000e+08
4650.000000 3.24277000e+08
4670.000000 3.19588000e+08
4690.000000 3.14967000e+08
4710.000000 3.06287000e+08
4730.000000 3.05756000e+08
4750.000000 3.01250000e+08
4770.000000 2.96527000e+08
4790.000000 2.91659000e+08
4810.000000 2.85835000e+08
4830.000000 2.75673000e+08
4850.000000 2.32724000e+08
4870.000000 2.02352000e+08
4890.000000 2.60284000e+08
4910.000000 2.65028000e+08
4930.000000 2.56605000e+08
4950.000000 2.60962000e+08
4970.000000 2.58073000e+08
4990.000000 2.54601000e+08
5010.000000 2.47800000e+08
5030.000000 2.47590000e+08
5050.000000 2.42605000e+08
5070.000000 2.41046000e+08
5090.000000 2.37789000e+08
5110.000000 2.34589000e+08
5130.000000 2.31461000e+08
5150.000000 2.28360000e+08
5170.000000 2.25328000e+08
5190.000000 2.22350000e+08
5210.000000 2.19314000e+08
5230.000000 2.16510000e+08
5250.000000 2.13675000e+08
5270.000000 2.10876000e+08
5290.000000 2.08154000e+08
5310.000000 2.05439000e+08
5330.000000 2.02773000e+08
5350.000000 2.00141000e+08
5370.000000 1.97608000e+08
5390.000000 1.95068000e+08
5410.000000 1.92573000e+08
5430.000000 1.90097000e+08
5450.000000 1.87702000e+08
5470.000000 1.85325000e+08
5490.000000 1.83014000e+08
5510.000000 1.80708000e+08
5530.000000 1.78455000e+08
5550.000000 1.76229000e+08
5570.000000 1.74031000e+08
5590.000000 1.71883000e+08
5610.000000 1.69750000e+08
5630.000000 1.67667000e+08
5650.000000 1.65562000e+08
5670.000000 1.63552000e+08
5690.000000 1.61578000e+08
5710.000000 1.59628000e+08
5730.000000 1.57689000e+08
5750.000000 1.55785000e+08
5770.000000 1.53904000e+08
5790.000000 1.52056000e+08
5810.000000 1.50240000e+08
5830.000000 1.48447000e+08
5850.000000 1.46685000e+08
5870.000000 1.40603000e+08
5890.000000 1.42875000e+08
5910.000000 1.41543000e+08
5930.000000 1.39872000e+08
5950.000000 1.38220000e+08
5970.000000 1.36619000e+08
5990.000000 1.35015000e+08
6010.000000 1.33461000e+08
6030.000000 1.31925000e+08
6050.000000 1.30395000e+08
6070.000000 1.28893000e+08
6090.000000 1.27418000e+08
6110.000000 1.25960000e+08
6130.000000 1.24527000e+08
6150.000000 1.23101000e+08
6170.000000 1.21721000e+08
6190.000000 1.20345000e+08
6210.000000 1.18985000e+08
6230.000000 1.17650000e+08
6250.000000 1.16320000e+08
6270.000000 1.15032000e+08
6290.000000 1.13750000e+08
6310.000000 1.12491000e+08
6330.000000 1.11245000e+08
6350.000000 1.09891000e+08
6370.000000 1.08747000e+08
6390.000000 1.07616000e+08
6410.000000 1.06432000e+08
6430.000000 1.05279000e+08
6450.000000 1.04120000e+08
6470.000000 1.02838000e+08
6490.000000 1.01516000e+08
6510.000000 1.00014000e+08
6530.000000 9.75641000e+07
6550.000000 8.86185000e+07
6570.000000 7.69502000e+07
6590.000000 9.26120000e+07
6610.000000 9.44236000e+07
6630.000000 9.40347000e+07
6650.000000 9.32655000e+07
6670.000000 9.15300000e+07
6690.000000 9.06805000e+07
6710.000000 9.05926000e+07
6730.000000 8.96474000e+07
6750.000000 8.87118000e+07
6770.000000 8.77856000e+07
6790.000000 8.68689000e+07
6810.000000 8.59776000e+07
6830.000000 8.50871000e+07
6850.000000 8.42056000e+07
6870.000000 8.33409000e+07
6890.000000 8.24927000e+07
6910.000000 8.16451000e+07
6930.000000 8.08058000e+07
6950.000000 7.99904000e+07
6970.000000 7.91831000e+07
6990.000000 7.83836000e+07
7010.000000 7.75920000e+07
7030.000000 7.68081000e+07
7050.000000 7.60318000e+07
7070.000000 7.44039000e+07
7090.000000 7.45266000e+07
7110.000000 7.37845000e+07
7130.000000 7.30517000e+07
7150.000000 7.23275000e+07
7170.000000 7.16131000e+07
7190.000000 7.09084000e+07
7210.000000 7.02112000e+07
7230.000000 6.94889000e+07
7250.000000 6.88423000e+07
7270.000000 6.81711000e+07
7290.000000 6.71844000e+07
7310.000000 6.68518000e+07
7330.000000 6.62056000e+07
7350.000000 6.55662000e+07
7370.000000 6.49347000e+07
7390.000000 6.43106000e+07
7410.000000 6.36942000e+07
7430.000000 6.30836000e+07
7450.000000 6.24854000e+07
7470.000000 6.18900000e+07
7490.000000 6.13034000e+07
7510.000000 6.07181000e+07
7530.000000 6.01495000e+07
7550.000000 5.95828000e+07
7570.000000 5.90225000e+07
7590.000000 5.84686000e+07
7610.000000 5.79222000e+07
7630.000000 5.73815000e+07
7650.000000 5.68469000e+07
7670.000000 5.63190000e+07
7690.000000 5.57971000e+07
7710.000000 5.52811000e+07
7730.000000 5.47710000e+07
7750.000000 5.42672000e+07
7770.000000 5.37218000e+07
7790.000000 5.32768000e+07
7810.000000 5.27844000e+07
7830.000000 5.23092000e+07
7850.000000 5.18413000e+07
7870.000000 5.13683000e+07
7890.000000 5.08934000e+07
7910.000000 5.04533000e+07
7930.000000 4.99984000e+07
7950.000000 4.95439000e+07
7970.000000 4.91046000e+07
7990.000000 4.86543000e+07
8010.000000 4.82308000e+07
8030.000000 4.78016000e+07
8050.000000 4.73765000e+07
8070.000000 4.69563000e+07
8090.000000 4.65402000e+07
8110.000000 4.61300000e+07
8130.000000 4.57238000e+07
8150.000000 4.53221000e+07
8170.000000 4.49249000e+07
8190.000000 4.45278000e+07
8210.000000 4.40898000e+07
8230.000000 4.37439000e+07
8250.000000 4.33865000e+07
8270.000000 4.29687000e+07
8290.000000 4.26607000e+07
8310.000000 4.23138000e+07
8330.000000 4.19512000e+07
8350.000000 4.15430000e+07
8370.000000 4.12377000e+07
8390.000000 4.09134000e+07
8410.000000 4.05598000e+07
8430.000000 4.02017000e+07
8450.000000 3.97731000e+07
8470.000000 3.94842000e+07
8490.000000 3.91191000e+07
8510.000000 3.87175000e+07
8530.000000 3.84439000e+07
8550.000000 3.77654000e+07
8570.000000 3.79684000e+07
8590.000000 3.68861000e+07
8610.000000 3.66001000e+07
8630.000000 3.72805000e+07
8650.000000 3.62226000e+07
8670.000000 3.43687000e+07
8690.000000 3.62192000e+07
8710.000000 3.66162000e+07
8730.000000 3.53710000e+07
8750.000000 3.19678000e+07
8770.000000 3.40278000e+07
8790.000000 3.57279000e+07
8810.000000 3.58658000e+07
8830.000000 3.50430000e+07
8850.000000 3.21196000e+07
8870.000000 2.96794000e+07
8890.000000 3.32793000e+07
8910.000000 3.44977000e+07
8930.000000 3.46391000e+07
8950.000000 3.44163000e+07
8970.000000 3.37611000e+07
8990.000000 3.20812000e+07
9010.000000 2.79799000e+07
9030.000000 2.91022000e+07
9050.000000 3.18987000e+07
9070.000000 3.24551000e+07
9090.000000 3.26325000e+07
9110.000000 3.25330000e+07
9130.000000 3.22944000e+07
9150.000000 3.19715000e+07
9170.000000 3.14783000e+07
9190.000000 3.06683000e+07
9210.000000 2.85478000e+07
9230.000000 2.47902000e+07
9250.000000 2.76947000e+07
9270.000000 2.95503000e+07
9290.000000 3.00095000e+07
9310.000000 2.99454000e+07
9330.000000 2.98682000e+07
9350.000000 2.96682000e+07
9370.000000 2.94627000e+07
9390.000000 2.92352000e+07
9410.000000 2.89839000e+07
9430.000000 2.87514000e+07
9450.000000 2.84805000e+07
9470.000000 2.80687000e+07
9490.000000 2.77184000e+07
9510.000000 2.68030000e+07
9530.000000 2.47580000e+07
9550.000000 2.18629000e+07
9570.000000 2.48456000e+07
9590.000000 2.62078000e+07
9610.000000 2.64859000e+07
9630.000000 2.64235000e+07
9650.000000 2.63760000e+07
9670.000000 2.62138000e+07
9690.000000 2.60448000e+07
9710.000000 2.58393000e+07
9730.000000 2.56918000e+07
9750.000000 2.54965000e+07
9770.000000 2.53034000e+07
9790.000000 2.51117000e+07
9810.000000 2.49221000e+07
9830.000000 2.47339000e+07
9850.000000 2.45477000e+07
9870.000000 2.43633000e+07
9890.000000 2.41782000e+07
9910.000000 2.39549000e+07
9930.000000 2.37477000e+07
9950.000000 2.35321000e+07
9970.000000 2.32823000e+07
9990.000000 2.29457000e+07
10025.000000 2.10581000e+07
10075.000000 2.02573000e+07
10125.000000 2.18789000e+07
10175.000000 2.16899000e+07
10225.000000 2.13547000e+07
10275.000000 2.09758000e+07
10325.000000 2.05494000e+07
10375.000000 2.02321000e+07
10425.000000 1.98728000e+07
10475.000000 1.95212000e+07
10525.000000 1.91773000e+07
10575.000000 1.88411000e+07
10625.000000 1.85120000e+07
10675.000000 1.81727000e+07
10725.000000 1.78753000e+07
10775.000000 1.75521000e+07
10825.000000 1.70514000e+07
10875.000000 1.66806000e+07
10925.000000 1.46480000e+07
10975.000000 1.54088000e+07
11025.000000 1.59354000e+07
11075.000000 1.57976000e+07
11125.000000 1.55881000e+07
11175.000000 1.53288000e+07
11225.000000 1.50721000e+07
11275.000000 1.48237000e+07
11325.000000 1.45812000e+07
11375.000000 1.43438000e+07
11425.000000 1.41100000e+07
11475.000000 1.38809000e+07
11525.000000 1.36566000e+07
11575.000000 1.34368000e+07
11625.000000 1.32212000e+07
11675.000000 1.30100000e+07
11725.000000 1.28031000e+07
11775.000000 1.25990000e+07
11825.000000 1.24013000e+07
11875.000000 1.22066000e+07
11925.000000 1.20154000e+07
11975.000000 1.17642000e+07
12025.000000 1.16444000e+07
12075.000000 1.14645000e+07
12125.000000 1.12876000e+07
12175.000000 1.11145000e+07
12225.000000 1.09446000e+07
12275.000000 1.07779000e+07
12325.000000 1.06142000e+07
12375.000000 1.04539000e+07
12425.000000 1.02964000e+07
12475.000000 1.01419000e+07
12525.000000 9.98116000e+06
12575.000000 9.84167000e+06
12625.000000 9.69580000e+06
12675.000000 9.52847000e+06
12725.000000 9.34299000e+06
12775.000000 8.93944000e+06
12825.000000 8.05013000e+06
12875.000000 8.77225000e+06
12925.000000 8.82088000e+06
12975.000000 8.70290000e+06
13025.000000 8.62067000e+06
13075.000000 8.49734000e+06
