# Kurucz ODFNEW /NOVER, alpha: 0.0 (2003)
# teff = 35000 K (value for the effective temperature for the model. Temperatures are given in K)
# logg = 5 log(cm/s2) (value for Log(G) for the model.)
# lh = 1.25  (l/Hp where l is the  mixing length of the convective element and Hp is the pressure scale height)
# meta = 0.2  (value for the Metallicity for the model.)
# vtur = 2 km/s (Microturbulence velocity)
# alpha = 0  (Alpha)
#
# column 1: WAVELENGTH (ANGSTROM), Wavelength in Angstrom
# column 2: FLUX (ERG/CM2/S/A), Flux in erg/cm2/s/A
147.200000 2.64832000e-04
151.000000 6.49846000e-04
155.200000 1.66179000e-03
158.800000 3.57302000e-03
162.000000 6.85431000e-03
166.000000 1.49675000e-02
170.300000 3.31329000e-02
173.400000 5.75652000e-02
176.800000 1.03357000e-01
180.200000 1.80603000e-01
181.700000 2.30899000e-01
186.100000 4.56210000e-01
191.000000 9.39433000e-01
193.900000 1.41394000e+00
198.400000 2.61435000e+00
201.800000 4.06913000e+00
205.000000 6.09042000e+00
210.500000 1.18511000e+01
216.200000 2.26179000e+01
219.800000 3.38044000e+01
223.000000 4.75205000e+01
226.800000 7.11460000e+01
230.000000 2.03626000e+04
234.000000 4.60020000e+04
240.000000 6.81841000e+04
246.500000 1.05885000e+05
252.400000 1.63434000e+05
256.800000 2.19207000e+05
260.000000 3.54432000e+05
264.000000 5.91775000e+05
268.500000 8.54343000e+05
273.500000 1.10880000e+06
278.500000 1.30074000e+06
284.000000 2.45578000e+06
290.000000 3.35437000e+06
296.000000 4.17079000e+06
301.000000 7.36319000e+06
308.000000 1.47596000e+07
318.000000 2.97486000e+07
328.000000 3.98076000e+07
338.000000 6.78379000e+07
348.000000 9.87801000e+07
357.000000 1.86143000e+08
366.000000 3.62679000e+08
375.000000 4.03372000e+08
385.000000 5.26341000e+08
395.000000 8.71506000e+08
405.000000 1.02338000e+09
414.000000 1.19701000e+09
422.000000 1.31089000e+09
430.000000 1.41138000e+09
441.000000 1.66606000e+09
451.000000 1.78957000e+09
460.000000 1.79142000e+09
470.000000 2.03884000e+09
480.000000 2.33134000e+09
490.000000 2.39516000e+09
500.000000 2.79880000e+09
506.000000 3.92685000e+09
512.000000 2.32539000e+10
520.000000 2.16410000e+10
530.000000 1.94963000e+10
540.000000 1.74295000e+10
550.000000 1.99112000e+10
560.000000 2.49703000e+10
570.000000 2.60916000e+10
580.000000 2.40854000e+10
590.000000 2.50583000e+10
600.000000 2.01760000e+10
610.000000 2.36618000e+10
620.000000 2.77823000e+10
630.000000 2.66159000e+10
640.000000 2.65890000e+10
650.000000 2.62034000e+10
658.000000 2.20166000e+10
665.000000 2.54248000e+10
675.000000 2.76504000e+10
685.000000 2.18487000e+10
695.000000 2.80161000e+10
705.000000 2.28808000e+10
716.000000 2.91687000e+10
726.000000 2.83264000e+10
735.000000 2.82485000e+10
745.000000 2.68430000e+10
755.000000 2.66197000e+10
765.000000 2.65997000e+10
775.000000 2.71408000e+10
785.000000 2.75493000e+10
795.000000 2.75461000e+10
805.000000 2.63183000e+10
815.000000 2.60751000e+10
825.000000 2.71256000e+10
835.000000 2.25559000e+10
845.000000 2.56642000e+10
855.000000 2.52096000e+10
865.000000 2.58284000e+10
875.000000 2.57635000e+10
885.000000 2.59051000e+10
895.000000 2.58745000e+10
905.000000 2.49655000e+10
915.000000 2.34243000e+10
925.000000 5.10525000e+10
935.000000 7.96616000e+10
945.000000 1.12590000e+11
955.000000 1.26176000e+11
965.000000 1.50599000e+11
975.000000 6.56267000e+10
985.000000 1.26703000e+11
995.000000 1.11041000e+11
1005.000000 1.15970000e+11
1015.000000 1.20516000e+11
1025.000000 8.61444000e+10
1035.000000 1.16315000e+11
1045.000000 1.33153000e+11
1055.000000 1.26288000e+11
1065.000000 1.08549000e+11
1075.000000 1.12628000e+11
1085.000000 1.01384000e+11
1095.000000 1.09105000e+11
1105.000000 1.03520000e+11
1115.000000 1.02150000e+11
1125.000000 8.48845000e+10
1135.000000 9.69178000e+10
1145.000000 9.27783000e+10
1155.000000 8.77842000e+10
1165.000000 8.39798000e+10
1175.000000 5.81129000e+10
1185.000000 7.67342000e+10
1195.000000 7.40941000e+10
1205.000000 7.04358000e+10
1215.000000 5.12259000e+10
1225.000000 6.72132000e+10
1235.000000 7.19904000e+10
1245.000000 6.95504000e+10
1255.000000 6.89918000e+10
1265.000000 7.04856000e+10
1275.000000 7.20076000e+10
1285.000000 7.17149000e+10
1295.000000 6.66107000e+10
1305.000000 6.62773000e+10
1315.000000 6.93427000e+10
1325.000000 6.65447000e+10
1335.000000 6.45982000e+10
1345.000000 6.38994000e+10
1355.000000 6.23483000e+10
1365.000000 5.98752000e+10
1375.000000 5.80769000e+10
1385.000000 5.59922000e+10
1395.000000 4.64846000e+10
1405.000000 4.67757000e+10
1415.000000 5.29751000e+10
1425.000000 4.73179000e+10
1435.000000 5.03160000e+10
1442.000000 4.96094000e+10
1447.000000 4.92888000e+10
1455.000000 4.69349000e+10
1465.000000 4.57662000e+10
1475.000000 4.56309000e+10
1485.000000 4.56283000e+10
1495.000000 4.40457000e+10
1505.000000 4.26273000e+10
1512.000000 4.16304000e+10
1517.000000 4.17886000e+10
1525.000000 4.03745000e+10
1535.000000 3.52439000e+10
1545.000000 3.00702000e+10
1555.000000 3.01848000e+10
1565.000000 3.34442000e+10
1575.000000 3.47749000e+10
1585.000000 3.48713000e+10
1595.000000 3.46946000e+10
1605.000000 3.28231000e+10
1615.000000 3.11772000e+10
1625.000000 3.19231000e+10
1635.000000 3.18974000e+10
1645.000000 3.15233000e+10
1655.000000 3.19000000e+10
1665.000000 3.13100000e+10
1672.000000 2.90082000e+10
1677.000000 3.33297000e+10
1685.000000 3.17521000e+10
1695.000000 3.06324000e+10
1705.000000 3.01083000e+10
1715.000000 2.88360000e+10
1725.000000 2.75543000e+10
1735.000000 2.84891000e+10
1745.000000 2.81710000e+10
1755.000000 2.76356000e+10
1765.000000 2.71480000e+10
1775.000000 2.61877000e+10
1785.000000 2.64945000e+10
1795.000000 2.58377000e+10
1805.000000 2.56632000e+10
1815.000000 2.49123000e+10
1825.000000 2.44489000e+10
1835.000000 2.43476000e+10
1845.000000 2.31226000e+10
1855.000000 2.33130000e+10
1865.000000 2.32749000e+10
1875.000000 2.27058000e+10
1885.000000 2.15972000e+10
1895.000000 2.11821000e+10
1905.000000 2.15977000e+10
1915.000000 2.09546000e+10
1925.000000 1.96171000e+10
1935.000000 2.06937000e+10
1945.000000 2.08350000e+10
1955.000000 1.90433000e+10
1967.000000 1.97718000e+10
1976.000000 2.00938000e+10
1984.000000 1.93817000e+10
1995.000000 1.88543000e+10
2005.000000 1.90969000e+10
2015.000000 1.89700000e+10
2025.000000 1.88584000e+10
2035.000000 1.81113000e+10
2045.000000 1.78545000e+10
2055.000000 1.44420000e+10
2065.000000 1.38898000e+10
2074.000000 1.41777000e+10
2078.000000 1.39792000e+10
2085.000000 1.44436000e+10
2095.000000 1.50777000e+10
2105.000000 1.61574000e+10
2115.000000 1.63780000e+10
2125.000000 1.60257000e+10
2135.000000 1.58751000e+10
2145.000000 1.55710000e+10
2155.000000 1.55234000e+10
2165.000000 1.48410000e+10
2175.000000 1.51333000e+10
2185.000000 1.45887000e+10
2195.000000 1.48494000e+10
2205.000000 1.46259000e+10
2215.000000 1.39704000e+10
2225.000000 1.41488000e+10
2235.000000 1.39259000e+10
2245.000000 1.36751000e+10
2255.000000 1.31295000e+10
2265.000000 1.33281000e+10
2275.000000 1.31770000e+10
2285.000000 1.28087000e+10
2295.000000 1.17410000e+10
2305.000000 1.21350000e+10
2315.000000 1.22096000e+10
2325.000000 1.21452000e+10
2335.000000 1.19523000e+10
2345.000000 1.17910000e+10
2355.000000 1.15450000e+10
2365.000000 1.13614000e+10
2375.000000 1.11049000e+10
2385.000000 1.05828000e+10
2395.000000 1.07061000e+10
2405.000000 1.06779000e+10
2415.000000 1.05425000e+10
2425.000000 1.04640000e+10
2435.000000 1.02620000e+10
2445.000000 1.01492000e+10
2455.000000 1.00004000e+10
2465.000000 9.87855000e+09
2475.000000 9.74292000e+09
2485.000000 9.49995000e+09
2495.000000 7.72640000e+09
2505.000000 9.11411000e+09
2513.000000 8.60459000e+09
2518.000000 8.85031000e+09
2525.000000 9.05362000e+09
2535.000000 8.98292000e+09
2545.000000 8.79206000e+09
2555.000000 8.68240000e+09
2565.000000 8.57991000e+09
2575.000000 8.47306000e+09
2585.000000 8.37436000e+09
2595.000000 8.22211000e+09
2605.000000 8.17410000e+09
2615.000000 8.01419000e+09
2625.000000 7.95653000e+09
2635.000000 7.86424000e+09
2645.000000 7.72788000e+09
2655.000000 7.64573000e+09
2665.000000 7.47176000e+09
2675.000000 7.29754000e+09
2685.000000 7.32689000e+09
2695.000000 7.15125000e+09
2705.000000 7.08920000e+09
2715.000000 6.98852000e+09
2725.000000 6.91247000e+09
2735.000000 6.70588000e+09
2745.000000 6.77461000e+09
2755.000000 6.69176000e+09
2765.000000 6.57151000e+09
2775.000000 6.55847000e+09
2785.000000 6.44540000e+09
2795.000000 6.22769000e+09
2805.000000 6.24992000e+09
2815.000000 6.22841000e+09
2825.000000 6.12491000e+09
2835.000000 6.00022000e+09
2845.000000 6.00373000e+09
2855.000000 5.91229000e+09
2865.000000 5.81601000e+09
2875.000000 5.75785000e+09
2885.000000 5.68949000e+09
2895.000000 5.61429000e+09
2910.000000 5.48449000e+09
2930.000000 5.39890000e+09
2950.000000 5.23374000e+09
2970.000000 5.12505000e+09
2990.000000 4.97117000e+09
3010.000000 4.83215000e+09
3030.000000 4.71317000e+09
3050.000000 4.63820000e+09
3070.000000 4.55638000e+09
3090.000000 4.41394000e+09
3110.000000 4.35540000e+09
3130.000000 4.23916000e+09
3150.000000 4.15665000e+09
3170.000000 4.05300000e+09
3190.000000 3.96347000e+09
3210.000000 3.85135000e+09
3230.000000 3.79513000e+09
3250.000000 3.72824000e+09
3270.000000 3.61759000e+09
3290.000000 3.55669000e+09
3310.000000 3.47739000e+09
3330.000000 3.39403000e+09
3350.000000 3.31038000e+09
3370.000000 3.24699000e+09
3390.000000 3.19962000e+09
3410.000000 3.12944000e+09
3430.000000 3.06820000e+09
3450.000000 2.98674000e+09
3470.000000 2.93589000e+09
3490.000000 2.87648000e+09
3510.000000 2.81979000e+09
3530.000000 2.76885000e+09
3550.000000 2.70916000e+09
3570.000000 2.66213000e+09
3590.000000 2.59257000e+09
3610.000000 2.54282000e+09
3630.000000 2.49200000e+09
3640.000000 2.46607000e+09
3650.000000 2.34620000e+09
3670.000000 2.30831000e+09
3690.000000 2.26484000e+09
3710.000000 2.18977000e+09
3730.000000 2.15915000e+09
3750.000000 2.12745000e+09
3770.000000 2.06671000e+09
3790.000000 2.10780000e+09
3810.000000 2.15276000e+09
3830.000000 1.94661000e+09
3850.000000 2.15025000e+09
3870.000000 2.11714000e+09
3890.000000 1.81333000e+09
3910.000000 2.10724000e+09
3930.000000 2.06272000e+09
3950.000000 2.00038000e+09
3970.000000 1.67006000e+09
3990.000000 1.94587000e+09
4010.000000 1.92740000e+09
4030.000000 1.83771000e+09
4050.000000 1.87178000e+09
4070.000000 1.79642000e+09
4090.000000 1.66899000e+09
4110.000000 1.52098000e+09
4130.000000 1.70811000e+09
4150.000000 1.68966000e+09
4170.000000 1.68118000e+09
4190.000000 1.64768000e+09
4210.000000 1.61571000e+09
4230.000000 1.60100000e+09
4250.000000 1.55741000e+09
4270.000000 1.52267000e+09
4290.000000 1.49790000e+09
4310.000000 1.45446000e+09
4330.000000 1.34212000e+09
4350.000000 1.25057000e+09
4370.000000 1.38537000e+09
4390.000000 1.35451000e+09
4410.000000 1.34855000e+09
4430.000000 1.33825000e+09
4450.000000 1.31374000e+09
4470.000000 1.25520000e+09
4490.000000 1.27196000e+09
4510.000000 1.24568000e+09
4530.000000 1.23087000e+09
4550.000000 1.20033000e+09
4570.000000 1.19533000e+09
4590.000000 1.17190000e+09
4610.000000 1.14926000e+09
4630.000000 1.12181000e+09
4650.000000 1.06981000e+09
4670.000000 1.09060000e+09
4690.000000 1.06284000e+09
4710.000000 1.04964000e+09
4730.000000 1.05434000e+09
4750.000000 1.03639000e+09
4770.000000 1.02510000e+09
4790.000000 1.00820000e+09
4810.000000 9.88829000e+08
4830.000000 9.66672000e+08
4850.000000 9.02405000e+08
4870.000000 8.21193000e+08
4890.000000 9.20755000e+08
4910.000000 9.11707000e+08
4930.000000 8.83880000e+08
4950.000000 8.84609000e+08
4970.000000 8.77275000e+08
4990.000000 8.63630000e+08
5010.000000 8.34880000e+08
5030.000000 8.34404000e+08
5050.000000 8.20554000e+08
5070.000000 8.13317000e+08
5090.000000 8.00569000e+08
5110.000000 7.88255000e+08
5130.000000 7.75421000e+08
5150.000000 7.64254000e+08
5170.000000 7.53335000e+08
5190.000000 7.43330000e+08
5210.000000 7.32943000e+08
5230.000000 7.22376000e+08
5250.000000 7.10035000e+08
5270.000000 6.99623000e+08
5290.000000 6.91678000e+08
5310.000000 6.81694000e+08
5330.000000 6.72079000e+08
5350.000000 6.62509000e+08
5370.000000 6.53259000e+08
5390.000000 6.43739000e+08
5410.000000 6.27597000e+08
5430.000000 6.26215000e+08
5450.000000 6.17416000e+08
5470.000000 6.08730000e+08
5490.000000 6.00353000e+08
5510.000000 5.92032000e+08
5530.000000 5.83790000e+08
5550.000000 5.76313000e+08
5570.000000 5.68186000e+08
5590.000000 5.59474000e+08
5610.000000 5.53158000e+08
5630.000000 5.45752000e+08
5650.000000 5.38048000e+08
5670.000000 5.29912000e+08
5690.000000 5.16884000e+08
5710.000000 5.05725000e+08
5730.000000 4.99573000e+08
5750.000000 4.92321000e+08
5770.000000 4.87058000e+08
5790.000000 4.80541000e+08
5810.000000 4.73567000e+08
5830.000000 4.66898000e+08
5850.000000 4.62445000e+08
5870.000000 4.45917000e+08
5890.000000 4.49670000e+08
5910.000000 4.45855000e+08
5930.000000 4.40796000e+08
5950.000000 4.35922000e+08
5970.000000 4.32107000e+08
5990.000000 4.26759000e+08
6010.000000 4.22683000e+08
6030.000000 4.17656000e+08
6050.000000 4.13551000e+08
6070.000000 4.08887000e+08
6090.000000 4.03910000e+08
6110.000000 3.98697000e+08
6130.000000 3.93954000e+08
6150.000000 3.88239000e+08
6170.000000 3.83697000e+08
6190.000000 3.79462000e+08
6210.000000 3.75029000e+08
6230.000000 3.70373000e+08
6250.000000 3.65528000e+08
6270.000000 3.61302000e+08
6290.000000 3.57008000e+08
6310.000000 3.52440000e+08
6330.000000 3.48487000e+08
6350.000000 3.43987000e+08
6370.000000 3.40206000e+08
6390.000000 3.36068000e+08
6410.000000 3.31911000e+08
6430.000000 3.28173000e+08
6450.000000 3.24058000e+08
6470.000000 3.19610000e+08
6490.000000 3.16087000e+08
6510.000000 3.11881000e+08
6530.000000 3.06890000e+08
6550.000000 2.94692000e+08
6570.000000 2.65426000e+08
6590.000000 2.94717000e+08
6610.000000 2.94169000e+08
6630.000000 2.91575000e+08
6650.000000 2.88179000e+08
6670.000000 2.81618000e+08
6690.000000 2.78346000e+08
6710.000000 2.77903000e+08
6730.000000 2.74532000e+08
6750.000000 2.71816000e+08
6770.000000 2.69135000e+08
6790.000000 2.65403000e+08
6810.000000 2.63091000e+08
6830.000000 2.60107000e+08
6850.000000 2.57249000e+08
6870.000000 2.54253000e+08
6890.000000 2.50684000e+08
6910.000000 2.48217000e+08
6930.000000 2.46096000e+08
6950.000000 2.43364000e+08
6970.000000 2.40698000e+08
6990.000000 2.38004000e+08
7010.000000 2.35268000e+08
7030.000000 2.32322000e+08
7050.000000 2.30051000e+08
7070.000000 2.24697000e+08
7090.000000 2.25342000e+08
7110.000000 2.22787000e+08
7130.000000 2.20427000e+08
7150.000000 2.18156000e+08
7170.000000 2.15402000e+08
7190.000000 2.13265000e+08
7210.000000 2.11236000e+08
7230.000000 2.07597000e+08
7250.000000 2.06553000e+08
7270.000000 2.04585000e+08
7290.000000 2.01124000e+08
7310.000000 2.00223000e+08
7330.000000 1.98150000e+08
7350.000000 1.96097000e+08
7370.000000 1.94056000e+08
7390.000000 1.92048000e+08
7410.000000 1.90038000e+08
7430.000000 1.88089000e+08
7450.000000 1.86089000e+08
7470.000000 1.83886000e+08
7490.000000 1.81790000e+08
7510.000000 1.80409000e+08
7530.000000 1.78528000e+08
7550.000000 1.76797000e+08
7570.000000 1.74957000e+08
7590.000000 1.72480000e+08
7610.000000 1.71165000e+08
7630.000000 1.69634000e+08
7650.000000 1.67957000e+08
7670.000000 1.66320000e+08
7690.000000 1.64354000e+08
7710.000000 1.62849000e+08
7730.000000 1.60961000e+08
7750.000000 1.59761000e+08
7770.000000 1.58191000e+08
7790.000000 1.56648000e+08
7810.000000 1.55056000e+08
7830.000000 1.53570000e+08
7850.000000 1.52043000e+08
7870.000000 1.50407000e+08
7890.000000 1.48895000e+08
7910.000000 1.47626000e+08
7930.000000 1.46187000e+08
7950.000000 1.44862000e+08
7970.000000 1.43377000e+08
7990.000000 1.42040000e+08
8010.000000 1.40651000e+08
8030.000000 1.39227000e+08
8050.000000 1.38007000e+08
8070.000000 1.36652000e+08
8090.000000 1.35275000e+08
8110.000000 1.33532000e+08
8130.000000 1.32791000e+08
8150.000000 1.31448000e+08
8170.000000 1.30263000e+08
8190.000000 1.28549000e+08
8210.000000 1.26415000e+08
8230.000000 1.24844000e+08
8250.000000 1.24151000e+08
8270.000000 1.22554000e+08
8290.000000 1.21936000e+08
8310.000000 1.20936000e+08
8330.000000 1.19590000e+08
8350.000000 1.18164000e+08
8370.000000 1.17428000e+08
8390.000000 1.16574000e+08
8410.000000 1.15451000e+08
8430.000000 1.14437000e+08
8450.000000 1.12978000e+08
8470.000000 1.12398000e+08
8490.000000 1.11268000e+08
8510.000000 1.09981000e+08
8530.000000 1.09227000e+08
8550.000000 1.08258000e+08
8570.000000 1.07528000e+08
8590.000000 1.05563000e+08
8610.000000 1.05256000e+08
8630.000000 1.05011000e+08
8650.000000 1.03227000e+08
8670.000000 1.01348000e+08
8690.000000 1.02254000e+08
8710.000000 1.01849000e+08
8730.000000 9.98016000e+07
8750.000000 9.62065000e+07
8770.000000 9.74581000e+07
8790.000000 9.86095000e+07
8810.000000 9.81963000e+07
8830.000000 9.67953000e+07
8850.000000 9.27364000e+07
8870.000000 8.94361000e+07
8890.000000 9.36150000e+07
8910.000000 9.41585000e+07
8930.000000 9.36475000e+07
8950.000000 9.29096000e+07
8970.000000 9.18871000e+07
8990.000000 8.93764000e+07
9010.000000 8.29704000e+07
9030.000000 8.47285000e+07
9050.000000 8.80296000e+07
9070.000000 8.75274000e+07
9090.000000 8.75028000e+07
9110.000000 8.70736000e+07
9130.000000 8.63626000e+07
9150.000000 8.56075000e+07
9170.000000 8.45715000e+07
9190.000000 8.34142000e+07
9210.000000 7.99479000e+07
9230.000000 7.33578000e+07
9250.000000 7.84434000e+07
9270.000000 8.05033000e+07
9290.000000 8.04321000e+07
9310.000000 7.97435000e+07
9330.000000 7.93111000e+07
9350.000000 7.81792000e+07
9370.000000 7.80990000e+07
9390.000000 7.75231000e+07
9410.000000 7.68111000e+07
9430.000000 7.62060000e+07
9450.000000 7.55420000e+07
9470.000000 7.45218000e+07
9490.000000 7.39947000e+07
9510.000000 7.23841000e+07
9530.000000 6.92226000e+07
9550.000000 6.35672000e+07
9570.000000 6.92210000e+07
9590.000000 7.06490000e+07
9610.000000 7.03838000e+07
9630.000000 6.97708000e+07
9650.000000 6.96842000e+07
9670.000000 6.91706000e+07
9690.000000 6.85684000e+07
9710.000000 6.69357000e+07
9730.000000 6.73492000e+07
9750.000000 6.69662000e+07
9770.000000 6.64279000e+07
9790.000000 6.58973000e+07
9810.000000 6.53510000e+07
9830.000000 6.48553000e+07
9850.000000 6.43281000e+07
9870.000000 6.38047000e+07
9890.000000 6.32311000e+07
9910.000000 6.25465000e+07
9930.000000 6.23368000e+07
9950.000000 6.18353000e+07
9970.000000 6.12123000e+07
9990.000000 6.06202000e+07
10025.000000 5.73937000e+07
10075.000000 5.55896000e+07
10125.000000 5.70520000e+07
10175.000000 5.66746000e+07
10225.000000 5.55704000e+07
10275.000000 5.45349000e+07
10325.000000 5.33189000e+07
10375.000000 5.25192000e+07
10425.000000 5.15348000e+07
10475.000000 5.05839000e+07
10525.000000 4.96386000e+07
10575.000000 4.87323000e+07
10625.000000 4.78376000e+07
10675.000000 4.69079000e+07
10725.000000 4.61145000e+07
10775.000000 4.52787000e+07
10825.000000 4.40866000e+07
10875.000000 4.34241000e+07
10925.000000 3.96123000e+07
10975.000000 4.09693000e+07
11025.000000 4.11285000e+07
11075.000000 4.06167000e+07
11125.000000 3.99420000e+07
11175.000000 3.92535000e+07
11225.000000 3.85548000e+07
11275.000000 3.78995000e+07
11325.000000 3.72219000e+07
11375.000000 3.65984000e+07
11425.000000 3.59728000e+07
11475.000000 3.53682000e+07
11525.000000 3.47784000e+07
11575.000000 3.41777000e+07
11625.000000 3.35108000e+07
11675.000000 3.29949000e+07
11725.000000 3.25059000e+07
11775.000000 3.19641000e+07
11825.000000 3.14277000e+07
11875.000000 3.09178000e+07
11925.000000 3.04100000e+07
11975.000000 2.95813000e+07
12025.000000 2.94322000e+07
12075.000000 2.89538000e+07
12125.000000 2.84772000e+07
12175.000000 2.80328000e+07
12225.000000 2.75847000e+07
12275.000000 2.71454000e+07
12325.000000 2.67148000e+07
12375.000000 2.62903000e+07
12425.000000 2.58814000e+07
12475.000000 2.54686000e+07
12525.000000 2.50255000e+07
12575.000000 2.46768000e+07
12625.000000 2.42974000e+07
12675.000000 2.39302000e+07
12725.000000 2.35238000e+07
12775.000000 2.27463000e+07
12825.000000 2.10593000e+07
12875.000000 2.22871000e+07
12925.000000 2.21337000e+07
12975.000000 2.16909000e+07
13025.000000 2.14847000e+07
13075.000000 2.11759000e+07
