# Kurucz ODFNEW /NOVER, alpha: 0.0 (2003)
# teff = 7000 K (value for the effective temperature for the model. Temperatures are given in K)
# logg = 3.5 log(cm/s2) (value for Log(G) for the model.)
# lh = 1.25  (l/Hp where l is the  mixing length of the convective element and Hp is the pressure scale height)
# meta = -2.5  (value for the Metallicity for the model.)
# vtur = 2 km/s (Microturbulence velocity)
# alpha = 0  (Alpha)
#
# column 1: WAVELENGTH (ANGSTROM), Wavelength in Angstrom
# column 2: FLUX (ERG/CM2/S/A), Flux in erg/cm2/s/A
338.000000 3.07516000e-25
348.000000 2.91578000e-24
357.000000 1.96882000e-23
366.000000 1.20596000e-22
375.000000 6.73143000e-22
385.000000 4.11740000e-21
395.000000 2.28363000e-20
405.000000 1.15799000e-19
414.000000 4.65032000e-19
422.000000 1.51683000e-18
430.000000 4.72124000e-18
441.000000 2.09381000e-17
451.000000 7.57622000e-17
460.000000 2.29064000e-16
470.000000 7.42783000e-16
480.000000 2.28376000e-15
490.000000 6.68714000e-15
500.000000 1.86752000e-14
506.000000 4.49113000e-14
512.000000 9.03596000e-14
520.000000 1.90928000e-13
530.000000 4.73306000e-13
540.000000 1.11273000e-12
550.000000 2.56076000e-12
560.000000 5.67028000e-12
570.000000 1.21762000e-11
580.000000 2.51123000e-11
590.000000 5.15506000e-11
600.000000 1.01927000e-10
610.000000 1.96606000e-10
620.000000 3.70428000e-10
630.000000 6.82470000e-10
640.000000 1.23164000e-09
650.000000 2.17816000e-09
658.000000 3.38945000e-09
665.000000 4.94219000e-09
675.000000 8.34200000e-09
685.000000 1.38416000e-08
695.000000 2.25932000e-08
705.000000 3.63037000e-08
716.000000 6.01187000e-08
726.000000 9.36756000e-08
735.000000 1.38035000e-07
745.000000 2.09764000e-07
755.000000 3.14760000e-07
765.000000 4.66611000e-07
775.000000 6.83742000e-07
785.000000 9.90755000e-07
795.000000 1.42025000e-06
805.000000 2.01531000e-06
815.000000 2.83132000e-06
825.000000 3.94046000e-06
835.000000 5.43515000e-06
845.000000 7.43038000e-06
855.000000 1.00724000e-05
865.000000 1.35421000e-05
875.000000 1.80628000e-05
885.000000 2.39128000e-05
895.000000 3.14261000e-05
905.000000 4.10048000e-05
915.000000 1.30281000e-01
925.000000 9.54653000e-01
935.000000 1.62775000e+00
945.000000 2.77886000e+00
955.000000 3.97075000e+00
965.000000 4.96669000e+00
975.000000 4.02122000e+00
985.000000 8.83905000e+00
995.000000 1.08172000e+01
1005.000000 1.29566000e+01
1015.000000 1.21313000e+01
1025.000000 1.06056000e+01
1035.000000 1.94747000e+01
1045.000000 3.05789000e+01
1055.000000 3.73945000e+01
1065.000000 4.66899000e+01
1075.000000 5.70330000e+01
1085.000000 6.97696000e+01
1095.000000 8.09213000e+01
1105.000000 1.09354000e+02
1115.000000 1.41001000e+02
1125.000000 1.57514000e+02
1135.000000 1.87887000e+02
1145.000000 2.08798000e+02
1155.000000 2.05836000e+02
1165.000000 1.89835000e+02
1175.000000 1.59104000e+02
1185.000000 3.27788000e+02
1195.000000 1.80236000e+02
1205.000000 1.12122000e+02
1215.000000 5.03480000e+01
1225.000000 1.31833000e+02
1235.000000 3.03093000e+02
1245.000000 1.56972000e+02
1255.000000 2.50766000e+02
1265.000000 4.34190000e+02
1275.000000 7.03808000e+02
1285.000000 1.22761000e+03
1295.000000 1.52691000e+03
1305.000000 1.78509000e+03
1315.000000 2.17788000e+03
1325.000000 2.56943000e+03
1335.000000 3.01937000e+03
1345.000000 3.58711000e+03
1355.000000 4.11463000e+03
1365.000000 4.83017000e+03
1375.000000 5.52214000e+03
1385.000000 6.25596000e+03
1395.000000 7.13008000e+03
1405.000000 7.97992000e+03
1415.000000 9.20042000e+03
1425.000000 1.01138000e+04
1435.000000 1.12419000e+04
1442.000000 1.25873000e+04
1447.000000 1.27909000e+04
1455.000000 1.42130000e+04
1465.000000 1.51622000e+04
1475.000000 1.69568000e+04
1485.000000 1.86313000e+04
1495.000000 2.07730000e+04
1505.000000 2.30177000e+04
1512.000000 2.45880000e+04
1517.000000 2.47160000e+04
1525.000000 2.65778000e+04
1535.000000 2.86213000e+04
1545.000000 3.03180000e+04
1555.000000 3.20980000e+04
1565.000000 3.24474000e+04
1575.000000 3.58653000e+04
1585.000000 3.84374000e+04
1595.000000 4.14561000e+04
1605.000000 4.39640000e+04
1615.000000 4.91800000e+04
1625.000000 5.59810000e+04
1635.000000 7.07538000e+04
1645.000000 1.39817000e+05
1655.000000 2.65304000e+05
1665.000000 8.61828000e+05
1672.000000 1.12117000e+06
1677.000000 1.68062000e+06
1685.000000 2.38466000e+06
1695.000000 3.07990000e+06
1705.000000 3.81210000e+06
1715.000000 4.61660000e+06
1725.000000 4.99698000e+06
1735.000000 5.64489000e+06
1745.000000 5.74826000e+06
1755.000000 6.27922000e+06
1765.000000 5.78755000e+06
1775.000000 6.45180000e+06
1785.000000 6.65780000e+06
1795.000000 7.19288000e+06
1805.000000 7.02610000e+06
1815.000000 7.18733000e+06
1825.000000 6.99205000e+06
1835.000000 7.38763000e+06
1845.000000 6.96535000e+06
1855.000000 7.38465000e+06
1865.000000 7.72787000e+06
1875.000000 7.81700000e+06
1885.000000 7.96394000e+06
1895.000000 8.22326000e+06
1905.000000 8.04591000e+06
1915.000000 8.48139000e+06
1925.000000 8.80066000e+06
1935.000000 8.47761000e+06
1945.000000 9.08626000e+06
1955.000000 9.13923000e+06
1967.000000 9.50575000e+06
1976.000000 9.26353000e+06
1984.000000 9.32172000e+06
1995.000000 9.43323000e+06
2005.000000 9.23244000e+06
2015.000000 9.39452000e+06
2025.000000 9.02111000e+06
2035.000000 9.80753000e+06
2045.000000 1.00947000e+07
2055.000000 9.91819000e+06
2065.000000 9.93280000e+06
2074.000000 1.05325000e+07
2078.000000 1.05121000e+07
2085.000000 1.04876000e+07
2095.000000 1.03508000e+07
2105.000000 1.03181000e+07
2115.000000 1.05560000e+07
2125.000000 1.06788000e+07
2135.000000 1.00897000e+07
2145.000000 1.07360000e+07
2155.000000 1.06699000e+07
2165.000000 1.03883000e+07
2175.000000 1.04817000e+07
2185.000000 1.07900000e+07
2195.000000 1.12940000e+07
2205.000000 1.10570000e+07
2215.000000 1.06018000e+07
2225.000000 1.09436000e+07
2235.000000 1.16920000e+07
2245.000000 1.12338000e+07
2255.000000 1.08514000e+07
2265.000000 1.06111000e+07
2275.000000 1.12772000e+07
2285.000000 1.14342000e+07
2295.000000 1.10486000e+07
2305.000000 1.13550000e+07
2315.000000 1.14202000e+07
2325.000000 1.14337000e+07
2335.000000 1.14596000e+07
2345.000000 1.06510000e+07
2355.000000 1.17733000e+07
2365.000000 1.10158000e+07
2375.000000 1.15571000e+07
2385.000000 1.04610000e+07
2395.000000 1.13892000e+07
2405.000000 1.13005000e+07
2415.000000 1.13738000e+07
2425.000000 1.19785000e+07
2435.000000 1.17125000e+07
2445.000000 1.19761000e+07
2455.000000 1.19169000e+07
2465.000000 1.17844000e+07
2475.000000 1.15252000e+07
2485.000000 1.16895000e+07
2495.000000 1.15500000e+07
2505.000000 1.23693000e+07
2513.000000 1.17001000e+07
2518.000000 1.16061000e+07
2525.000000 1.11856000e+07
2535.000000 1.11608000e+07
2545.000000 1.12140000e+07
2555.000000 1.20001000e+07
2565.000000 1.20539000e+07
2575.000000 1.25326000e+07
2585.000000 1.26523000e+07
2595.000000 1.26501000e+07
2605.000000 1.23650000e+07
2615.000000 1.22425000e+07
2625.000000 1.25807000e+07
2635.000000 1.27160000e+07
2645.000000 1.36200000e+07
2655.000000 1.36117000e+07
2665.000000 1.30748000e+07
2675.000000 1.33705000e+07
2685.000000 1.36458000e+07
2695.000000 1.32558000e+07
2705.000000 1.33484000e+07
2715.000000 1.28884000e+07
2725.000000 1.29731000e+07
2735.000000 1.32854000e+07
2745.000000 1.23168000e+07
2755.000000 1.25914000e+07
2765.000000 1.31228000e+07
2775.000000 1.35162000e+07
2785.000000 1.34144000e+07
2795.000000 1.13848000e+07
2805.000000 1.23241000e+07
2815.000000 1.40186000e+07
2825.000000 1.39115000e+07
2835.000000 1.36822000e+07
2845.000000 1.35564000e+07
2855.000000 1.30794000e+07
2865.000000 1.35129000e+07
2875.000000 1.34787000e+07
2885.000000 1.37815000e+07
2895.000000 1.38775000e+07
2910.000000 1.42233000e+07
2930.000000 1.39859000e+07
2950.000000 1.38558000e+07
2970.000000 1.39602000e+07
2990.000000 1.40315000e+07
3010.000000 1.40761000e+07
3030.000000 1.41526000e+07
3050.000000 1.41989000e+07
3070.000000 1.42059000e+07
3090.000000 1.42803000e+07
3110.000000 1.42394000e+07
3130.000000 1.42803000e+07
3150.000000 1.44010000e+07
3170.000000 1.44054000e+07
3190.000000 1.41172000e+07
3210.000000 1.42581000e+07
3230.000000 1.40947000e+07
3250.000000 1.42906000e+07
3270.000000 1.44700000e+07
3290.000000 1.45494000e+07
3310.000000 1.45746000e+07
3330.000000 1.44303000e+07
3350.000000 1.42910000e+07
3370.000000 1.43316000e+07
3390.000000 1.42816000e+07
3410.000000 1.44308000e+07
3430.000000 1.44337000e+07
3450.000000 1.43482000e+07
3470.000000 1.43356000e+07
3490.000000 1.43836000e+07
3510.000000 1.44563000e+07
3530.000000 1.44577000e+07
3550.000000 1.45099000e+07
3570.000000 1.43076000e+07
3590.000000 1.43032000e+07
3610.000000 1.43094000e+07
3630.000000 1.43628000e+07
3640.000000 1.43827000e+07
3650.000000 1.44595000e+07
3670.000000 1.44363000e+07
3690.000000 1.38633000e+07
3710.000000 1.51394000e+07
3730.000000 1.59645000e+07
3750.000000 1.96258000e+07
3770.000000 2.04180000e+07
3790.000000 2.30563000e+07
3810.000000 2.56463000e+07
3830.000000 2.15753000e+07
3850.000000 2.72511000e+07
3870.000000 2.89246000e+07
3890.000000 2.04850000e+07
3910.000000 2.88952000e+07
3930.000000 2.89604000e+07
3950.000000 2.89697000e+07
3970.000000 1.99581000e+07
3990.000000 2.83492000e+07
4010.000000 2.97329000e+07
4030.000000 2.97168000e+07
4050.000000 2.94884000e+07
4070.000000 2.86603000e+07
4090.000000 2.54394000e+07
4110.000000 2.10815000e+07
4130.000000 2.81384000e+07
4150.000000 2.85765000e+07
4170.000000 2.85674000e+07
4190.000000 2.83468000e+07
4210.000000 2.81015000e+07
4230.000000 2.78322000e+07
4250.000000 2.77315000e+07
4270.000000 2.74702000e+07
4290.000000 2.72904000e+07
4310.000000 2.65348000e+07
4330.000000 2.29065000e+07
4350.000000 2.03152000e+07
4370.000000 2.60972000e+07
4390.000000 2.63330000e+07
4410.000000 2.62748000e+07
4430.000000 2.62800000e+07
4450.000000 2.61128000e+07
4470.000000 2.59456000e+07
4490.000000 2.57991000e+07
4510.000000 2.56338000e+07
4530.000000 2.54244000e+07
4550.000000 2.52160000e+07
4570.000000 2.51347000e+07
4590.000000 2.49572000e+07
4610.000000 2.48280000e+07
4630.000000 2.46421000e+07
4650.000000 2.44933000e+07
4670.000000 2.43392000e+07
4690.000000 2.41663000e+07
4710.000000 2.39581000e+07
4730.000000 2.38536000e+07
4750.000000 2.36933000e+07
4770.000000 2.34917000e+07
4790.000000 2.32910000e+07
4810.000000 2.30407000e+07
4830.000000 2.25241000e+07
4850.000000 1.99059000e+07
4870.000000 1.70583000e+07
4890.000000 2.18329000e+07
4910.000000 2.22321000e+07
4930.000000 2.21234000e+07
4950.000000 2.20787000e+07
4970.000000 2.20066000e+07
4990.000000 2.18457000e+07
5010.000000 2.16566000e+07
5030.000000 2.15666000e+07
5050.000000 2.14124000e+07
5070.000000 2.12848000e+07
5090.000000 2.11382000e+07
5110.000000 2.10005000e+07
5130.000000 2.08528000e+07
5150.000000 2.07025000e+07
5170.000000 2.03876000e+07
5190.000000 2.03301000e+07
5210.000000 2.02687000e+07
5230.000000 2.01167000e+07
5250.000000 2.00417000e+07
5270.000000 1.98369000e+07
5290.000000 1.97707000e+07
5310.000000 1.96341000e+07
5330.000000 1.94711000e+07
5350.000000 1.93797000e+07
5370.000000 1.92343000e+07
5390.000000 1.91126000e+07
5410.000000 1.89703000e+07
5430.000000 1.88525000e+07
5450.000000 1.87271000e+07
5470.000000 1.86168000e+07
5490.000000 1.85002000e+07
5510.000000 1.83785000e+07
5530.000000 1.82520000e+07
5550.000000 1.81390000e+07
5570.000000 1.80114000e+07
5590.000000 1.78888000e+07
5610.000000 1.77746000e+07
5630.000000 1.76652000e+07
5650.000000 1.75486000e+07
5670.000000 1.74309000e+07
5690.000000 1.73191000e+07
5710.000000 1.72037000e+07
5730.000000 1.70942000e+07
5750.000000 1.69812000e+07
5770.000000 1.68704000e+07
5790.000000 1.67608000e+07
5810.000000 1.66512000e+07
5830.000000 1.65416000e+07
5850.000000 1.64320000e+07
5870.000000 1.63257000e+07
5890.000000 1.61531000e+07
5910.000000 1.61130000e+07
5930.000000 1.60088000e+07
5950.000000 1.59045000e+07
5970.000000 1.58013000e+07
5990.000000 1.56981000e+07
6010.000000 1.55958000e+07
6030.000000 1.54936000e+07
6050.000000 1.53954000e+07
6070.000000 1.52952000e+07
6090.000000 1.51969000e+07
6110.000000 1.50976000e+07
6130.000000 1.49942000e+07
6150.000000 1.48989000e+07
6170.000000 1.48004000e+07
6190.000000 1.47118000e+07
6210.000000 1.46182000e+07
6230.000000 1.45226000e+07
6250.000000 1.44249000e+07
6270.000000 1.43388000e+07
6290.000000 1.42468000e+07
6310.000000 1.41538000e+07
6330.000000 1.40645000e+07
6350.000000 1.39742000e+07
6370.000000 1.38856000e+07
6390.000000 1.37970000e+07
6410.000000 1.37065000e+07
6430.000000 1.36213000e+07
6450.000000 1.35288000e+07
6470.000000 1.34309000e+07
6490.000000 1.33143000e+07
6510.000000 1.31917000e+07
6530.000000 1.29635000e+07
6550.000000 1.20344000e+07
6570.000000 1.01564000e+07
6590.000000 1.25333000e+07
6610.000000 1.27413000e+07
6630.000000 1.27305000e+07
6650.000000 1.26754000e+07
6670.000000 1.26240000e+07
6690.000000 1.25461000e+07
6710.000000 1.24673000e+07
6730.000000 1.23891000e+07
6750.000000 1.23117000e+07
6770.000000 1.22349000e+07
6790.000000 1.21589000e+07
6810.000000 1.20827000e+07
6830.000000 1.20072000e+07
6850.000000 1.19323000e+07
6870.000000 1.18582000e+07
6890.000000 1.17847000e+07
6910.000000 1.17118000e+07
6930.000000 1.16388000e+07
6950.000000 1.15673000e+07
6970.000000 1.14955000e+07
6990.000000 1.14245000e+07
7010.000000 1.13540000e+07
7030.000000 1.12841000e+07
7050.000000 1.12149000e+07
7070.000000 1.11463000e+07
7090.000000 1.10775000e+07
7110.000000 1.10078000e+07
7130.000000 1.09417000e+07
7150.000000 1.08747000e+07
7170.000000 1.08082000e+07
7190.000000 1.07416000e+07
7210.000000 1.06763000e+07
7230.000000 1.06115000e+07
7250.000000 1.05473000e+07
7270.000000 1.04830000e+07
7290.000000 1.04185000e+07
7310.000000 1.03559000e+07
7330.000000 1.02924000e+07
7350.000000 1.02309000e+07
7370.000000 1.01692000e+07
7390.000000 1.01067000e+07
7410.000000 1.00446000e+07
7430.000000 9.98517000e+06
7450.000000 9.92485000e+06
7470.000000 9.86502000e+06
7490.000000 9.80502000e+06
7510.000000 9.74685000e+06
7530.000000 9.68917000e+06
7550.000000 9.63129000e+06
7570.000000 9.57324000e+06
7590.000000 9.51631000e+06
7610.000000 9.45920000e+06
7630.000000 9.40256000e+06
7650.000000 9.34638000e+06
7670.000000 9.29002000e+06
7690.000000 9.23538000e+06
7710.000000 9.17993000e+06
7730.000000 9.12618000e+06
7750.000000 9.07161000e+06
7770.000000 9.01187000e+06
7790.000000 8.96503000e+06
7810.000000 8.91238000e+06
7830.000000 8.85954000e+06
7850.000000 8.80711000e+06
7870.000000 8.75511000e+06
7890.000000 8.70412000e+06
7910.000000 8.65294000e+06
7930.000000 8.60096000e+06
7950.000000 8.55059000e+06
7970.000000 8.50179000e+06
7990.000000 8.45220000e+06
8010.000000 8.40242000e+06
8030.000000 8.35360000e+06
8050.000000 8.30459000e+06
8070.000000 8.25653000e+06
8090.000000 8.20828000e+06
8110.000000 8.16097000e+06
8130.000000 8.11346000e+06
8150.000000 8.06631000e+06
8170.000000 8.02009000e+06
8190.000000 7.97030000e+06
8210.000000 7.93096000e+06
8230.000000 7.88578000e+06
8250.000000 7.84261000e+06
8270.000000 7.80087000e+06
8290.000000 7.75725000e+06
8310.000000 7.71341000e+06
8330.000000 7.66284000e+06
8350.000000 7.62347000e+06
8370.000000 7.57095000e+06
8390.000000 7.52312000e+06
8410.000000 7.47300000e+06
8430.000000 7.44024000e+06
8450.000000 7.39873000e+06
8470.000000 7.28348000e+06
8490.000000 7.35583000e+06
8510.000000 7.10801000e+06
8530.000000 7.30461000e+06
8550.000000 6.89737000e+06
8570.000000 7.27043000e+06
8590.000000 7.02780000e+06
8610.000000 6.88745000e+06
8630.000000 7.20914000e+06
8650.000000 7.08824000e+06
8670.000000 6.41757000e+06
8690.000000 7.08599000e+06
8710.000000 7.12152000e+06
8730.000000 7.01181000e+06
8750.000000 6.22843000e+06
8770.000000 6.84563000e+06
8790.000000 6.99150000e+06
8810.000000 6.97436000e+06
8830.000000 6.90705000e+06
8850.000000 6.62719000e+06
8870.000000 6.00406000e+06
8890.000000 6.72832000e+06
8910.000000 6.79164000e+06
8930.000000 6.77684000e+06
8950.000000 6.74282000e+06
8970.000000 6.68610000e+06
8990.000000 6.56549000e+06
9010.000000 5.83192000e+06
9030.000000 6.19605000e+06
9050.000000 6.49528000e+06
9070.000000 6.50971000e+06
9090.000000 6.48019000e+06
9110.000000 6.46493000e+06
9130.000000 6.43483000e+06
9150.000000 6.39683000e+06
9170.000000 6.35148000e+06
9190.000000 6.28417000e+06
9210.000000 6.11301000e+06
9230.000000 5.34540000e+06
9250.000000 5.99817000e+06
9270.000000 6.13979000e+06
9290.000000 6.14743000e+06
9310.000000 6.12887000e+06
9330.000000 6.10868000e+06
9350.000000 6.07654000e+06
9370.000000 6.04419000e+06
9390.000000 6.01163000e+06
9410.000000 5.96781000e+06
9430.000000 5.94676000e+06
9450.000000 5.91529000e+06
9470.000000 5.87059000e+06
9490.000000 5.82621000e+06
9510.000000 5.75674000e+06
9530.000000 5.56253000e+06
9550.000000 4.89404000e+06
9570.000000 5.54739000e+06
9590.000000 5.64512000e+06
9610.000000 5.64653000e+06
9630.000000 5.62797000e+06
9650.000000 5.61074000e+06
9670.000000 5.57788000e+06
9690.000000 5.55328000e+06
9710.000000 5.52443000e+06
9730.000000 5.49578000e+06
9750.000000 5.46691000e+06
9770.000000 5.43863000e+06
9790.000000 5.41054000e+06
9810.000000 5.38223000e+06
9830.000000 5.35451000e+06
9850.000000 5.32657000e+06
9870.000000 5.29882000e+06
9890.000000 5.27086000e+06
9910.000000 5.24424000e+06
9930.000000 5.21740000e+06
9950.000000 5.19036000e+06
9970.000000 5.15137000e+06
9990.000000 5.11340000e+06
10025.000000 4.89445000e+06
10075.000000 4.71312000e+06
10125.000000 4.94451000e+06
10175.000000 4.90040000e+06
10225.000000 4.83926000e+06
10275.000000 4.77872000e+06
10325.000000 4.71876000e+06
10375.000000 4.66044000e+06
10425.000000 4.60267000e+06
10475.000000 4.54442000e+06
10525.000000 4.48978000e+06
10575.000000 4.43429000e+06
10625.000000 4.37963000e+06
10675.000000 4.31622000e+06
10725.000000 4.27149000e+06
10775.000000 4.22090000e+06
10825.000000 4.16561000e+06
10875.000000 4.09235000e+06
10925.000000 3.71756000e+06
10975.000000 3.90896000e+06
11025.000000 3.95944000e+06
11075.000000 3.92714000e+06
11125.000000 3.88036000e+06
11175.000000 3.83455000e+06
11225.000000 3.78970000e+06
11275.000000 3.74431000e+06
11325.000000 3.70016000e+06
11375.000000 3.65780000e+06
11425.000000 3.61489000e+06
11475.000000 3.57344000e+06
11525.000000 3.53201000e+06
11575.000000 3.49116000e+06
11625.000000 3.45032000e+06
11675.000000 3.40977000e+06
11725.000000 3.37226000e+06
11775.000000 3.33009000e+06
11825.000000 3.29391000e+06
11875.000000 3.25741000e+06
11925.000000 3.22194000e+06
11975.000000 3.18248000e+06
12025.000000 3.14930000e+06
12075.000000 3.11345000e+06
12125.000000 3.07937000e+06
12175.000000 3.04524000e+06
12225.000000 3.01130000e+06
12275.000000 2.97782000e+06
12325.000000 2.94503000e+06
12375.000000 2.91267000e+06
12425.000000 2.88073000e+06
12475.000000 2.84921000e+06
12525.000000 2.81810000e+06
12575.000000 2.78692000e+06
12625.000000 2.75662000e+06
12675.000000 2.72554000e+06
12725.000000 2.68578000e+06
12775.000000 2.61286000e+06
12825.000000 2.33829000e+06
12875.000000 2.56970000e+06
12925.000000 2.57399000e+06
12975.000000 2.55531000e+06
13025.000000 2.52929000e+06
13075.000000 2.50249000e+06
13125.000000 2.47580000e+06
13175.000000 2.44967000e+06
13225.000000 2.42407000e+06
13275.000000 2.39858000e+06
13325.000000 2.37361000e+06
13375.000000 2.34873000e+06
13425.000000 2.32437000e+06
13475.000000 2.30010000e+06
13525.000000 2.27633000e+06
13575.000000 2.25264000e+06
13625.000000 2.22944000e+06
13675.000000 2.20652000e+06
13725.000000 2.18347000e+06
13775.000000 2.16130000e+06
13825.000000 2.13919000e+06
13875.000000 2.11754000e+06
13925.000000 2.09575000e+06
13975.000000 2.07442000e+06
14025.000000 2.05333000e+06
14075.000000 2.03249000e+06
14125.000000 2.01190000e+06
14175.000000 1.99173000e+06
14225.000000 1.97142000e+06
14275.000000 1.95154000e+06
14325.000000 1.93206000e+06
14375.000000 1.91263000e+06
14425.000000 1.89197000e+06
14475.000000 1.87443000e+06
14525.000000 1.85476000e+06
14570.000000 1.83888000e+06
14620.000000 1.82122000e+06
14675.000000 1.80182000e+06
14725.000000 1.78421000e+06
14775.000000 1.76664000e+06
14825.000000 1.74943000e+06
14875.000000 1.73105000e+06
14925.000000 1.71558000e+06
