# Kurucz ODFNEW /NOVER, alpha: 0.0 (2003)
# teff = 18000 K (value for the effective temperature for the model. Temperatures are given in K)
# logg = 2.5 log(cm/s2) (value for Log(G) for the model.)
# lh = 1.25  (l/Hp where l is the  mixing length of the convective element and Hp is the pressure scale height)
# meta = -2.5  (value for the Metallicity for the model.)
# vtur = 2 km/s (Microturbulence velocity)
# alpha = 0  (Alpha)
#
# column 1: WAVELENGTH (ANGSTROM), Wavelength in Angstrom
# column 2: FLUX (ERG/CM2/S/A), Flux in erg/cm2/s/A
147.200000 3.13271000e-23
151.000000 6.18933000e-22
155.200000 5.87279000e-21
158.800000 3.58482000e-20
162.000000 1.66775000e-19
166.000000 1.04564000e-18
170.300000 6.81338000e-18
173.400000 2.47945000e-17
176.800000 9.68934000e-17
180.200000 3.59025000e-16
181.700000 6.29642000e-16
186.100000 3.09895000e-15
191.000000 1.67148000e-14
193.900000 4.34704000e-14
198.400000 1.80859000e-13
201.800000 5.08285000e-13
205.000000 1.30118000e-12
210.500000 6.10654000e-12
216.200000 2.78035000e-11
219.800000 6.94249000e-11
223.000000 1.52589000e-10
226.800000 3.77182000e-10
230.000000 8.41410000e-10
234.000000 2.07189000e-09
240.000000 7.39855000e-09
246.500000 2.73168000e-08
252.400000 8.41917000e-08
256.800000 1.87804000e-07
260.000000 3.31444000e-07
264.000000 6.59504000e-07
268.500000 1.39368000e-06
273.500000 3.10520000e-06
278.500000 6.71400000e-06
284.000000 1.51689000e-05
290.000000 3.55582000e-05
296.000000 8.03586000e-05
301.000000 1.54453000e-04
308.000000 3.71011000e-04
318.000000 1.21035000e-03
328.000000 3.65510000e-03
338.000000 1.02947000e-02
348.000000 2.72129000e-02
357.000000 6.20892000e-02
366.000000 1.35639000e-01
375.000000 2.84586000e-01
385.000000 6.20584000e-01
395.000000 1.29661000e+00
405.000000 2.60455000e+00
414.000000 4.72879000e+00
422.000000 7.85026000e+00
430.000000 1.27666000e+01
441.000000 2.41421000e+01
451.000000 4.18308000e+01
460.000000 6.70796000e+01
470.000000 1.10740000e+02
480.000000 1.78652000e+02
490.000000 2.82037000e+02
500.000000 4.36328000e+02
506.000000 2.47812000e+03
512.000000 7.60834000e+03
520.000000 1.03535000e+04
530.000000 1.71372000e+04
540.000000 1.90445000e+04
550.000000 3.13476000e+04
560.000000 4.08336000e+04
570.000000 5.30552000e+04
580.000000 5.29101000e+04
590.000000 7.54920000e+04
600.000000 1.07933000e+05
610.000000 1.35687000e+05
620.000000 1.67549000e+05
630.000000 2.05792000e+05
640.000000 2.47597000e+05
650.000000 3.01277000e+05
658.000000 3.50562000e+05
665.000000 3.96438000e+05
675.000000 4.66347000e+05
685.000000 5.50267000e+05
695.000000 6.56411000e+05
705.000000 7.65548000e+05
716.000000 9.03435000e+05
726.000000 1.04197000e+06
735.000000 1.18927000e+06
745.000000 1.36899000e+06
755.000000 1.56554000e+06
765.000000 1.78012000e+06
775.000000 2.02194000e+06
785.000000 2.28462000e+06
795.000000 2.56899000e+06
805.000000 2.88111000e+06
815.000000 3.21342000e+06
825.000000 3.58771000e+06
835.000000 3.94152000e+06
845.000000 4.40278000e+06
855.000000 4.84315000e+06
865.000000 5.35721000e+06
875.000000 5.89334000e+06
885.000000 6.46653000e+06
895.000000 7.06593000e+06
905.000000 7.61853000e+06
915.000000 2.02056000e+07
925.000000 5.82778000e+08
935.000000 1.65994000e+09
945.000000 3.31006000e+09
955.000000 3.82300000e+09
965.000000 4.50267000e+09
975.000000 2.27514000e+09
985.000000 4.60940000e+09
995.000000 4.46318000e+09
1005.000000 4.64783000e+09
1015.000000 4.46784000e+09
1025.000000 2.39673000e+09
1035.000000 4.09814000e+09
1045.000000 4.83803000e+09
1055.000000 4.73964000e+09
1065.000000 4.43084000e+09
1075.000000 4.66305000e+09
1085.000000 4.43156000e+09
1095.000000 4.68310000e+09
1105.000000 4.50369000e+09
1115.000000 4.54084000e+09
1125.000000 4.34588000e+09
1135.000000 4.50329000e+09
1145.000000 4.36923000e+09
1155.000000 4.47972000e+09
1165.000000 4.46699000e+09
1175.000000 4.04555000e+09
1185.000000 4.38562000e+09
1195.000000 4.09567000e+09
1205.000000 3.57108000e+09
1215.000000 1.45402000e+09
1225.000000 3.73660000e+09
1235.000000 4.10612000e+09
1245.000000 4.12913000e+09
1255.000000 4.06239000e+09
1265.000000 4.01466000e+09
1275.000000 4.06039000e+09
1285.000000 4.01296000e+09
1295.000000 3.74972000e+09
1305.000000 3.78693000e+09
1315.000000 3.89970000e+09
1325.000000 3.80672000e+09
1335.000000 3.66007000e+09
1345.000000 3.76474000e+09
1355.000000 3.75821000e+09
1365.000000 3.69708000e+09
1375.000000 3.64948000e+09
1385.000000 3.62663000e+09
1395.000000 3.51035000e+09
1405.000000 3.51285000e+09
1415.000000 3.51098000e+09
1425.000000 3.48247000e+09
1435.000000 3.45953000e+09
1442.000000 3.44088000e+09
1447.000000 3.41948000e+09
1455.000000 3.38661000e+09
1465.000000 3.34527000e+09
1475.000000 3.31098000e+09
1485.000000 3.27320000e+09
1495.000000 3.23579000e+09
1505.000000 3.18645000e+09
1512.000000 3.15207000e+09
1517.000000 3.14851000e+09
1525.000000 3.11638000e+09
1535.000000 3.03321000e+09
1545.000000 3.03748000e+09
1555.000000 2.97859000e+09
1565.000000 2.98618000e+09
1575.000000 2.96539000e+09
1585.000000 2.93424000e+09
1595.000000 2.90881000e+09
1605.000000 2.84021000e+09
1615.000000 2.80862000e+09
1625.000000 2.80326000e+09
1635.000000 2.78359000e+09
1645.000000 2.73996000e+09
1655.000000 2.71947000e+09
1665.000000 2.70144000e+09
1672.000000 2.64181000e+09
1677.000000 2.67096000e+09
1685.000000 2.64592000e+09
1695.000000 2.60469000e+09
1705.000000 2.56840000e+09
1715.000000 2.52649000e+09
1725.000000 2.50741000e+09
1735.000000 2.48760000e+09
1745.000000 2.45522000e+09
1755.000000 2.44481000e+09
1765.000000 2.37171000e+09
1775.000000 2.37328000e+09
1785.000000 2.35930000e+09
1795.000000 2.34045000e+09
1805.000000 2.32060000e+09
1815.000000 2.28321000e+09
1825.000000 2.26414000e+09
1835.000000 2.24031000e+09
1845.000000 2.18355000e+09
1855.000000 2.12986000e+09
1865.000000 2.12701000e+09
1875.000000 2.13739000e+09
1885.000000 2.06950000e+09
1895.000000 2.01981000e+09
1905.000000 2.05191000e+09
1915.000000 1.99612000e+09
1925.000000 1.97249000e+09
1935.000000 1.97751000e+09
1945.000000 1.97386000e+09
1955.000000 1.91035000e+09
1967.000000 1.92761000e+09
1976.000000 1.92573000e+09
1984.000000 1.88467000e+09
1995.000000 1.84009000e+09
2005.000000 1.85412000e+09
2015.000000 1.84791000e+09
2025.000000 1.83623000e+09
2035.000000 1.80304000e+09
2045.000000 1.78418000e+09
2055.000000 1.74269000e+09
2065.000000 1.73415000e+09
2074.000000 1.74909000e+09
2078.000000 1.71104000e+09
2085.000000 1.71352000e+09
2095.000000 1.68047000e+09
2105.000000 1.68052000e+09
2115.000000 1.66804000e+09
2125.000000 1.65871000e+09
2135.000000 1.63949000e+09
2145.000000 1.61614000e+09
2155.000000 1.60645000e+09
2165.000000 1.59003000e+09
2175.000000 1.57242000e+09
2185.000000 1.55790000e+09
2195.000000 1.54405000e+09
2205.000000 1.52744000e+09
2215.000000 1.51184000e+09
2225.000000 1.49432000e+09
2235.000000 1.48023000e+09
2245.000000 1.46722000e+09
2255.000000 1.45038000e+09
2265.000000 1.43790000e+09
2275.000000 1.42310000e+09
2285.000000 1.41017000e+09
2295.000000 1.38732000e+09
2305.000000 1.38148000e+09
2315.000000 1.36605000e+09
2325.000000 1.35342000e+09
2335.000000 1.33667000e+09
2345.000000 1.32070000e+09
2355.000000 1.31359000e+09
2365.000000 1.29786000e+09
2375.000000 1.28675000e+09
2385.000000 1.26982000e+09
2395.000000 1.25911000e+09
2405.000000 1.24768000e+09
2415.000000 1.23427000e+09
2425.000000 1.22648000e+09
2435.000000 1.21325000e+09
2445.000000 1.20184000e+09
2455.000000 1.19138000e+09
2465.000000 1.17888000e+09
2475.000000 1.16796000e+09
2485.000000 1.15638000e+09
2495.000000 1.13611000e+09
2505.000000 1.13439000e+09
2513.000000 1.12169000e+09
2518.000000 1.11979000e+09
2525.000000 1.11182000e+09
2535.000000 1.10013000e+09
2545.000000 1.08871000e+09
2555.000000 1.08165000e+09
2565.000000 1.06985000e+09
2575.000000 1.06156000e+09
2585.000000 1.05116000e+09
2595.000000 1.04101000e+09
2605.000000 1.03808000e+09
2615.000000 1.02878000e+09
2625.000000 1.01823000e+09
2635.000000 1.00557000e+09
2645.000000 1.00019000e+09
2655.000000 9.90321000e+08
2665.000000 9.79932000e+08
2675.000000 9.70829000e+08
2685.000000 9.66642000e+08
2695.000000 9.51805000e+08
2705.000000 9.48694000e+08
2715.000000 9.39725000e+08
2725.000000 9.24723000e+08
2735.000000 9.22657000e+08
2745.000000 9.10697000e+08
2755.000000 9.03105000e+08
2765.000000 8.90573000e+08
2775.000000 8.89596000e+08
2785.000000 8.81276000e+08
2795.000000 8.64855000e+08
2805.000000 8.61716000e+08
2815.000000 8.57839000e+08
2825.000000 8.43610000e+08
2835.000000 8.39028000e+08
2845.000000 8.34769000e+08
2855.000000 8.27360000e+08
2865.000000 8.20126000e+08
2875.000000 8.12744000e+08
2885.000000 8.05581000e+08
2895.000000 7.98452000e+08
2910.000000 7.87839000e+08
2930.000000 7.73873000e+08
2950.000000 7.56446000e+08
2970.000000 7.47317000e+08
2990.000000 7.34235000e+08
3010.000000 7.21641000e+08
3030.000000 7.09355000e+08
3050.000000 6.97248000e+08
3070.000000 6.85355000e+08
3090.000000 6.73671000e+08
3110.000000 6.62386000e+08
3130.000000 6.52025000e+08
3150.000000 6.40848000e+08
3170.000000 6.29976000e+08
3190.000000 6.15474000e+08
3210.000000 6.09401000e+08
3230.000000 5.99277000e+08
3250.000000 5.89428000e+08
3270.000000 5.80337000e+08
3290.000000 5.70240000e+08
3310.000000 5.61685000e+08
3330.000000 5.52648000e+08
3350.000000 5.42947000e+08
3370.000000 5.35128000e+08
3390.000000 5.26636000e+08
3410.000000 5.18306000e+08
3430.000000 5.08213000e+08
3450.000000 4.98761000e+08
3470.000000 4.92402000e+08
3490.000000 4.85661000e+08
3510.000000 4.80081000e+08
3530.000000 4.72752000e+08
3550.000000 4.65527000e+08
3570.000000 4.59735000e+08
3590.000000 4.51060000e+08
3610.000000 4.44429000e+08
3630.000000 4.37343000e+08
3640.000000 4.35967000e+08
3650.000000 4.32196000e+08
3670.000000 4.25484000e+08
3690.000000 4.10399000e+08
3710.000000 4.30646000e+08
3730.000000 4.48190000e+08
3750.000000 4.98957000e+08
3770.000000 4.97203000e+08
3790.000000 5.02538000e+08
3810.000000 5.19699000e+08
3830.000000 4.69881000e+08
3850.000000 5.20063000e+08
3870.000000 5.10099000e+08
3890.000000 4.53656000e+08
3910.000000 5.00652000e+08
3930.000000 4.89910000e+08
3950.000000 4.85493000e+08
3970.000000 4.22960000e+08
3990.000000 4.70246000e+08
4010.000000 4.61420000e+08
4030.000000 4.46553000e+08
4050.000000 4.50330000e+08
4070.000000 4.43413000e+08
4090.000000 4.30282000e+08
4110.000000 3.88436000e+08
4130.000000 4.20529000e+08
4150.000000 4.14692000e+08
4170.000000 4.10356000e+08
4190.000000 4.05332000e+08
4210.000000 3.99364000e+08
4230.000000 3.93491000e+08
4250.000000 3.87731000e+08
4270.000000 3.81794000e+08
4290.000000 3.76523000e+08
4310.000000 3.71029000e+08
4330.000000 3.56136000e+08
4350.000000 3.28838000e+08
4370.000000 3.55130000e+08
4390.000000 3.45959000e+08
4410.000000 3.45172000e+08
4430.000000 3.39068000e+08
4450.000000 3.35494000e+08
4470.000000 3.23694000e+08
4490.000000 3.26030000e+08
4510.000000 3.21533000e+08
4530.000000 3.17030000e+08
4550.000000 3.12593000e+08
4570.000000 3.08240000e+08
4590.000000 3.03986000e+08
4610.000000 2.99812000e+08
4630.000000 2.95663000e+08
4650.000000 2.91540000e+08
4670.000000 2.87614000e+08
4690.000000 2.83693000e+08
4710.000000 2.77213000e+08
4730.000000 2.76002000e+08
4750.000000 2.72197000e+08
4770.000000 2.68677000e+08
4790.000000 2.65076000e+08
4810.000000 2.61524000e+08
4830.000000 2.58023000e+08
4850.000000 2.49461000e+08
4870.000000 2.27068000e+08
4890.000000 2.47696000e+08
4910.000000 2.44651000e+08
4930.000000 2.38454000e+08
4950.000000 2.38284000e+08
4970.000000 2.35180000e+08
4990.000000 2.32119000e+08
5010.000000 2.27117000e+08
5030.000000 2.26149000e+08
5050.000000 2.22130000e+08
5070.000000 2.20367000e+08
5090.000000 2.17548000e+08
5110.000000 2.14766000e+08
5130.000000 2.12035000e+08
5150.000000 2.09326000e+08
5170.000000 2.06695000e+08
5190.000000 2.04084000e+08
5210.000000 2.01507000e+08
5230.000000 1.98991000e+08
5250.000000 1.96508000e+08
5270.000000 1.94056000e+08
5290.000000 1.91635000e+08
5310.000000 1.89259000e+08
5330.000000 1.86927000e+08
5350.000000 1.84623000e+08
5370.000000 1.82362000e+08
5390.000000 1.80117000e+08
5410.000000 1.77925000e+08
5430.000000 1.75748000e+08
5450.000000 1.73623000e+08
5470.000000 1.71512000e+08
5490.000000 1.69453000e+08
5510.000000 1.67406000e+08
5530.000000 1.65396000e+08
5550.000000 1.63424000e+08
5570.000000 1.61475000e+08
5590.000000 1.59550000e+08
5610.000000 1.57648000e+08
5630.000000 1.55793000e+08
5650.000000 1.53937000e+08
5670.000000 1.52127000e+08
5690.000000 1.50338000e+08
5710.000000 1.48593000e+08
5730.000000 1.46858000e+08
5750.000000 1.45154000e+08
5770.000000 1.43471000e+08
5790.000000 1.41807000e+08
5810.000000 1.40174000e+08
5830.000000 1.38560000e+08
5850.000000 1.36976000e+08
5870.000000 1.32589000e+08
5890.000000 1.33851000e+08
5910.000000 1.32342000e+08
5930.000000 1.30841000e+08
5950.000000 1.29356000e+08
5970.000000 1.27899000e+08
5990.000000 1.26458000e+08
6010.000000 1.25044000e+08
6030.000000 1.23636000e+08
6050.000000 1.22264000e+08
6070.000000 1.20897000e+08
6090.000000 1.19556000e+08
6110.000000 1.18240000e+08
6130.000000 1.16928000e+08
6150.000000 1.15641000e+08
6170.000000 1.14378000e+08
6190.000000 1.13129000e+08
6210.000000 1.11893000e+08
6230.000000 1.10671000e+08
6250.000000 1.09472000e+08
6270.000000 1.08286000e+08
6290.000000 1.07113000e+08
6310.000000 1.05962000e+08
6330.000000 1.04823000e+08
6350.000000 1.03688000e+08
6370.000000 1.02583000e+08
6390.000000 1.01499000e+08
6410.000000 1.00417000e+08
6430.000000 9.93558000e+07
6450.000000 9.83060000e+07
6470.000000 9.72672000e+07
6490.000000 9.62393000e+07
6510.000000 9.52311000e+07
6530.000000 9.42157000e+07
6550.000000 9.20519000e+07
6570.000000 8.34645000e+07
6590.000000 9.11026000e+07
6610.000000 9.03797000e+07
6630.000000 8.94410000e+07
6650.000000 8.85801000e+07
6670.000000 8.71182000e+07
6690.000000 8.62445000e+07
6710.000000 8.58818000e+07
6730.000000 8.50061000e+07
6750.000000 8.41393000e+07
6770.000000 8.32813000e+07
6790.000000 8.24400000e+07
6810.000000 8.16072000e+07
6830.000000 8.07827000e+07
6850.000000 7.99704000e+07
6870.000000 7.91695000e+07
6890.000000 7.83724000e+07
6910.000000 7.75944000e+07
6930.000000 7.68153000e+07
6950.000000 7.60587000e+07
6970.000000 7.53049000e+07
6990.000000 7.45523000e+07
7010.000000 7.38255000e+07
7030.000000 7.30996000e+07
7050.000000 7.23822000e+07
7070.000000 7.06905000e+07
7090.000000 7.09742000e+07
7110.000000 7.02826000e+07
7130.000000 6.95999000e+07
7150.000000 6.89251000e+07
7170.000000 6.82458000e+07
7190.000000 6.76007000e+07
7210.000000 6.69501000e+07
7230.000000 6.62753000e+07
7250.000000 6.56722000e+07
7270.000000 6.50448000e+07
7290.000000 6.39859000e+07
7310.000000 6.38019000e+07
7330.000000 6.32067000e+07
7350.000000 6.26080000e+07
7370.000000 6.20169000e+07
7390.000000 6.14326000e+07
7410.000000 6.08551000e+07
7430.000000 6.02850000e+07
7450.000000 5.97289000e+07
7470.000000 5.91712000e+07
7490.000000 5.86206000e+07
7510.000000 5.80570000e+07
7530.000000 5.75370000e+07
7550.000000 5.70053000e+07
7570.000000 5.64789000e+07
7590.000000 5.59587000e+07
7610.000000 5.54451000e+07
7630.000000 5.49367000e+07
7650.000000 5.44335000e+07
7670.000000 5.39387000e+07
7690.000000 5.34432000e+07
7710.000000 5.29565000e+07
7730.000000 5.24830000e+07
7750.000000 5.20023000e+07
7770.000000 5.15353000e+07
7790.000000 5.10760000e+07
7810.000000 5.05826000e+07
7830.000000 5.01641000e+07
7850.000000 4.97658000e+07
7870.000000 4.93197000e+07
7890.000000 4.88624000e+07
7910.000000 4.84308000e+07
7930.000000 4.79244000e+07
7950.000000 4.74827000e+07
7970.000000 4.70567000e+07
7990.000000 4.66951000e+07
8010.000000 4.62409000e+07
8030.000000 4.58677000e+07
8050.000000 4.54837000e+07
8070.000000 4.51104000e+07
8090.000000 4.46355000e+07
8110.000000 4.42736000e+07
8130.000000 4.39586000e+07
8150.000000 4.34952000e+07
8170.000000 4.32075000e+07
8190.000000 4.28198000e+07
8210.000000 4.23527000e+07
8230.000000 4.21042000e+07
8250.000000 4.17387000e+07
8270.000000 4.12082000e+07
8290.000000 4.09778000e+07
8310.000000 4.06379000e+07
8330.000000 4.02660000e+07
8350.000000 3.97718000e+07
8370.000000 3.93685000e+07
8390.000000 3.90831000e+07
8410.000000 3.86940000e+07
8430.000000 3.84777000e+07
8450.000000 3.80626000e+07
8470.000000 3.73086000e+07
8490.000000 3.80936000e+07
8510.000000 3.65550000e+07
8530.000000 3.77672000e+07
8550.000000 3.55129000e+07
8570.000000 3.77530000e+07
8590.000000 3.58676000e+07
8610.000000 3.54663000e+07
8630.000000 3.72638000e+07
8650.000000 3.64724000e+07
8670.000000 3.33819000e+07
8690.000000 3.65689000e+07
8710.000000 3.64354000e+07
8730.000000 3.55801000e+07
8750.000000 3.22537000e+07
8770.000000 3.49006000e+07
8790.000000 3.52959000e+07
8810.000000 3.49635000e+07
8830.000000 3.46976000e+07
8850.000000 3.33625000e+07
8870.000000 3.08884000e+07
8890.000000 3.37613000e+07
8910.000000 3.35942000e+07
8930.000000 3.32899000e+07
8950.000000 3.30942000e+07
8970.000000 3.28434000e+07
8990.000000 3.22681000e+07
9010.000000 2.94677000e+07
9030.000000 3.09770000e+07
9050.000000 3.17519000e+07
9070.000000 3.13469000e+07
9090.000000 3.12114000e+07
9110.000000 3.10382000e+07
9130.000000 3.08097000e+07
9150.000000 3.05667000e+07
9170.000000 3.02620000e+07
9190.000000 3.00764000e+07
9210.000000 2.92966000e+07
9230.000000 2.65997000e+07
9250.000000 2.90420000e+07
9270.000000 2.91308000e+07
9290.000000 2.89304000e+07
9310.000000 2.86111000e+07
9330.000000 2.84829000e+07
9350.000000 2.82436000e+07
9370.000000 2.80446000e+07
9390.000000 2.78283000e+07
9410.000000 2.76135000e+07
9430.000000 2.74020000e+07
9450.000000 2.71921000e+07
9470.000000 2.68627000e+07
9490.000000 2.67776000e+07
9510.000000 2.63756000e+07
9530.000000 2.57826000e+07
9550.000000 2.35441000e+07
9570.000000 2.57687000e+07
9590.000000 2.57662000e+07
9610.000000 2.55207000e+07
9630.000000 2.52950000e+07
9650.000000 2.51980000e+07
9670.000000 2.50088000e+07
9690.000000 2.48002000e+07
9710.000000 2.45723000e+07
9730.000000 2.44514000e+07
9750.000000 2.42692000e+07
9770.000000 2.40886000e+07
9790.000000 2.39097000e+07
9810.000000 2.37325000e+07
9830.000000 2.35569000e+07
9850.000000 2.33829000e+07
9870.000000 2.32105000e+07
9890.000000 2.30397000e+07
9910.000000 2.28685000e+07
9930.000000 2.27027000e+07
9950.000000 2.25366000e+07
9970.000000 2.23716000e+07
9990.000000 2.22085000e+07
10025.000000 2.14761000e+07
10075.000000 2.08344000e+07
10125.000000 2.11109000e+07
10175.000000 2.07678000e+07
10225.000000 2.03901000e+07
10275.000000 2.00373000e+07
10325.000000 1.96299000e+07
10375.000000 1.93389000e+07
10425.000000 1.90010000e+07
10475.000000 1.86704000e+07
10525.000000 1.83472000e+07
10575.000000 1.80309000e+07
10625.000000 1.77211000e+07
10675.000000 1.73932000e+07
10725.000000 1.71216000e+07
10775.000000 1.68314000e+07
10825.000000 1.63821000e+07
10875.000000 1.62684000e+07
10925.000000 1.52073000e+07
10975.000000 1.56280000e+07
11025.000000 1.54091000e+07
11075.000000 1.52113000e+07
11125.000000 1.49620000e+07
11175.000000 1.47167000e+07
11225.000000 1.44690000e+07
11275.000000 1.42405000e+07
11325.000000 1.40099000e+07
11375.000000 1.37839000e+07
11425.000000 1.35623000e+07
11475.000000 1.33450000e+07
11525.000000 1.31322000e+07
11575.000000 1.29237000e+07
11625.000000 1.27194000e+07
11675.000000 1.25189000e+07
11725.000000 1.23222000e+07
11775.000000 1.21295000e+07
11825.000000 1.19406000e+07
11875.000000 1.17553000e+07
11925.000000 1.15738000e+07
11975.000000 1.13412000e+07
12025.000000 1.12205000e+07
12075.000000 1.10493000e+07
12125.000000 1.08809000e+07
12175.000000 1.07160000e+07
12225.000000 1.05542000e+07
12275.000000 1.03954000e+07
12325.000000 1.02395000e+07
12375.000000 1.00866000e+07
12425.000000 9.93627000e+06
12475.000000 9.78899000e+06
12525.000000 9.62959000e+06
12575.000000 9.50242000e+06
12625.000000 9.36325000e+06
12675.000000 9.22644000e+06
12725.000000 9.09196000e+06
12775.000000 8.88404000e+06
12825.000000 8.41889000e+06
12875.000000 8.69475000e+06
12925.000000 8.57868000e+06
12975.000000 8.42340000e+06
13025.000000 8.33576000e+06
13075.000000 8.21748000e+06
