# Kurucz ODFNEW /NOVER, alpha: 0.0 (2003)
# teff = 8750 K (value for the effective temperature for the model. Temperatures are given in K)
# logg = 2.5 log(cm/s2) (value for Log(G) for the model.)
# lh = 1.25  (l/Hp where l is the  mixing length of the convective element and Hp is the pressure scale height)
# meta = -2.5  (value for the Metallicity for the model.)
# vtur = 2 km/s (Microturbulence velocity)
# alpha = 0  (Alpha)
#
# column 1: WAVELENGTH (ANGSTROM), Wavelength in Angstrom
# column 2: FLUX (ERG/CM2/S/A), Flux in erg/cm2/s/A
273.500000 2.25049000e-23
278.500000 1.28942000e-22
284.000000 6.21546000e-22
290.000000 3.12963000e-21
296.000000 1.46446000e-20
301.000000 5.05336000e-20
308.000000 2.66749000e-19
318.000000 2.52047000e-18
328.000000 2.06878000e-17
338.000000 1.49259000e-16
348.000000 9.58622000e-16
357.000000 4.65883000e-15
366.000000 2.09227000e-14
375.000000 8.71494000e-14
385.000000 3.92500000e-13
395.000000 1.63284000e-12
405.000000 6.31775000e-12
414.000000 2.01559000e-11
422.000000 5.41240000e-11
430.000000 1.39901000e-10
441.000000 4.87142000e-10
451.000000 1.43325000e-09
460.000000 3.63145000e-09
470.000000 9.77024000e-09
480.000000 2.51742000e-08
490.000000 6.23369000e-08
500.000000 1.48525000e-07
506.000000 3.56798000e-07
512.000000 6.61674000e-07
520.000000 1.24272000e-06
530.000000 2.68083000e-06
540.000000 5.51619000e-06
550.000000 1.12089000e-05
560.000000 2.20055000e-05
570.000000 4.21244000e-05
580.000000 7.79552000e-05
590.000000 1.43884000e-04
600.000000 2.57369000e-04
610.000000 4.51012000e-04
620.000000 7.75167000e-04
630.000000 1.30797000e-03
640.000000 2.16886000e-03
650.000000 3.53715000e-03
658.000000 5.17085000e-03
665.000000 7.15064000e-03
675.000000 1.12202000e-02
685.000000 1.73574000e-02
695.000000 2.64914000e-02
705.000000 3.99108000e-02
716.000000 6.17516000e-02
726.000000 9.06879000e-02
735.000000 1.26933000e-01
745.000000 1.82532000e-01
755.000000 2.59747000e-01
765.000000 3.65944000e-01
775.000000 5.10652000e-01
785.000000 7.05987000e-01
795.000000 9.67358000e-01
805.000000 1.31420000e+00
815.000000 1.77077000e+00
825.000000 2.36723000e+00
835.000000 3.14054000e+00
845.000000 4.13623000e+00
855.000000 5.40854000e+00
865.000000 7.02429000e+00
875.000000 9.06316000e+00
885.000000 1.16195000e+01
895.000000 1.48063000e+01
905.000000 1.87545000e+01
915.000000 5.24670000e+01
925.000000 2.42982000e+02
935.000000 4.01325000e+02
945.000000 7.34623000e+02
955.000000 1.25532000e+03
965.000000 1.55012000e+03
975.000000 9.88324000e+02
985.000000 8.18090000e+03
995.000000 1.14447000e+05
1005.000000 3.23573000e+04
1015.000000 2.86702000e+03
1025.000000 1.93251000e+03
1035.000000 4.26167000e+03
1045.000000 8.57385000e+04
1055.000000 1.38750000e+06
1065.000000 3.86387000e+06
1075.000000 6.49841000e+06
1085.000000 8.03749000e+06
1095.000000 7.74117000e+06
1105.000000 1.13995000e+07
1115.000000 1.58504000e+07
1125.000000 1.40538000e+07
1135.000000 1.27647000e+07
1145.000000 9.06806000e+06
1155.000000 4.92252000e+06
1165.000000 2.01585000e+06
1175.000000 3.84609000e+05
1185.000000 2.64637000e+06
1195.000000 1.87544000e+04
1205.000000 1.34627000e+04
1215.000000 6.51444000e+03
1225.000000 1.51151000e+04
1235.000000 2.75231000e+04
1245.000000 2.66866000e+04
1255.000000 1.57212000e+05
1265.000000 1.09884000e+06
1275.000000 3.37003000e+06
1285.000000 7.82445000e+06
1295.000000 1.12903000e+07
1305.000000 1.38700000e+07
1315.000000 1.83438000e+07
1325.000000 2.23339000e+07
1335.000000 2.51607000e+07
1345.000000 2.91487000e+07
1355.000000 2.99307000e+07
1365.000000 3.13640000e+07
1375.000000 3.23581000e+07
1385.000000 3.27096000e+07
1395.000000 3.28598000e+07
1405.000000 3.72679000e+07
1415.000000 4.06209000e+07
1425.000000 4.23032000e+07
1435.000000 4.11759000e+07
1442.000000 4.44224000e+07
1447.000000 4.45189000e+07
1455.000000 4.55593000e+07
1465.000000 4.48710000e+07
1475.000000 4.56344000e+07
1485.000000 4.60212000e+07
1495.000000 4.66583000e+07
1505.000000 4.73875000e+07
1512.000000 4.72843000e+07
1517.000000 4.77393000e+07
1525.000000 4.71279000e+07
1535.000000 4.68069000e+07
1545.000000 4.75839000e+07
1555.000000 4.58131000e+07
1565.000000 4.28577000e+07
1575.000000 4.44459000e+07
1585.000000 4.57898000e+07
1595.000000 4.68375000e+07
1605.000000 4.51384000e+07
1615.000000 4.57568000e+07
1625.000000 4.39428000e+07
1635.000000 4.50374000e+07
1645.000000 4.56359000e+07
1655.000000 4.24357000e+07
1665.000000 4.61402000e+07
1672.000000 4.34354000e+07
1677.000000 4.42699000e+07
1685.000000 4.56551000e+07
1695.000000 4.42748000e+07
1705.000000 4.39501000e+07
1715.000000 4.48506000e+07
1725.000000 4.41700000e+07
1735.000000 4.52142000e+07
1745.000000 4.43312000e+07
1755.000000 4.51167000e+07
1765.000000 4.34060000e+07
1775.000000 4.47298000e+07
1785.000000 4.40267000e+07
1795.000000 4.47617000e+07
1805.000000 4.40185000e+07
1815.000000 4.36972000e+07
1825.000000 4.30205000e+07
1835.000000 4.30765000e+07
1845.000000 4.21925000e+07
1855.000000 4.25939000e+07
1865.000000 4.24828000e+07
1875.000000 4.26288000e+07
1885.000000 4.25339000e+07
1895.000000 4.23474000e+07
1905.000000 4.17825000e+07
1915.000000 4.16586000e+07
1925.000000 4.18745000e+07
1935.000000 4.11299000e+07
1945.000000 4.19020000e+07
1955.000000 4.16558000e+07
1967.000000 4.15581000e+07
1976.000000 4.10057000e+07
1984.000000 4.09695000e+07
1995.000000 4.07329000e+07
2005.000000 4.00868000e+07
2015.000000 3.92473000e+07
2025.000000 3.93200000e+07
2035.000000 3.97387000e+07
2045.000000 3.95518000e+07
2055.000000 3.86504000e+07
2065.000000 3.86507000e+07
2074.000000 3.93206000e+07
2078.000000 3.93220000e+07
2085.000000 3.91927000e+07
2095.000000 3.88753000e+07
2105.000000 3.88384000e+07
2115.000000 3.85638000e+07
2125.000000 3.83744000e+07
2135.000000 3.75083000e+07
2145.000000 3.82131000e+07
2155.000000 3.78723000e+07
2165.000000 3.70812000e+07
2175.000000 3.70667000e+07
2185.000000 3.70928000e+07
2195.000000 3.77986000e+07
2205.000000 3.70095000e+07
2215.000000 3.60756000e+07
2225.000000 3.58335000e+07
2235.000000 3.70151000e+07
2245.000000 3.62727000e+07
2255.000000 3.54643000e+07
2265.000000 3.50997000e+07
2275.000000 3.60845000e+07
2285.000000 3.61344000e+07
2295.000000 3.55291000e+07
2305.000000 3.56207000e+07
2315.000000 3.53572000e+07
2325.000000 3.54391000e+07
2335.000000 3.48799000e+07
2345.000000 3.33807000e+07
2355.000000 3.47152000e+07
2365.000000 3.34894000e+07
2375.000000 3.42532000e+07
2385.000000 3.24711000e+07
2395.000000 3.38681000e+07
2405.000000 3.35753000e+07
2415.000000 3.36389000e+07
2425.000000 3.42967000e+07
2435.000000 3.36877000e+07
2445.000000 3.39931000e+07
2455.000000 3.39811000e+07
2465.000000 3.33439000e+07
2475.000000 3.31365000e+07
2485.000000 3.35469000e+07
2495.000000 3.30728000e+07
2505.000000 3.38581000e+07
2513.000000 3.32300000e+07
2518.000000 3.33169000e+07
2525.000000 3.25273000e+07
2535.000000 3.21997000e+07
2545.000000 3.23351000e+07
2555.000000 3.31911000e+07
2565.000000 3.28618000e+07
2575.000000 3.33445000e+07
2585.000000 3.34602000e+07
2595.000000 3.31615000e+07
2605.000000 3.27819000e+07
2615.000000 3.25933000e+07
2625.000000 3.26227000e+07
2635.000000 3.28064000e+07
2645.000000 3.39470000e+07
2655.000000 3.37885000e+07
2665.000000 3.31455000e+07
2675.000000 3.33804000e+07
2685.000000 3.35801000e+07
2695.000000 3.32587000e+07
2705.000000 3.32702000e+07
2715.000000 3.27894000e+07
2725.000000 3.27907000e+07
2735.000000 3.30777000e+07
2745.000000 3.17427000e+07
2755.000000 3.18323000e+07
2765.000000 3.23519000e+07
2775.000000 3.29969000e+07
2785.000000 3.28915000e+07
2795.000000 3.11847000e+07
2805.000000 3.21521000e+07
2815.000000 3.30618000e+07
2825.000000 3.29258000e+07
2835.000000 3.25426000e+07
2845.000000 3.24357000e+07
2855.000000 3.20702000e+07
2865.000000 3.22033000e+07
2875.000000 3.22486000e+07
2885.000000 3.24047000e+07
2895.000000 3.25125000e+07
2910.000000 3.26498000e+07
2930.000000 3.22157000e+07
2950.000000 3.20920000e+07
2970.000000 3.21639000e+07
2990.000000 3.20360000e+07
3010.000000 3.21680000e+07
3030.000000 3.21038000e+07
3050.000000 3.19834000e+07
3070.000000 3.17899000e+07
3090.000000 3.18039000e+07
3110.000000 3.16840000e+07
3130.000000 3.15145000e+07
3150.000000 3.14547000e+07
3170.000000 3.13998000e+07
3190.000000 3.10910000e+07
3210.000000 3.11497000e+07
3230.000000 3.09461000e+07
3250.000000 3.09922000e+07
3270.000000 3.09817000e+07
3290.000000 3.09132000e+07
3310.000000 3.08371000e+07
3330.000000 3.06781000e+07
3350.000000 3.04751000e+07
3370.000000 3.04096000e+07
3390.000000 3.03443000e+07
3410.000000 3.03445000e+07
3430.000000 3.02356000e+07
3450.000000 3.01602000e+07
3470.000000 3.00463000e+07
3490.000000 2.99565000e+07
3510.000000 2.98794000e+07
3530.000000 2.97918000e+07
3550.000000 2.96941000e+07
3570.000000 2.95799000e+07
3590.000000 2.94822000e+07
3610.000000 2.93848000e+07
3630.000000 2.92820000e+07
3640.000000 2.92266000e+07
3650.000000 2.94229000e+07
3670.000000 2.90360000e+07
3690.000000 2.89185000e+07
3710.000000 3.50478000e+07
3730.000000 4.28180000e+07
3750.000000 6.43219000e+07
3770.000000 6.88842000e+07
3790.000000 8.30220000e+07
3810.000000 9.45892000e+07
3830.000000 7.54337000e+07
3850.000000 1.01870000e+08
3870.000000 1.09913000e+08
3890.000000 6.58401000e+07
3910.000000 1.07587000e+08
3930.000000 1.08163000e+08
3950.000000 1.05407000e+08
3970.000000 6.25010000e+07
3990.000000 1.01222000e+08
4010.000000 1.04474000e+08
4030.000000 1.03298000e+08
4050.000000 1.02067000e+08
4070.000000 9.98925000e+07
4090.000000 8.48064000e+07
4110.000000 6.51645000e+07
4130.000000 9.53414000e+07
4150.000000 9.55577000e+07
4170.000000 9.46454000e+07
4190.000000 9.35145000e+07
4210.000000 9.23177000e+07
4230.000000 9.11015000e+07
4250.000000 8.99499000e+07
4270.000000 8.87539000e+07
4290.000000 8.73633000e+07
4310.000000 8.52950000e+07
4330.000000 6.94127000e+07
4350.000000 5.88791000e+07
4370.000000 8.18326000e+07
4390.000000 8.18940000e+07
4410.000000 8.12227000e+07
4430.000000 8.03278000e+07
4450.000000 7.93467000e+07
4470.000000 7.82687000e+07
4490.000000 7.72441000e+07
4510.000000 7.64383000e+07
4530.000000 7.55078000e+07
4550.000000 7.45270000e+07
4570.000000 7.37084000e+07
4590.000000 7.28010000e+07
4610.000000 7.19775000e+07
4630.000000 7.10828000e+07
4650.000000 7.02688000e+07
4670.000000 6.94316000e+07
4690.000000 6.86060000e+07
4710.000000 6.77410000e+07
4730.000000 6.70027000e+07
4750.000000 6.62192000e+07
4770.000000 6.54416000e+07
4790.000000 6.45760000e+07
4810.000000 6.36200000e+07
4830.000000 6.21350000e+07
4850.000000 5.21503000e+07
4870.000000 4.20636000e+07
4890.000000 5.94396000e+07
4910.000000 5.99627000e+07
4930.000000 5.94585000e+07
4950.000000 5.89652000e+07
4970.000000 5.83040000e+07
4990.000000 5.76439000e+07
5010.000000 5.69565000e+07
5030.000000 5.63555000e+07
5050.000000 5.57150000e+07
5070.000000 5.51063000e+07
5090.000000 5.44953000e+07
5110.000000 5.38906000e+07
5130.000000 5.32937000e+07
5150.000000 5.27073000e+07
5170.000000 5.20663000e+07
5190.000000 5.15302000e+07
5210.000000 5.09965000e+07
5230.000000 5.04268000e+07
5250.000000 4.98971000e+07
5270.000000 4.93427000e+07
5290.000000 4.88263000e+07
5310.000000 4.82908000e+07
5330.000000 4.77819000e+07
5350.000000 4.72766000e+07
5370.000000 4.67709000e+07
5390.000000 4.62780000e+07
5410.000000 4.57858000e+07
5430.000000 4.53035000e+07
5450.000000 4.48283000e+07
5470.000000 4.43588000e+07
5490.000000 4.38962000e+07
5510.000000 4.34379000e+07
5530.000000 4.29838000e+07
5550.000000 4.25413000e+07
5570.000000 4.21015000e+07
5590.000000 4.16682000e+07
5610.000000 4.12400000e+07
5630.000000 4.08179000e+07
5650.000000 4.04008000e+07
5670.000000 3.99898000e+07
5690.000000 3.95846000e+07
5710.000000 3.91842000e+07
5730.000000 3.87883000e+07
5750.000000 3.83982000e+07
5770.000000 3.80125000e+07
5790.000000 3.76324000e+07
5810.000000 3.72577000e+07
5830.000000 3.68861000e+07
5850.000000 3.65209000e+07
5870.000000 3.61347000e+07
5890.000000 3.57964000e+07
5910.000000 3.54499000e+07
5930.000000 3.51029000e+07
5950.000000 3.47588000e+07
5970.000000 3.44196000e+07
5990.000000 3.40840000e+07
6010.000000 3.37543000e+07
6030.000000 3.34282000e+07
6050.000000 3.31057000e+07
6070.000000 3.27877000e+07
6090.000000 3.24731000e+07
6110.000000 3.21630000e+07
6130.000000 3.18562000e+07
6150.000000 3.15498000e+07
6170.000000 3.12535000e+07
6190.000000 3.09585000e+07
6210.000000 3.06666000e+07
6230.000000 3.03778000e+07
6250.000000 3.00901000e+07
6270.000000 2.98103000e+07
6290.000000 2.95325000e+07
6310.000000 2.92566000e+07
6330.000000 2.89856000e+07
6350.000000 2.87117000e+07
6370.000000 2.84491000e+07
6390.000000 2.81891000e+07
6410.000000 2.79301000e+07
6430.000000 2.76737000e+07
6450.000000 2.74181000e+07
6470.000000 2.71688000e+07
6490.000000 2.68513000e+07
6510.000000 2.65328000e+07
6530.000000 2.60162000e+07
6550.000000 2.34094000e+07
6570.000000 1.87209000e+07
6590.000000 2.48940000e+07
6610.000000 2.52903000e+07
6630.000000 2.51842000e+07
6650.000000 2.50253000e+07
6670.000000 2.48212000e+07
6690.000000 2.46015000e+07
6710.000000 2.43856000e+07
6730.000000 2.41702000e+07
6750.000000 2.39577000e+07
6770.000000 2.37473000e+07
6790.000000 2.35390000e+07
6810.000000 2.33327000e+07
6830.000000 2.31292000e+07
6850.000000 2.29285000e+07
6870.000000 2.27290000e+07
6890.000000 2.25321000e+07
6910.000000 2.23380000e+07
6930.000000 2.21449000e+07
6950.000000 2.19552000e+07
6970.000000 2.17666000e+07
6990.000000 2.15806000e+07
7010.000000 2.13963000e+07
7030.000000 2.12145000e+07
7050.000000 2.10336000e+07
7070.000000 2.08553000e+07
7090.000000 2.06793000e+07
7110.000000 2.05043000e+07
7130.000000 2.03323000e+07
7150.000000 2.01613000e+07
7170.000000 1.99925000e+07
7190.000000 1.98253000e+07
7210.000000 1.96597000e+07
7230.000000 1.94963000e+07
7250.000000 1.93344000e+07
7270.000000 1.91740000e+07
7290.000000 1.90158000e+07
7310.000000 1.88590000e+07
7330.000000 1.87036000e+07
7350.000000 1.85504000e+07
7370.000000 1.83985000e+07
7390.000000 1.82480000e+07
7410.000000 1.80989000e+07
7430.000000 1.79517000e+07
7450.000000 1.78059000e+07
7470.000000 1.76614000e+07
7490.000000 1.75189000e+07
7510.000000 1.73776000e+07
7530.000000 1.72376000e+07
7550.000000 1.70995000e+07
7570.000000 1.69626000e+07
7590.000000 1.68268000e+07
7610.000000 1.66930000e+07
7630.000000 1.65596000e+07
7650.000000 1.64281000e+07
7670.000000 1.62984000e+07
7690.000000 1.61691000e+07
7710.000000 1.60416000e+07
7730.000000 1.59152000e+07
7750.000000 1.57899000e+07
7770.000000 1.56450000e+07
7790.000000 1.55437000e+07
7810.000000 1.54222000e+07
7830.000000 1.53023000e+07
7850.000000 1.51829000e+07
7870.000000 1.50645000e+07
7890.000000 1.49470000e+07
7910.000000 1.48330000e+07
7930.000000 1.47187000e+07
7950.000000 1.46054000e+07
7970.000000 1.44937000e+07
7990.000000 1.43811000e+07
8010.000000 1.42724000e+07
8030.000000 1.41634000e+07
8050.000000 1.40553000e+07
8070.000000 1.39487000e+07
8090.000000 1.38430000e+07
8110.000000 1.37381000e+07
8130.000000 1.36341000e+07
8150.000000 1.35310000e+07
8170.000000 1.34293000e+07
8190.000000 1.33278000e+07
8210.000000 1.32915000e+07
8230.000000 1.32003000e+07
8250.000000 1.31114000e+07
8270.000000 1.30244000e+07
8290.000000 1.29320000e+07
8310.000000 1.28300000e+07
8330.000000 1.27115000e+07
8350.000000 1.25999000e+07
8370.000000 1.24101000e+07
8390.000000 1.22975000e+07
8410.000000 1.21379000e+07
8430.000000 1.22076000e+07
8450.000000 1.21757000e+07
8470.000000 1.15344000e+07
8490.000000 1.24763000e+07
8510.000000 1.12863000e+07
8530.000000 1.26490000e+07
8550.000000 1.08052000e+07
8570.000000 1.28877000e+07
8590.000000 1.17744000e+07
8610.000000 1.13844000e+07
8630.000000 1.31952000e+07
8650.000000 1.27204000e+07
8670.000000 1.01719000e+07
8690.000000 1.31114000e+07
8710.000000 1.34465000e+07
8730.000000 1.29885000e+07
8750.000000 9.89473000e+06
8770.000000 1.23359000e+07
8790.000000 1.31502000e+07
8810.000000 1.31372000e+07
8830.000000 1.29250000e+07
8850.000000 1.17282000e+07
8870.000000 9.64318000e+06
8890.000000 1.23727000e+07
8910.000000 1.26499000e+07
8930.000000 1.26140000e+07
8950.000000 1.25253000e+07
8970.000000 1.23833000e+07
8990.000000 1.20137000e+07
9010.000000 9.53006000e+06
9030.000000 1.05815000e+07
9050.000000 1.18843000e+07
9070.000000 1.19574000e+07
9090.000000 1.18999000e+07
9110.000000 1.18372000e+07
9130.000000 1.17610000e+07
9150.000000 1.16597000e+07
9170.000000 1.15520000e+07
9190.000000 1.13872000e+07
9210.000000 1.08248000e+07
9230.000000 8.34092000e+06
9250.000000 1.04579000e+07
9270.000000 1.10279000e+07
9290.000000 1.10569000e+07
9310.000000 1.10086000e+07
9330.000000 1.09502000e+07
9350.000000 1.08719000e+07
9370.000000 1.07942000e+07
9390.000000 1.07167000e+07
9410.000000 1.06333000e+07
9430.000000 1.05650000e+07
9450.000000 1.04899000e+07
9470.000000 1.03923000e+07
9490.000000 1.02904000e+07
9510.000000 1.01230000e+07
9530.000000 9.47041000e+06
9550.000000 7.51497000e+06
9570.000000 9.51028000e+06
9590.000000 9.86595000e+06
9610.000000 9.86980000e+06
9630.000000 9.82600000e+06
9650.000000 9.77561000e+06
9670.000000 9.70459000e+06
9690.000000 9.64010000e+06
9710.000000 9.57326000e+06
9730.000000 9.50688000e+06
9750.000000 9.44137000e+06
9770.000000 9.37592000e+06
9790.000000 9.31131000e+06
9810.000000 9.24755000e+06
9830.000000 9.18383000e+06
9850.000000 9.12095000e+06
9870.000000 9.05850000e+06
9890.000000 8.99571000e+06
9910.000000 8.93527000e+06
9930.000000 8.87410000e+06
9950.000000 8.81410000e+06
9970.000000 8.73785000e+06
9990.000000 8.65495000e+06
10025.000000 8.03984000e+06
10075.000000 7.64069000e+06
10125.000000 8.27980000e+06
10175.000000 8.17024000e+06
10225.000000 8.03540000e+06
10275.000000 7.90351000e+06
10325.000000 7.77379000e+06
10375.000000 7.64724000e+06
10425.000000 7.52276000e+06
10475.000000 7.40099000e+06
10525.000000 7.28186000e+06
10575.000000 7.16499000e+06
10625.000000 7.05066000e+06
10675.000000 6.93320000e+06
10725.000000 6.82711000e+06
10775.000000 6.72041000e+06
10825.000000 6.61154000e+06
10875.000000 6.47252000e+06
10925.000000 5.61958000e+06
10975.000000 6.07268000e+06
11025.000000 6.19594000e+06
11075.000000 6.11677000e+06
11125.000000 6.02295000e+06
11175.000000 5.93086000e+06
11225.000000 5.84077000e+06
11275.000000 5.75115000e+06
11325.000000 5.66435000e+06
11375.000000 5.57973000e+06
11425.000000 5.49607000e+06
11475.000000 5.41395000e+06
11525.000000 5.33332000e+06
11575.000000 5.25417000e+06
11625.000000 5.17645000e+06
11675.000000 5.09959000e+06
11725.000000 5.02550000e+06
11775.000000 4.95031000e+06
11825.000000 4.87944000e+06
11875.000000 4.80878000e+06
11925.000000 4.73966000e+06
11975.000000 4.67127000e+06
12025.000000 4.60436000e+06
12075.000000 4.53867000e+06
12125.000000 4.47389000e+06
12175.000000 4.41053000e+06
12225.000000 4.34806000e+06
12275.000000 4.28671000e+06
12325.000000 4.22670000e+06
12375.000000 4.16752000e+06
12425.000000 4.10940000e+06
12475.000000 4.05232000e+06
12525.000000 3.99602000e+06
12575.000000 3.94096000e+06
12625.000000 3.88664000e+06
12675.000000 3.83352000e+06
12725.000000 3.77368000e+06
12775.000000 3.66871000e+06
12825.000000 3.21712000e+06
12875.000000 3.58876000e+06
12925.000000 3.57616000e+06
12975.000000 3.53254000e+06
13025.000000 3.48526000e+06
13075.000000 3.43882000e+06
13125.000000 3.39299000e+06
13175.000000 3.34819000e+06
13225.000000 3.30396000e+06
13275.000000 3.26052000e+06
13325.000000 3.21764000e+06
13375.000000 3.17573000e+06
13425.000000 3.13435000e+06
13475.000000 3.09350000e+06
13525.000000 3.05357000e+06
13575.000000 3.01415000e+06
13625.000000 2.97543000e+06
13675.000000 2.93719000e+06
13725.000000 2.89963000e+06
13775.000000 2.86274000e+06
13825.000000 2.82630000e+06
13875.000000 2.79051000e+06
13925.000000 2.75535000e+06
13975.000000 2.72062000e+06
14025.000000 2.68651000e+06
14075.000000 2.65300000e+06
14125.000000 2.61991000e+06
14175.000000 2.58739000e+06
14225.000000 2.55527000e+06
14275.000000 2.52372000e+06
14325.000000 2.49273000e+06
14375.000000 2.46212000e+06
14425.000000 2.43168000e+06
14475.000000 2.40232000e+06
14525.000000 2.37296000e+06
