# Kurucz ODFNEW /NOVER, alpha: 0.0 (2003)
# teff = 27000 K (value for the effective temperature for the model. Temperatures are given in K)
# logg = 3.5 log(cm/s2) (value for Log(G) for the model.)
# lh = 1.25  (l/Hp where l is the  mixing length of the convective element and Hp is the pressure scale height)
# meta = -0.5  (value for the Metallicity for the model.)
# vtur = 2 km/s (Microturbulence velocity)
# alpha = 0  (Alpha)
#
# column 1: WAVELENGTH (ANGSTROM), Wavelength in Angstrom
# column 2: FLUX (ERG/CM2/S/A), Flux in erg/cm2/s/A
147.200000 6.16528000e-12
151.000000 2.41658000e-11
155.200000 1.01681000e-10
158.800000 3.29171000e-10
162.000000 8.97424000e-10
166.000000 2.98433000e-09
170.300000 1.02136000e-08
173.400000 2.39124000e-08
176.800000 5.87519000e-08
180.200000 1.39603000e-07
181.700000 2.02406000e-07
186.100000 5.82163000e-07
191.000000 1.78384000e-06
193.900000 3.36887000e-06
198.400000 8.70747000e-06
201.800000 1.73456000e-05
205.000000 3.24834000e-05
210.500000 9.13294000e-05
216.200000 2.51922000e-04
219.800000 4.65149000e-04
223.000000 7.88701000e-04
226.800000 1.45145000e-03
230.000000 4.81566000e-01
234.000000 1.11527000e+00
240.000000 2.24370000e+00
246.500000 4.78316000e+00
252.400000 9.21396000e+00
256.800000 1.31786000e+01
260.000000 2.20236000e+01
264.000000 3.27795000e+01
268.500000 5.15297000e+01
273.500000 8.13872000e+01
278.500000 1.24138000e+02
284.000000 2.28506000e+02
290.000000 3.68913000e+02
296.000000 5.78277000e+02
301.000000 8.05968000e+02
308.000000 1.36655000e+03
318.000000 3.12645000e+03
328.000000 5.63672000e+03
338.000000 1.06327000e+04
348.000000 1.86402000e+04
357.000000 5.38333000e+04
366.000000 9.70031000e+04
375.000000 1.37297000e+05
385.000000 2.15859000e+05
395.000000 3.58367000e+05
405.000000 5.04626000e+05
414.000000 7.08307000e+05
422.000000 8.88281000e+05
430.000000 1.17202000e+06
441.000000 1.63323000e+06
451.000000 2.13220000e+06
460.000000 2.65455000e+06
470.000000 3.50432000e+06
480.000000 4.47383000e+06
490.000000 5.69817000e+06
500.000000 7.18694000e+06
506.000000 3.69128000e+07
512.000000 1.83619000e+08
520.000000 1.86303000e+08
530.000000 1.93823000e+08
540.000000 1.89282000e+08
550.000000 2.50759000e+08
560.000000 2.91941000e+08
570.000000 3.23055000e+08
580.000000 3.03075000e+08
590.000000 3.63201000e+08
600.000000 3.70325000e+08
610.000000 4.24041000e+08
620.000000 4.74891000e+08
630.000000 4.93270000e+08
640.000000 4.82096000e+08
650.000000 4.59610000e+08
658.000000 5.32747000e+08
665.000000 5.92791000e+08
675.000000 6.11374000e+08
685.000000 5.93759000e+08
695.000000 7.32814000e+08
705.000000 7.05100000e+08
716.000000 8.10695000e+08
726.000000 8.20680000e+08
735.000000 8.42825000e+08
745.000000 9.16871000e+08
755.000000 9.46475000e+08
765.000000 9.95213000e+08
775.000000 1.04521000e+09
785.000000 1.10581000e+09
795.000000 1.13253000e+09
805.000000 1.15270000e+09
815.000000 1.16537000e+09
825.000000 1.24583000e+09
835.000000 1.11578000e+09
845.000000 1.26749000e+09
855.000000 1.28908000e+09
865.000000 1.34917000e+09
875.000000 1.41013000e+09
885.000000 1.48340000e+09
895.000000 1.53010000e+09
905.000000 1.53107000e+09
915.000000 2.34445000e+09
925.000000 1.57393000e+10
935.000000 2.68616000e+10
945.000000 3.67932000e+10
955.000000 3.92267000e+10
965.000000 4.29432000e+10
975.000000 1.53398000e+10
985.000000 3.60485000e+10
995.000000 3.46175000e+10
1005.000000 3.74035000e+10
1015.000000 3.80633000e+10
1025.000000 2.87248000e+10
1035.000000 3.42375000e+10
1045.000000 4.18912000e+10
1055.000000 3.94965000e+10
1065.000000 3.44270000e+10
1075.000000 3.70006000e+10
1085.000000 3.40752000e+10
1095.000000 3.67893000e+10
1105.000000 3.48676000e+10
1115.000000 3.43722000e+10
1125.000000 2.91406000e+10
1135.000000 3.38559000e+10
1145.000000 3.16119000e+10
1155.000000 3.17729000e+10
1165.000000 3.12714000e+10
1175.000000 2.12409000e+10
1185.000000 2.90497000e+10
1195.000000 2.81144000e+10
1205.000000 2.46357000e+10
1215.000000 1.99925000e+10
1225.000000 2.65433000e+10
1235.000000 2.79924000e+10
1245.000000 2.69588000e+10
1255.000000 2.68873000e+10
1265.000000 2.70689000e+10
1275.000000 2.73690000e+10
1285.000000 2.70337000e+10
1295.000000 2.36098000e+10
1305.000000 2.43709000e+10
1315.000000 2.60365000e+10
1325.000000 2.48746000e+10
1335.000000 2.41123000e+10
1345.000000 2.40883000e+10
1355.000000 2.38941000e+10
1365.000000 2.28578000e+10
1375.000000 2.23333000e+10
1385.000000 2.18528000e+10
1395.000000 1.71588000e+10
1405.000000 1.80614000e+10
1415.000000 2.02192000e+10
1425.000000 1.90663000e+10
1435.000000 1.96815000e+10
1442.000000 1.98731000e+10
1447.000000 1.95651000e+10
1455.000000 1.89537000e+10
1465.000000 1.82166000e+10
1475.000000 1.82510000e+10
1485.000000 1.80692000e+10
1495.000000 1.76041000e+10
1505.000000 1.67389000e+10
1512.000000 1.57195000e+10
1517.000000 1.60025000e+10
1525.000000 1.58900000e+10
1535.000000 1.39714000e+10
1545.000000 1.33794000e+10
1555.000000 1.29327000e+10
1565.000000 1.38682000e+10
1575.000000 1.44912000e+10
1585.000000 1.44167000e+10
1595.000000 1.42845000e+10
1605.000000 1.37052000e+10
1615.000000 1.32763000e+10
1625.000000 1.33516000e+10
1635.000000 1.36639000e+10
1645.000000 1.34416000e+10
1655.000000 1.34793000e+10
1665.000000 1.33409000e+10
1672.000000 1.27629000e+10
1677.000000 1.39261000e+10
1685.000000 1.33656000e+10
1695.000000 1.28395000e+10
1705.000000 1.25492000e+10
1715.000000 1.20253000e+10
1725.000000 1.17776000e+10
1735.000000 1.20303000e+10
1745.000000 1.18199000e+10
1755.000000 1.17580000e+10
1765.000000 1.15768000e+10
1775.000000 1.11101000e+10
1785.000000 1.11980000e+10
1795.000000 1.11627000e+10
1805.000000 1.11797000e+10
1815.000000 1.05004000e+10
1825.000000 1.06036000e+10
1835.000000 1.04336000e+10
1845.000000 9.62689000e+09
1855.000000 9.73818000e+09
1865.000000 9.83917000e+09
1875.000000 9.87113000e+09
1885.000000 9.05917000e+09
1895.000000 8.55016000e+09
1905.000000 9.01601000e+09
1915.000000 8.67216000e+09
1925.000000 8.24893000e+09
1935.000000 8.66456000e+09
1945.000000 8.81748000e+09
1955.000000 8.01634000e+09
1967.000000 8.45923000e+09
1976.000000 8.77687000e+09
1984.000000 8.23382000e+09
1995.000000 8.05051000e+09
2005.000000 8.18294000e+09
2015.000000 8.18265000e+09
2025.000000 8.27769000e+09
2035.000000 7.73468000e+09
2045.000000 7.72624000e+09
2055.000000 7.10875000e+09
2065.000000 7.03583000e+09
2074.000000 7.39065000e+09
2078.000000 7.00033000e+09
2085.000000 7.27266000e+09
2095.000000 7.07979000e+09
2105.000000 7.25134000e+09
2115.000000 7.23439000e+09
2125.000000 7.26407000e+09
2135.000000 7.13651000e+09
2145.000000 6.87026000e+09
2155.000000 6.99371000e+09
2165.000000 6.89067000e+09
2175.000000 6.81233000e+09
2185.000000 6.68462000e+09
2195.000000 6.69188000e+09
2205.000000 6.60993000e+09
2215.000000 6.50884000e+09
2225.000000 6.39149000e+09
2235.000000 6.27221000e+09
2245.000000 6.25943000e+09
2255.000000 6.12484000e+09
2265.000000 6.10069000e+09
2275.000000 6.02767000e+09
2285.000000 5.95324000e+09
2295.000000 5.53118000e+09
2305.000000 5.76139000e+09
2315.000000 5.66603000e+09
2325.000000 5.59837000e+09
2335.000000 5.49662000e+09
2345.000000 5.49369000e+09
2355.000000 5.42193000e+09
2365.000000 5.35846000e+09
2375.000000 5.26247000e+09
2385.000000 5.18267000e+09
2395.000000 5.12201000e+09
2405.000000 5.06870000e+09
2415.000000 4.99451000e+09
2425.000000 4.95449000e+09
2435.000000 4.85523000e+09
2445.000000 4.81812000e+09
2455.000000 4.77607000e+09
2465.000000 4.71254000e+09
2475.000000 4.64126000e+09
2485.000000 4.56079000e+09
2495.000000 3.88590000e+09
2505.000000 4.41321000e+09
2513.000000 4.28040000e+09
2518.000000 4.35807000e+09
2525.000000 4.36059000e+09
2535.000000 4.31529000e+09
2545.000000 4.20235000e+09
2555.000000 4.18083000e+09
2565.000000 4.14491000e+09
2575.000000 4.10318000e+09
2585.000000 4.05345000e+09
2595.000000 4.00689000e+09
2605.000000 3.97474000e+09
2615.000000 3.91873000e+09
2625.000000 3.87816000e+09
2635.000000 3.83082000e+09
2645.000000 3.77832000e+09
2655.000000 3.73773000e+09
2665.000000 3.65939000e+09
2675.000000 3.62450000e+09
2685.000000 3.61051000e+09
2695.000000 3.51530000e+09
2705.000000 3.48678000e+09
2715.000000 3.45838000e+09
2725.000000 3.41656000e+09
2735.000000 3.38004000e+09
2745.000000 3.34651000e+09
2755.000000 3.31526000e+09
2765.000000 3.25791000e+09
2775.000000 3.25150000e+09
2785.000000 3.20492000e+09
2795.000000 3.11592000e+09
2805.000000 3.11811000e+09
2815.000000 3.10498000e+09
2825.000000 3.05264000e+09
2835.000000 2.99003000e+09
2845.000000 2.99944000e+09
2855.000000 2.95407000e+09
2865.000000 2.92678000e+09
2875.000000 2.89520000e+09
2885.000000 2.86566000e+09
2895.000000 2.82904000e+09
2910.000000 2.77477000e+09
2930.000000 2.72350000e+09
2950.000000 2.64570000e+09
2970.000000 2.60258000e+09
2990.000000 2.54311000e+09
3010.000000 2.47200000e+09
3030.000000 2.43455000e+09
3050.000000 2.38875000e+09
3070.000000 2.34302000e+09
3090.000000 2.26745000e+09
3110.000000 2.24275000e+09
3130.000000 2.19137000e+09
3150.000000 2.14792000e+09
3170.000000 2.10114000e+09
3190.000000 2.05096000e+09
3210.000000 2.01806000e+09
3230.000000 1.97448000e+09
3250.000000 1.93977000e+09
3270.000000 1.89807000e+09
3290.000000 1.85934000e+09
3310.000000 1.82517000e+09
3330.000000 1.78585000e+09
3350.000000 1.75050000e+09
3370.000000 1.71711000e+09
3390.000000 1.68727000e+09
3410.000000 1.65509000e+09
3430.000000 1.61792000e+09
3450.000000 1.58187000e+09
3470.000000 1.55421000e+09
3490.000000 1.52395000e+09
3510.000000 1.50055000e+09
3530.000000 1.47558000e+09
3550.000000 1.44737000e+09
3570.000000 1.42502000e+09
3590.000000 1.38916000e+09
3610.000000 1.36540000e+09
3630.000000 1.34016000e+09
3640.000000 1.33551000e+09
3650.000000 1.30470000e+09
3670.000000 1.28736000e+09
3690.000000 1.25543000e+09
3710.000000 1.21850000e+09
3730.000000 1.18457000e+09
3750.000000 1.24237000e+09
3770.000000 1.23129000e+09
3790.000000 1.25618000e+09
3810.000000 1.28558000e+09
3830.000000 1.16471000e+09
3850.000000 1.28135000e+09
3870.000000 1.25582000e+09
3890.000000 1.11059000e+09
3910.000000 1.23321000e+09
3930.000000 1.19871000e+09
3950.000000 1.18508000e+09
3970.000000 1.02803000e+09
3990.000000 1.14613000e+09
4010.000000 1.12861000e+09
4030.000000 1.08661000e+09
4050.000000 1.09462000e+09
4070.000000 1.05928000e+09
4090.000000 1.01596000e+09
4110.000000 9.30645000e+08
4130.000000 1.00689000e+09
4150.000000 9.95519000e+08
4170.000000 9.85841000e+08
4190.000000 9.69950000e+08
4210.000000 9.56909000e+08
4230.000000 9.40344000e+08
4250.000000 9.19835000e+08
4270.000000 8.98614000e+08
4290.000000 8.87798000e+08
4310.000000 8.68525000e+08
4330.000000 8.26623000e+08
4350.000000 7.67017000e+08
4370.000000 8.27460000e+08
4390.000000 8.11473000e+08
4410.000000 8.04943000e+08
4430.000000 7.95465000e+08
4450.000000 7.82870000e+08
4470.000000 7.54613000e+08
4490.000000 7.58631000e+08
4510.000000 7.48325000e+08
4530.000000 7.36977000e+08
4550.000000 7.24070000e+08
4570.000000 7.12696000e+08
4590.000000 7.01170000e+08
4610.000000 6.89533000e+08
4630.000000 6.78844000e+08
4650.000000 6.56970000e+08
4670.000000 6.57453000e+08
4690.000000 6.48244000e+08
4710.000000 6.30795000e+08
4730.000000 6.30422000e+08
4750.000000 6.19915000e+08
4770.000000 6.14297000e+08
4790.000000 6.04810000e+08
4810.000000 5.94776000e+08
4830.000000 5.84418000e+08
4850.000000 5.62023000e+08
4870.000000 5.14798000e+08
4890.000000 5.59814000e+08
4910.000000 5.52559000e+08
4930.000000 5.36568000e+08
4950.000000 5.35086000e+08
4970.000000 5.29735000e+08
4990.000000 5.21851000e+08
5010.000000 5.06662000e+08
5030.000000 5.06661000e+08
5050.000000 4.97160000e+08
5070.000000 4.92747000e+08
5090.000000 4.85480000e+08
5110.000000 4.78499000e+08
5130.000000 4.70996000e+08
5150.000000 4.64561000e+08
5170.000000 4.58577000e+08
5190.000000 4.52546000e+08
5210.000000 4.46233000e+08
5230.000000 4.40045000e+08
5250.000000 4.33951000e+08
5270.000000 4.27788000e+08
5290.000000 4.22244000e+08
5310.000000 4.16397000e+08
5330.000000 4.10864000e+08
5350.000000 4.05232000e+08
5370.000000 3.99907000e+08
5390.000000 3.94273000e+08
5410.000000 3.88866000e+08
5430.000000 3.84001000e+08
5450.000000 3.78816000e+08
5470.000000 3.73784000e+08
5490.000000 3.68841000e+08
5510.000000 3.64158000e+08
5530.000000 3.59188000e+08
5550.000000 3.54684000e+08
5570.000000 3.49980000e+08
5590.000000 3.45443000e+08
5610.000000 3.40997000e+08
5630.000000 3.36641000e+08
5650.000000 3.32067000e+08
5670.000000 3.27209000e+08
5690.000000 3.21992000e+08
5710.000000 3.19117000e+08
5730.000000 3.15241000e+08
5750.000000 3.10636000e+08
5770.000000 3.07547000e+08
5790.000000 3.03538000e+08
5810.000000 2.99755000e+08
5830.000000 2.95718000e+08
5850.000000 2.92280000e+08
5870.000000 2.82419000e+08
5890.000000 2.84251000e+08
5910.000000 2.81360000e+08
5930.000000 2.77697000e+08
5950.000000 2.74291000e+08
5970.000000 2.71484000e+08
5990.000000 2.67794000e+08
6010.000000 2.64774000e+08
6030.000000 2.61383000e+08
6050.000000 2.58330000e+08
6070.000000 2.55342000e+08
6090.000000 2.52297000e+08
6110.000000 2.49275000e+08
6130.000000 2.46318000e+08
6150.000000 2.43065000e+08
6170.000000 2.40275000e+08
6190.000000 2.37554000e+08
6210.000000 2.34815000e+08
6230.000000 2.32077000e+08
6250.000000 2.29244000e+08
6270.000000 2.26615000e+08
6290.000000 2.24005000e+08
6310.000000 2.21348000e+08
6330.000000 2.18832000e+08
6350.000000 2.16204000e+08
6370.000000 2.13800000e+08
6390.000000 2.11310000e+08
6410.000000 2.08893000e+08
6430.000000 2.06530000e+08
6450.000000 2.04164000e+08
6470.000000 2.01599000e+08
6490.000000 1.99366000e+08
6510.000000 1.97262000e+08
6530.000000 1.94810000e+08
6550.000000 1.89996000e+08
6570.000000 1.72668000e+08
6590.000000 1.87358000e+08
6610.000000 1.86338000e+08
6630.000000 1.84358000e+08
6650.000000 1.82297000e+08
6670.000000 1.79072000e+08
6690.000000 1.77127000e+08
6710.000000 1.76407000e+08
6730.000000 1.74279000e+08
6750.000000 1.72587000e+08
6770.000000 1.70722000e+08
6790.000000 1.68467000e+08
6810.000000 1.66967000e+08
6830.000000 1.65135000e+08
6850.000000 1.63417000e+08
6870.000000 1.61653000e+08
6890.000000 1.59819000e+08
6910.000000 1.58051000e+08
6930.000000 1.56513000e+08
6950.000000 1.54857000e+08
6970.000000 1.53209000e+08
6990.000000 1.51578000e+08
7010.000000 1.49978000e+08
7030.000000 1.48372000e+08
7050.000000 1.46826000e+08
7070.000000 1.43336000e+08
7090.000000 1.43773000e+08
7110.000000 1.42071000e+08
7130.000000 1.40674000e+08
7150.000000 1.39336000e+08
7170.000000 1.37856000e+08
7190.000000 1.36464000e+08
7210.000000 1.35063000e+08
7230.000000 1.32716000e+08
7250.000000 1.32164000e+08
7270.000000 1.30946000e+08
7290.000000 1.28712000e+08
7310.000000 1.28269000e+08
7330.000000 1.26974000e+08
7350.000000 1.25699000e+08
7370.000000 1.24435000e+08
7390.000000 1.23183000e+08
7410.000000 1.21942000e+08
7430.000000 1.20720000e+08
7450.000000 1.19523000e+08
7470.000000 1.18148000e+08
7490.000000 1.17135000e+08
7510.000000 1.15958000e+08
7530.000000 1.14824000e+08
7550.000000 1.13714000e+08
7570.000000 1.12595000e+08
7590.000000 1.11479000e+08
7610.000000 1.10328000e+08
7630.000000 1.09310000e+08
7650.000000 1.08244000e+08
7670.000000 1.07193000e+08
7690.000000 1.06146000e+08
7710.000000 1.05121000e+08
7730.000000 1.04092000e+08
7750.000000 1.03104000e+08
7770.000000 1.02075000e+08
7790.000000 1.01141000e+08
7810.000000 1.00124000e+08
7830.000000 9.92197000e+07
7850.000000 9.83418000e+07
7870.000000 9.73560000e+07
7890.000000 9.63608000e+07
7910.000000 9.55550000e+07
7930.000000 9.46183000e+07
7950.000000 9.37197000e+07
7970.000000 9.27517000e+07
7990.000000 9.19221000e+07
8010.000000 9.09997000e+07
8030.000000 9.01906000e+07
8050.000000 8.93826000e+07
8070.000000 8.85814000e+07
8090.000000 8.76432000e+07
8110.000000 8.66788000e+07
8130.000000 8.61674000e+07
8150.000000 8.52459000e+07
8170.000000 8.46145000e+07
8190.000000 8.36682000e+07
8210.000000 8.26798000e+07
8230.000000 8.20282000e+07
8250.000000 8.14261000e+07
8270.000000 8.02120000e+07
8290.000000 7.98638000e+07
8310.000000 7.91798000e+07
8330.000000 7.84472000e+07
8350.000000 7.74397000e+07
8370.000000 7.68872000e+07
8390.000000 7.62963000e+07
8410.000000 7.55769000e+07
8430.000000 7.48371000e+07
8450.000000 7.38132000e+07
8470.000000 7.32917000e+07
8490.000000 7.28945000e+07
8510.000000 7.16940000e+07
8530.000000 7.18034000e+07
8550.000000 6.96694000e+07
8570.000000 7.13143000e+07
8590.000000 6.85166000e+07
8610.000000 6.80513000e+07
8630.000000 6.99720000e+07
8650.000000 6.83045000e+07
8670.000000 6.40104000e+07
8690.000000 6.82857000e+07
8710.000000 6.82158000e+07
8730.000000 6.65690000e+07
8750.000000 6.10394000e+07
8770.000000 6.49492000e+07
8790.000000 6.60290000e+07
8810.000000 6.55014000e+07
8830.000000 6.48475000e+07
8850.000000 6.20150000e+07
8870.000000 5.79098000e+07
8890.000000 6.29216000e+07
8910.000000 6.28056000e+07
8930.000000 6.22836000e+07
8950.000000 6.18927000e+07
8970.000000 6.13361000e+07
8990.000000 6.00706000e+07
9010.000000 5.48387000e+07
9030.000000 5.72480000e+07
9050.000000 5.90927000e+07
9070.000000 5.83974000e+07
9090.000000 5.82045000e+07
9110.000000 5.78766000e+07
9130.000000 5.74154000e+07
9150.000000 5.69397000e+07
9170.000000 5.63511000e+07
9190.000000 5.58741000e+07
9210.000000 5.41661000e+07
9230.000000 4.90895000e+07
9250.000000 5.35093000e+07
9270.000000 5.39933000e+07
9290.000000 5.37305000e+07
9310.000000 5.31131000e+07
9330.000000 5.27774000e+07
9350.000000 5.23967000e+07
9370.000000 5.20102000e+07
9390.000000 5.16009000e+07
9410.000000 5.11691000e+07
9430.000000 5.07616000e+07
9450.000000 5.03529000e+07
9470.000000 4.97246000e+07
9490.000000 4.95320000e+07
9510.000000 4.86615000e+07
9530.000000 4.73085000e+07
9550.000000 4.31327000e+07
9570.000000 4.73170000e+07
9590.000000 4.75049000e+07
9610.000000 4.70993000e+07
9630.000000 4.66520000e+07
9650.000000 4.64952000e+07
9670.000000 4.61299000e+07
9690.000000 4.57350000e+07
9710.000000 4.52351000e+07
9730.000000 4.50494000e+07
9750.000000 4.46983000e+07
9770.000000 4.43537000e+07
9790.000000 4.40075000e+07
9810.000000 4.36482000e+07
9830.000000 4.33304000e+07
9850.000000 4.29877000e+07
9870.000000 4.26512000e+07
9890.000000 4.23056000e+07
9910.000000 4.18818000e+07
9930.000000 4.16827000e+07
9950.000000 4.13631000e+07
9970.000000 4.10381000e+07
9990.000000 4.07343000e+07
10025.000000 3.91496000e+07
10075.000000 3.79418000e+07
10125.000000 3.85969000e+07
10175.000000 3.79784000e+07
10225.000000 3.72583000e+07
10275.000000 3.65826000e+07
10325.000000 3.58015000e+07
10375.000000 3.52543000e+07
10425.000000 3.46098000e+07
10475.000000 3.39815000e+07
10525.000000 3.33646000e+07
10575.000000 3.27661000e+07
10625.000000 3.21788000e+07
10675.000000 3.15597000e+07
10725.000000 3.10441000e+07
10775.000000 3.04948000e+07
10825.000000 2.96704000e+07
10875.000000 2.94129000e+07
10925.000000 2.72934000e+07
10975.000000 2.81158000e+07
11025.000000 2.78022000e+07
11075.000000 2.74378000e+07
11125.000000 2.69726000e+07
11175.000000 2.65133000e+07
11225.000000 2.60507000e+07
11275.000000 2.56187000e+07
11325.000000 2.51765000e+07
11375.000000 2.47637000e+07
11425.000000 2.43469000e+07
11475.000000 2.39455000e+07
11525.000000 2.35493000e+07
11575.000000 2.31562000e+07
11625.000000 2.27762000e+07
11675.000000 2.23966000e+07
11725.000000 2.20408000e+07
11775.000000 2.16815000e+07
11825.000000 2.13307000e+07
11875.000000 2.09879000e+07
11925.000000 2.06509000e+07
11975.000000 2.01846000e+07
12025.000000 1.99968000e+07
12075.000000 1.96801000e+07
12125.000000 1.93688000e+07
12175.000000 1.90641000e+07
12225.000000 1.87653000e+07
12275.000000 1.84725000e+07
12325.000000 1.81848000e+07
12375.000000 1.79026000e+07
12425.000000 1.76270000e+07
12475.000000 1.73526000e+07
12525.000000 1.70566000e+07
12575.000000 1.68259000e+07
12625.000000 1.65707000e+07
12675.000000 1.63223000e+07
12725.000000 1.60758000e+07
12775.000000 1.56490000e+07
12825.000000 1.47391000e+07
12875.000000 1.53282000e+07
12925.000000 1.51359000e+07
12975.000000 1.48359000e+07
13025.000000 1.46885000e+07
13075.000000 1.44759000e+07
