# Kurucz ODFNEW /NOVER, alpha: 0.0 (2003)
# teff = 8750 K (value for the effective temperature for the model. Temperatures are given in K)
# logg = 1.5 log(cm/s2) (value for Log(G) for the model.)
# lh = 1.25  (l/Hp where l is the  mixing length of the convective element and Hp is the pressure scale height)
# meta = -2.5  (value for the Metallicity for the model.)
# vtur = 2 km/s (Microturbulence velocity)
# alpha = 0  (Alpha)
#
# column 1: WAVELENGTH (ANGSTROM), Wavelength in Angstrom
# column 2: FLUX (ERG/CM2/S/A), Flux in erg/cm2/s/A
273.500000 1.70138000e-23
278.500000 1.06454000e-22
284.000000 5.26308000e-22
290.000000 2.68781000e-21
296.000000 1.27549000e-20
301.000000 4.45043000e-20
308.000000 2.38216000e-19
318.000000 2.29437000e-18
328.000000 1.91929000e-17
338.000000 1.40922000e-16
348.000000 9.21510000e-16
357.000000 4.54118000e-15
366.000000 2.06603000e-14
375.000000 8.70985000e-14
385.000000 3.97380000e-13
395.000000 1.67497000e-12
405.000000 6.54789000e-12
414.000000 2.10835000e-11
422.000000 5.70434000e-11
430.000000 1.48575000e-10
441.000000 5.22649000e-10
451.000000 1.54953000e-09
460.000000 3.94889000e-09
470.000000 1.06992000e-08
480.000000 2.77396000e-08
490.000000 6.90571000e-08
500.000000 1.65354000e-07
506.000000 3.82724000e-07
512.000000 7.07862000e-07
520.000000 1.33303000e-06
530.000000 2.88388000e-06
540.000000 5.95338000e-06
550.000000 1.21352000e-05
560.000000 2.38988000e-05
570.000000 4.58928000e-05
580.000000 8.51314000e-05
590.000000 1.57640000e-04
600.000000 2.82798000e-04
610.000000 4.96967000e-04
620.000000 8.56511000e-04
630.000000 1.44911000e-03
640.000000 2.40928000e-03
650.000000 3.93894000e-03
658.000000 5.76923000e-03
665.000000 7.99103000e-03
675.000000 1.25672000e-02
685.000000 1.94842000e-02
695.000000 2.97991000e-02
705.000000 4.49862000e-02
716.000000 6.97586000e-02
726.000000 1.02653000e-01
735.000000 1.43920000e-01
745.000000 2.07341000e-01
755.000000 2.95574000e-01
765.000000 4.17127000e-01
775.000000 5.82991000e-01
785.000000 8.07288000e-01
795.000000 1.10767000e+00
805.000000 1.50692000e+00
815.000000 2.03308000e+00
825.000000 2.72125000e+00
835.000000 3.61435000e+00
845.000000 4.76599000e+00
855.000000 6.23927000e+00
865.000000 8.11185000e+00
875.000000 1.04763000e+01
885.000000 1.34444000e+01
895.000000 1.71475000e+01
905.000000 2.17379000e+01
915.000000 8.27547000e+01
925.000000 3.99451000e+02
935.000000 6.41051000e+02
945.000000 1.22748000e+03
955.000000 2.58292000e+04
965.000000 2.26295000e+04
975.000000 1.45790000e+03
985.000000 1.37323000e+06
995.000000 3.24660000e+06
1005.000000 1.34802000e+06
1015.000000 1.38877000e+04
1025.000000 2.82859000e+03
1035.000000 3.60156000e+04
1045.000000 2.38752000e+06
1055.000000 8.62633000e+06
1065.000000 1.18334000e+07
1075.000000 1.49785000e+07
1085.000000 1.59703000e+07
1095.000000 1.53347000e+07
1105.000000 1.69259000e+07
1115.000000 1.83603000e+07
1125.000000 1.72784000e+07
1135.000000 1.59292000e+07
1145.000000 1.29804000e+07
1155.000000 9.35141000e+06
1165.000000 6.35948000e+06
1175.000000 2.92570000e+06
1185.000000 1.10972000e+07
1195.000000 2.25105000e+04
1205.000000 1.62069000e+04
1215.000000 7.18509000e+03
1225.000000 1.81036000e+04
1235.000000 3.29719000e+04
1245.000000 2.24233000e+05
1255.000000 2.05650000e+06
1265.000000 4.34543000e+06
1275.000000 8.17293000e+06
1285.000000 1.27571000e+07
1295.000000 1.55133000e+07
1305.000000 1.65093000e+07
1315.000000 2.14274000e+07
1325.000000 2.43575000e+07
1335.000000 2.61141000e+07
1345.000000 2.97589000e+07
1355.000000 3.03636000e+07
1365.000000 3.07332000e+07
1375.000000 3.25076000e+07
1385.000000 3.44123000e+07
1395.000000 3.54036000e+07
1405.000000 3.72183000e+07
1415.000000 3.73244000e+07
1425.000000 3.85259000e+07
1435.000000 3.76798000e+07
1442.000000 4.02662000e+07
1447.000000 4.07783000e+07
1455.000000 4.16017000e+07
1465.000000 4.13165000e+07
1475.000000 4.18716000e+07
1485.000000 4.25516000e+07
1495.000000 4.30360000e+07
1505.000000 4.38465000e+07
1512.000000 4.38617000e+07
1517.000000 4.46600000e+07
1525.000000 4.39092000e+07
1535.000000 4.38330000e+07
1545.000000 4.51534000e+07
1555.000000 4.37285000e+07
1565.000000 4.15902000e+07
1575.000000 4.27450000e+07
1585.000000 4.46546000e+07
1595.000000 4.59771000e+07
1605.000000 4.44920000e+07
1615.000000 4.47573000e+07
1625.000000 4.29042000e+07
1635.000000 4.35788000e+07
1645.000000 4.39152000e+07
1655.000000 4.12115000e+07
1665.000000 4.46005000e+07
1672.000000 4.17820000e+07
1677.000000 4.29732000e+07
1685.000000 4.42712000e+07
1695.000000 4.32114000e+07
1705.000000 4.28900000e+07
1715.000000 4.36145000e+07
1725.000000 4.30964000e+07
1735.000000 4.43294000e+07
1745.000000 4.36656000e+07
1755.000000 4.47191000e+07
1765.000000 4.28703000e+07
1775.000000 4.46294000e+07
1785.000000 4.38978000e+07
1795.000000 4.48143000e+07
1805.000000 4.41896000e+07
1815.000000 4.39716000e+07
1825.000000 4.33836000e+07
1835.000000 4.34088000e+07
1845.000000 4.28587000e+07
1855.000000 4.30110000e+07
1865.000000 4.28467000e+07
1875.000000 4.33607000e+07
1885.000000 4.33545000e+07
1895.000000 4.30744000e+07
1905.000000 4.28217000e+07
1915.000000 4.25235000e+07
1925.000000 4.28067000e+07
1935.000000 4.22809000e+07
1945.000000 4.31259000e+07
1955.000000 4.28810000e+07
1967.000000 4.29242000e+07
1976.000000 4.24269000e+07
1984.000000 4.25104000e+07
1995.000000 4.20884000e+07
2005.000000 4.15740000e+07
2015.000000 4.05704000e+07
2025.000000 4.08956000e+07
2035.000000 4.12515000e+07
2045.000000 4.11418000e+07
2055.000000 4.01465000e+07
2065.000000 4.01641000e+07
2074.000000 4.09049000e+07
2078.000000 4.09168000e+07
2085.000000 4.09190000e+07
2095.000000 4.05302000e+07
2105.000000 4.06008000e+07
2115.000000 4.03214000e+07
2125.000000 4.02215000e+07
2135.000000 3.90389000e+07
2145.000000 3.99613000e+07
2155.000000 3.96545000e+07
2165.000000 3.87996000e+07
2175.000000 3.87391000e+07
2185.000000 3.87349000e+07
2195.000000 3.96518000e+07
2205.000000 3.88203000e+07
2215.000000 3.78970000e+07
2225.000000 3.73950000e+07
2235.000000 3.87995000e+07
2245.000000 3.78776000e+07
2255.000000 3.70504000e+07
2265.000000 3.67357000e+07
2275.000000 3.78889000e+07
2285.000000 3.79289000e+07
2295.000000 3.72071000e+07
2305.000000 3.72608000e+07
2315.000000 3.69909000e+07
2325.000000 3.71438000e+07
2335.000000 3.65002000e+07
2345.000000 3.48509000e+07
2355.000000 3.63067000e+07
2365.000000 3.49772000e+07
2375.000000 3.58267000e+07
2385.000000 3.38752000e+07
2395.000000 3.54049000e+07
2405.000000 3.50128000e+07
2415.000000 3.51323000e+07
2425.000000 3.57977000e+07
2435.000000 3.51249000e+07
2445.000000 3.55232000e+07
2455.000000 3.54463000e+07
2465.000000 3.48133000e+07
2475.000000 3.45645000e+07
2485.000000 3.52057000e+07
2495.000000 3.46233000e+07
2505.000000 3.54599000e+07
2513.000000 3.48598000e+07
2518.000000 3.50703000e+07
2525.000000 3.40642000e+07
2535.000000 3.36025000e+07
2545.000000 3.36985000e+07
2555.000000 3.46021000e+07
2565.000000 3.42549000e+07
2575.000000 3.48297000e+07
2585.000000 3.49373000e+07
2595.000000 3.46389000e+07
2605.000000 3.41959000e+07
2615.000000 3.39993000e+07
2625.000000 3.40354000e+07
2635.000000 3.42415000e+07
2645.000000 3.54747000e+07
2655.000000 3.52876000e+07
2665.000000 3.45713000e+07
2675.000000 3.48451000e+07
2685.000000 3.50412000e+07
2695.000000 3.46633000e+07
2705.000000 3.46701000e+07
2715.000000 3.41775000e+07
2725.000000 3.41686000e+07
2735.000000 3.45306000e+07
2745.000000 3.30256000e+07
2755.000000 3.31079000e+07
2765.000000 3.36578000e+07
2775.000000 3.43579000e+07
2785.000000 3.42714000e+07
2795.000000 3.24144000e+07
2805.000000 3.34368000e+07
2815.000000 3.44177000e+07
2825.000000 3.42466000e+07
2835.000000 3.38302000e+07
2845.000000 3.36677000e+07
2855.000000 3.33454000e+07
2865.000000 3.34398000e+07
2875.000000 3.34528000e+07
2885.000000 3.36911000e+07
2895.000000 3.37446000e+07
2910.000000 3.39213000e+07
2930.000000 3.34378000e+07
2950.000000 3.33015000e+07
2970.000000 3.33611000e+07
2990.000000 3.32205000e+07
3010.000000 3.33635000e+07
3030.000000 3.32885000e+07
3050.000000 3.31384000e+07
3070.000000 3.29267000e+07
3090.000000 3.29284000e+07
3110.000000 3.27831000e+07
3130.000000 3.25816000e+07
3150.000000 3.25379000e+07
3170.000000 3.24510000e+07
3190.000000 3.21365000e+07
3210.000000 3.21665000e+07
3230.000000 3.19571000e+07
3250.000000 3.19898000e+07
3270.000000 3.19658000e+07
3290.000000 3.18835000e+07
3310.000000 3.17972000e+07
3330.000000 3.16253000e+07
3350.000000 3.14053000e+07
3370.000000 3.13278000e+07
3390.000000 3.12500000e+07
3410.000000 3.12406000e+07
3430.000000 3.11178000e+07
3450.000000 3.10410000e+07
3470.000000 3.09123000e+07
3490.000000 3.08111000e+07
3510.000000 3.07252000e+07
3530.000000 3.06290000e+07
3550.000000 3.05180000e+07
3570.000000 3.04017000e+07
3590.000000 3.02919000e+07
3610.000000 3.01826000e+07
3630.000000 3.00683000e+07
3640.000000 3.00085000e+07
3650.000000 3.04353000e+07
3670.000000 2.99954000e+07
3690.000000 3.22082000e+07
3710.000000 4.35491000e+07
3730.000000 6.48240000e+07
3750.000000 8.72325000e+07
3770.000000 8.69694000e+07
3790.000000 9.25556000e+07
3810.000000 1.00166000e+08
3830.000000 8.58658000e+07
3850.000000 1.02523000e+08
3870.000000 1.03167000e+08
3890.000000 8.14773000e+07
3910.000000 1.00976000e+08
3930.000000 9.91235000e+07
3950.000000 9.88346000e+07
3970.000000 7.72395000e+07
3990.000000 9.63801000e+07
4010.000000 9.58124000e+07
4030.000000 9.45390000e+07
4050.000000 9.37018000e+07
4070.000000 9.25511000e+07
4090.000000 8.84142000e+07
4110.000000 7.36393000e+07
4130.000000 8.92521000e+07
4150.000000 8.84639000e+07
4170.000000 8.74765000e+07
4190.000000 8.65232000e+07
4210.000000 8.55543000e+07
4230.000000 8.45746000e+07
4250.000000 8.36199000e+07
4270.000000 8.26896000e+07
4290.000000 8.17546000e+07
4310.000000 8.06914000e+07
4330.000000 7.50208000e+07
4350.000000 6.57139000e+07
4370.000000 7.80371000e+07
4390.000000 7.72045000e+07
4410.000000 7.64341000e+07
4430.000000 7.56035000e+07
4450.000000 7.47675000e+07
4470.000000 7.37832000e+07
4490.000000 7.29349000e+07
4510.000000 7.22821000e+07
4530.000000 7.14873000e+07
4550.000000 7.06291000e+07
4570.000000 6.99474000e+07
4590.000000 6.91514000e+07
4610.000000 6.84552000e+07
4630.000000 6.76647000e+07
4650.000000 6.69706000e+07
4670.000000 6.62376000e+07
4690.000000 6.55231000e+07
4710.000000 6.47607000e+07
4730.000000 6.41098000e+07
4750.000000 6.34208000e+07
4770.000000 6.27377000e+07
4790.000000 6.20622000e+07
4810.000000 6.13925000e+07
4830.000000 6.06025000e+07
4850.000000 5.68590000e+07
4870.000000 4.79392000e+07
4890.000000 5.85667000e+07
4910.000000 5.81859000e+07
4930.000000 5.75009000e+07
4950.000000 5.69634000e+07
4970.000000 5.63625000e+07
4990.000000 5.57663000e+07
5010.000000 5.51133000e+07
5030.000000 5.45985000e+07
5050.000000 5.39985000e+07
5070.000000 5.34634000e+07
5090.000000 5.29059000e+07
5110.000000 5.23527000e+07
5130.000000 5.18078000e+07
5150.000000 5.12699000e+07
5170.000000 5.07006000e+07
5190.000000 5.01987000e+07
5210.000000 4.96988000e+07
5230.000000 4.91707000e+07
5250.000000 4.86806000e+07
5270.000000 4.81667000e+07
5290.000000 4.76887000e+07
5310.000000 4.71885000e+07
5330.000000 4.67197000e+07
5350.000000 4.62500000e+07
5370.000000 4.57781000e+07
5390.000000 4.53171000e+07
5410.000000 4.48591000e+07
5430.000000 4.44053000e+07
5450.000000 4.39620000e+07
5470.000000 4.35203000e+07
5490.000000 4.30850000e+07
5510.000000 4.26537000e+07
5530.000000 4.22274000e+07
5550.000000 4.18087000e+07
5570.000000 4.13936000e+07
5590.000000 4.09846000e+07
5610.000000 4.05792000e+07
5630.000000 4.01785000e+07
5650.000000 3.97836000e+07
5670.000000 3.93933000e+07
5690.000000 3.90075000e+07
5710.000000 3.86261000e+07
5730.000000 3.82491000e+07
5750.000000 3.78775000e+07
5770.000000 3.75090000e+07
5790.000000 3.71458000e+07
5810.000000 3.67867000e+07
5830.000000 3.64317000e+07
5850.000000 3.60817000e+07
5870.000000 3.56766000e+07
5890.000000 3.53902000e+07
5910.000000 3.50540000e+07
5930.000000 3.47205000e+07
5950.000000 3.43885000e+07
5970.000000 3.40633000e+07
5990.000000 3.37386000e+07
6010.000000 3.34216000e+07
6030.000000 3.31060000e+07
6050.000000 3.27948000e+07
6070.000000 3.24871000e+07
6090.000000 3.21826000e+07
6110.000000 3.18825000e+07
6130.000000 3.15855000e+07
6150.000000 3.12888000e+07
6170.000000 3.10012000e+07
6190.000000 3.07137000e+07
6210.000000 3.04302000e+07
6230.000000 3.01497000e+07
6250.000000 2.98693000e+07
6270.000000 2.95985000e+07
6290.000000 2.93268000e+07
6310.000000 2.90589000e+07
6330.000000 2.87937000e+07
6350.000000 2.85220000e+07
6370.000000 2.82680000e+07
6390.000000 2.80166000e+07
6410.000000 2.77632000e+07
6430.000000 2.75124000e+07
6450.000000 2.72632000e+07
6470.000000 2.70203000e+07
6490.000000 2.67780000e+07
6510.000000 2.64990000e+07
6530.000000 2.61452000e+07
6550.000000 2.46862000e+07
6570.000000 2.02151000e+07
6590.000000 2.52922000e+07
6610.000000 2.52998000e+07
6630.000000 2.51559000e+07
6650.000000 2.49350000e+07
6670.000000 2.47111000e+07
6690.000000 2.44954000e+07
6710.000000 2.42852000e+07
6730.000000 2.40737000e+07
6750.000000 2.38635000e+07
6770.000000 2.36561000e+07
6790.000000 2.34516000e+07
6810.000000 2.32482000e+07
6830.000000 2.30477000e+07
6850.000000 2.28490000e+07
6870.000000 2.26523000e+07
6890.000000 2.24583000e+07
6910.000000 2.22662000e+07
6930.000000 2.20759000e+07
6950.000000 2.18882000e+07
6970.000000 2.17015000e+07
6990.000000 2.15181000e+07
7010.000000 2.13357000e+07
7030.000000 2.11550000e+07
7050.000000 2.09768000e+07
7070.000000 2.07957000e+07
7090.000000 2.06261000e+07
7110.000000 2.04528000e+07
7130.000000 2.02819000e+07
7150.000000 2.01126000e+07
7170.000000 1.99456000e+07
7190.000000 1.97802000e+07
7210.000000 1.96155000e+07
7230.000000 1.94531000e+07
7250.000000 1.92928000e+07
7270.000000 1.91341000e+07
7290.000000 1.89761000e+07
7310.000000 1.88209000e+07
7330.000000 1.86665000e+07
7350.000000 1.85141000e+07
7370.000000 1.83631000e+07
7390.000000 1.82135000e+07
7410.000000 1.80659000e+07
7430.000000 1.79197000e+07
7450.000000 1.77747000e+07
7470.000000 1.76311000e+07
7490.000000 1.74893000e+07
7510.000000 1.73482000e+07
7530.000000 1.72097000e+07
7550.000000 1.70717000e+07
7570.000000 1.69356000e+07
7590.000000 1.68000000e+07
7610.000000 1.66670000e+07
7630.000000 1.65344000e+07
7650.000000 1.64036000e+07
7670.000000 1.62740000e+07
7690.000000 1.61455000e+07
7710.000000 1.60181000e+07
7730.000000 1.58925000e+07
7750.000000 1.57679000e+07
7770.000000 1.56238000e+07
7790.000000 1.55220000e+07
7810.000000 1.54012000e+07
7830.000000 1.52814000e+07
7850.000000 1.51627000e+07
7870.000000 1.50444000e+07
7890.000000 1.49271000e+07
7910.000000 1.48137000e+07
7930.000000 1.46996000e+07
7950.000000 1.45870000e+07
7970.000000 1.44747000e+07
7990.000000 1.43628000e+07
8010.000000 1.42547000e+07
8030.000000 1.41459000e+07
8050.000000 1.40379000e+07
8070.000000 1.39313000e+07
8090.000000 1.38257000e+07
8110.000000 1.37215000e+07
8130.000000 1.36176000e+07
8150.000000 1.35151000e+07
8170.000000 1.34135000e+07
8190.000000 1.33127000e+07
8210.000000 1.33043000e+07
8230.000000 1.32131000e+07
8250.000000 1.31242000e+07
8270.000000 1.30305000e+07
8290.000000 1.29189000e+07
8310.000000 1.27798000e+07
8330.000000 1.26279000e+07
8350.000000 1.25685000e+07
8370.000000 1.22542000e+07
8390.000000 1.23018000e+07
8410.000000 1.22061000e+07
8430.000000 1.25241000e+07
8450.000000 1.24775000e+07
8470.000000 1.18915000e+07
8490.000000 1.30308000e+07
8510.000000 1.18189000e+07
8530.000000 1.32056000e+07
8550.000000 1.15813000e+07
8570.000000 1.33939000e+07
8590.000000 1.26281000e+07
8610.000000 1.22600000e+07
8630.000000 1.36767000e+07
8650.000000 1.34816000e+07
8670.000000 1.12464000e+07
8690.000000 1.34621000e+07
8710.000000 1.34411000e+07
8730.000000 1.32644000e+07
8750.000000 1.09630000e+07
8770.000000 1.29144000e+07
8790.000000 1.30595000e+07
8810.000000 1.29823000e+07
8830.000000 1.28603000e+07
8850.000000 1.24112000e+07
8870.000000 1.06018000e+07
8890.000000 1.25243000e+07
8910.000000 1.25084000e+07
8930.000000 1.24180000e+07
8950.000000 1.23292000e+07
8970.000000 1.22387000e+07
8990.000000 1.20887000e+07
9010.000000 1.03505000e+07
9030.000000 1.13355000e+07
9050.000000 1.18544000e+07
9070.000000 1.17967000e+07
9090.000000 1.17102000e+07
9110.000000 1.16298000e+07
9130.000000 1.15464000e+07
9150.000000 1.14640000e+07
9170.000000 1.13809000e+07
9190.000000 1.12890000e+07
9210.000000 1.10984000e+07
9230.000000 9.20057000e+06
9250.000000 1.08652000e+07
9270.000000 1.09543000e+07
9290.000000 1.09024000e+07
9310.000000 1.08252000e+07
9330.000000 1.07485000e+07
9350.000000 1.06724000e+07
9370.000000 1.05973000e+07
9390.000000 1.05223000e+07
9410.000000 1.04461000e+07
9430.000000 1.03752000e+07
9450.000000 1.03022000e+07
9470.000000 1.02302000e+07
9490.000000 1.01586000e+07
9510.000000 1.00705000e+07
9530.000000 9.84083000e+06
9550.000000 8.24693000e+06
9570.000000 9.76573000e+06
9590.000000 9.80082000e+06
9610.000000 9.74171000e+06
9630.000000 9.67367000e+06
9650.000000 9.60853000e+06
9670.000000 9.54143000e+06
9690.000000 9.47680000e+06
9710.000000 9.41183000e+06
9730.000000 9.34731000e+06
9750.000000 9.28325000e+06
9770.000000 9.22002000e+06
9790.000000 9.15684000e+06
9810.000000 9.09449000e+06
9830.000000 9.03295000e+06
9850.000000 8.97146000e+06
9870.000000 8.91077000e+06
9890.000000 8.85012000e+06
9910.000000 8.79065000e+06
9930.000000 8.73121000e+06
9950.000000 8.67255000e+06
9970.000000 8.61429000e+06
9990.000000 8.55643000e+06
10025.000000 8.23589000e+06
10075.000000 7.86115000e+06
10125.000000 8.17801000e+06
10175.000000 8.04398000e+06
10225.000000 7.91217000e+06
10275.000000 7.78290000e+06
10325.000000 7.65646000e+06
10375.000000 7.53244000e+06
10425.000000 7.41079000e+06
10475.000000 7.29146000e+06
10525.000000 7.17474000e+06
10575.000000 7.06056000e+06
10625.000000 6.94821000e+06
10675.000000 6.83667000e+06
10725.000000 6.73016000e+06
10775.000000 6.62469000e+06
10825.000000 6.51863000e+06
10875.000000 6.41709000e+06
10925.000000 5.84905000e+06
10975.000000 6.15963000e+06
11025.000000 6.12620000e+06
11075.000000 6.03231000e+06
11125.000000 5.94016000e+06
11175.000000 5.84971000e+06
11225.000000 5.76094000e+06
11275.000000 5.67321000e+06
11325.000000 5.58798000e+06
11375.000000 5.50461000e+06
11425.000000 5.42248000e+06
11475.000000 5.34185000e+06
11525.000000 5.26242000e+06
11575.000000 5.18472000e+06
11625.000000 5.10815000e+06
11675.000000 5.03326000e+06
11725.000000 4.95973000e+06
11775.000000 4.88700000e+06
11825.000000 4.81639000e+06
11875.000000 4.74680000e+06
11925.000000 4.67847000e+06
11975.000000 4.61111000e+06
12025.000000 4.54522000e+06
12075.000000 4.48053000e+06
12125.000000 4.41675000e+06
12175.000000 4.35411000e+06
12225.000000 4.29286000e+06
12275.000000 4.23245000e+06
12325.000000 4.17313000e+06
12375.000000 4.11488000e+06
12425.000000 4.05767000e+06
12475.000000 4.00124000e+06
12525.000000 3.94607000e+06
12575.000000 3.89164000e+06
12625.000000 3.83819000e+06
12675.000000 3.78569000e+06
12725.000000 3.73413000e+06
12775.000000 3.67125000e+06
12825.000000 3.35821000e+06
12875.000000 3.57808000e+06
12925.000000 3.53624000e+06
12975.000000 3.48890000e+06
13025.000000 3.44240000e+06
13075.000000 3.39651000e+06
13125.000000 3.35144000e+06
13175.000000 3.30717000e+06
13225.000000 3.26368000e+06
13275.000000 3.22076000e+06
13325.000000 3.17860000e+06
13375.000000 3.13719000e+06
13425.000000 3.09631000e+06
13475.000000 3.05615000e+06
13525.000000 3.01671000e+06
13575.000000 2.97776000e+06
13625.000000 2.93951000e+06
13675.000000 2.90194000e+06
13725.000000 2.86503000e+06
13775.000000 2.82859000e+06
13825.000000 2.79259000e+06
13875.000000 2.75744000e+06
13925.000000 2.72271000e+06
13975.000000 2.68841000e+06
14025.000000 2.65491000e+06
14075.000000 2.62163000e+06
14125.000000 2.58913000e+06
14175.000000 2.55702000e+06
14225.000000 2.52530000e+06
14275.000000 2.49414000e+06
14325.000000 2.46354000e+06
14375.000000 2.43349000e+06
14425.000000 2.40362000e+06
14475.000000 2.37445000e+06
14525.000000 2.34563000e+06
