# Kurucz ODFNEW /NOVER, alpha: 0.0 (2003)
# teff = 19000 K (value for the effective temperature for the model. Temperatures are given in K)
# logg = 3 log(cm/s2) (value for Log(G) for the model.)
# lh = 1.25  (l/Hp where l is the  mixing length of the convective element and Hp is the pressure scale height)
# meta = -2  (value for the Metallicity for the model.)
# vtur = 2 km/s (Microturbulence velocity)
# alpha = 0  (Alpha)
#
# column 1: WAVELENGTH (ANGSTROM), Wavelength in Angstrom
# column 2: FLUX (ERG/CM2/S/A), Flux in erg/cm2/s/A
147.200000 1.39367000e-21
151.000000 1.06952000e-20
155.200000 8.98303000e-20
158.800000 5.08338000e-19
162.000000 2.22357000e-18
166.000000 1.29713000e-17
170.300000 7.86269000e-17
173.400000 2.72465000e-16
176.800000 1.01173000e-15
180.200000 3.57111000e-15
181.700000 6.13427000e-15
186.100000 2.84898000e-14
191.000000 1.44595000e-13
193.900000 3.63370000e-13
198.400000 1.43714000e-12
201.800000 3.89401000e-12
205.000000 9.64391000e-12
210.500000 4.28735000e-11
216.200000 1.85147000e-10
219.800000 4.47853000e-10
223.000000 9.57789000e-10
226.800000 2.29444000e-09
230.000000 6.17309000e-09
234.000000 1.51583000e-08
240.000000 5.09886000e-08
246.500000 1.77055000e-07
252.400000 5.18958000e-07
256.800000 1.11060000e-06
260.000000 1.91786000e-06
264.000000 3.69821000e-06
268.500000 7.55055000e-06
273.500000 1.62135000e-05
278.500000 3.38576000e-05
284.000000 7.37382000e-05
290.000000 1.66370000e-04
296.000000 3.62433000e-04
301.000000 6.76733000e-04
308.000000 1.55908000e-03
318.000000 4.84267000e-03
328.000000 1.39327000e-02
338.000000 3.75100000e-02
348.000000 9.50814000e-02
357.000000 2.09359000e-01
366.000000 4.42381000e-01
375.000000 8.99087000e-01
385.000000 1.89639000e+00
395.000000 3.83961000e+00
405.000000 7.48727000e+00
414.000000 1.32560000e+01
422.000000 2.15396000e+01
430.000000 3.43111000e+01
441.000000 6.31728000e+01
451.000000 1.06945000e+02
460.000000 1.68102000e+02
470.000000 2.71709000e+02
480.000000 4.29593000e+02
490.000000 6.65325000e+02
500.000000 1.01048000e+03
506.000000 6.77458000e+03
512.000000 1.99298000e+04
520.000000 2.64742000e+04
530.000000 4.13557000e+04
540.000000 4.66248000e+04
550.000000 7.32213000e+04
560.000000 9.38136000e+04
570.000000 1.20822000e+05
580.000000 1.23064000e+05
590.000000 1.72705000e+05
600.000000 2.35655000e+05
610.000000 2.93264000e+05
620.000000 3.56570000e+05
630.000000 4.33880000e+05
640.000000 5.13882000e+05
650.000000 6.18318000e+05
658.000000 7.17481000e+05
665.000000 8.04189000e+05
675.000000 9.33173000e+05
685.000000 1.09175000e+06
695.000000 1.29532000e+06
705.000000 1.49456000e+06
716.000000 1.74683000e+06
726.000000 1.99638000e+06
735.000000 2.26229000e+06
745.000000 2.58880000e+06
755.000000 2.93948000e+06
765.000000 3.31510000e+06
775.000000 3.74286000e+06
785.000000 4.20071000e+06
795.000000 4.68592000e+06
805.000000 5.21913000e+06
815.000000 5.77494000e+06
825.000000 6.41512000e+06
835.000000 6.99399000e+06
845.000000 7.75856000e+06
855.000000 8.48102000e+06
865.000000 9.33333000e+06
875.000000 1.02195000e+07
885.000000 1.11640000e+07
895.000000 1.21293000e+07
905.000000 1.29777000e+07
915.000000 2.71568000e+07
925.000000 4.03753000e+08
935.000000 1.58599000e+09
945.000000 4.22153000e+09
955.000000 5.40501000e+09
965.000000 6.68280000e+09
975.000000 2.62927000e+09
985.000000 7.19309000e+09
995.000000 6.96095000e+09
1005.000000 7.27890000e+09
1015.000000 6.83231000e+09
1025.000000 2.72278000e+09
1035.000000 5.94763000e+09
1045.000000 7.57236000e+09
1055.000000 7.37026000e+09
1065.000000 6.76882000e+09
1075.000000 7.21332000e+09
1085.000000 6.76319000e+09
1095.000000 7.21018000e+09
1105.000000 6.84270000e+09
1115.000000 6.88778000e+09
1125.000000 6.51643000e+09
1135.000000 6.80831000e+09
1145.000000 6.50083000e+09
1155.000000 6.69205000e+09
1165.000000 6.68091000e+09
1175.000000 5.88823000e+09
1185.000000 6.51713000e+09
1195.000000 5.98878000e+09
1205.000000 4.94150000e+09
1215.000000 1.73905000e+09
1225.000000 5.20047000e+09
1235.000000 5.94700000e+09
1245.000000 6.00254000e+09
1255.000000 5.86923000e+09
1265.000000 5.78222000e+09
1275.000000 5.85224000e+09
1285.000000 5.76197000e+09
1295.000000 5.26290000e+09
1305.000000 5.29006000e+09
1315.000000 5.54389000e+09
1325.000000 5.38048000e+09
1335.000000 5.14608000e+09
1345.000000 5.27830000e+09
1355.000000 5.27476000e+09
1365.000000 5.14053000e+09
1375.000000 5.06125000e+09
1385.000000 5.02672000e+09
1395.000000 4.80450000e+09
1405.000000 4.82643000e+09
1415.000000 4.81452000e+09
1425.000000 4.76333000e+09
1435.000000 4.72992000e+09
1442.000000 4.70983000e+09
1447.000000 4.66744000e+09
1455.000000 4.60665000e+09
1465.000000 4.52414000e+09
1475.000000 4.46889000e+09
1485.000000 4.39934000e+09
1495.000000 4.33900000e+09
1505.000000 4.23795000e+09
1512.000000 4.15250000e+09
1517.000000 4.16462000e+09
1525.000000 4.11602000e+09
1535.000000 3.96024000e+09
1545.000000 3.98347000e+09
1555.000000 3.86884000e+09
1565.000000 3.89677000e+09
1575.000000 3.88161000e+09
1585.000000 3.83174000e+09
1595.000000 3.79984000e+09
1605.000000 3.68916000e+09
1615.000000 3.64203000e+09
1625.000000 3.62616000e+09
1635.000000 3.60815000e+09
1645.000000 3.54367000e+09
1655.000000 3.50043000e+09
1665.000000 3.49017000e+09
1672.000000 3.40077000e+09
1677.000000 3.44509000e+09
1685.000000 3.40635000e+09
1695.000000 3.33677000e+09
1705.000000 3.27170000e+09
1715.000000 3.20048000e+09
1725.000000 3.16969000e+09
1735.000000 3.15253000e+09
1745.000000 3.10041000e+09
1755.000000 3.09539000e+09
1765.000000 2.97226000e+09
1775.000000 2.97784000e+09
1785.000000 2.96018000e+09
1795.000000 2.94307000e+09
1805.000000 2.91691000e+09
1815.000000 2.84792000e+09
1825.000000 2.83037000e+09
1835.000000 2.79278000e+09
1845.000000 2.68943000e+09
1855.000000 2.62417000e+09
1865.000000 2.62708000e+09
1875.000000 2.64703000e+09
1885.000000 2.52911000e+09
1895.000000 2.45014000e+09
1905.000000 2.51106000e+09
1915.000000 2.43036000e+09
1925.000000 2.39114000e+09
1935.000000 2.40905000e+09
1945.000000 2.41213000e+09
1955.000000 2.30836000e+09
1967.000000 2.34640000e+09
1976.000000 2.35788000e+09
1984.000000 2.28664000e+09
1995.000000 2.22562000e+09
2005.000000 2.24621000e+09
2015.000000 2.24244000e+09
2025.000000 2.23458000e+09
2035.000000 2.17629000e+09
2045.000000 2.15271000e+09
2055.000000 2.09613000e+09
2065.000000 2.09169000e+09
2074.000000 2.11903000e+09
2078.000000 2.06072000e+09
2085.000000 2.06320000e+09
2095.000000 2.01333000e+09
2105.000000 2.01992000e+09
2115.000000 2.00365000e+09
2125.000000 1.99868000e+09
2135.000000 1.97025000e+09
2145.000000 1.93301000e+09
2155.000000 1.92720000e+09
2165.000000 1.90502000e+09
2175.000000 1.88101000e+09
2185.000000 1.86249000e+09
2195.000000 1.84673000e+09
2205.000000 1.82359000e+09
2215.000000 1.80263000e+09
2225.000000 1.77748000e+09
2235.000000 1.76071000e+09
2245.000000 1.74550000e+09
2255.000000 1.72146000e+09
2265.000000 1.70762000e+09
2275.000000 1.68805000e+09
2285.000000 1.67288000e+09
2295.000000 1.63995000e+09
2305.000000 1.63461000e+09
2315.000000 1.61279000e+09
2325.000000 1.59755000e+09
2335.000000 1.57236000e+09
2345.000000 1.54945000e+09
2355.000000 1.54604000e+09
2365.000000 1.52262000e+09
2375.000000 1.51036000e+09
2385.000000 1.48606000e+09
2395.000000 1.47420000e+09
2405.000000 1.45949000e+09
2415.000000 1.44181000e+09
2425.000000 1.43590000e+09
2435.000000 1.41721000e+09
2445.000000 1.40350000e+09
2455.000000 1.39202000e+09
2465.000000 1.37468000e+09
2475.000000 1.36168000e+09
2485.000000 1.34709000e+09
2495.000000 1.31924000e+09
2505.000000 1.31960000e+09
2513.000000 1.29886000e+09
2518.000000 1.30119000e+09
2525.000000 1.29009000e+09
2535.000000 1.27395000e+09
2545.000000 1.25983000e+09
2555.000000 1.25426000e+09
2565.000000 1.23809000e+09
2575.000000 1.22974000e+09
2585.000000 1.21652000e+09
2595.000000 1.20358000e+09
2605.000000 1.19919000e+09
2615.000000 1.18838000e+09
2625.000000 1.17645000e+09
2635.000000 1.16054000e+09
2645.000000 1.15565000e+09
2655.000000 1.14328000e+09
2665.000000 1.12968000e+09
2675.000000 1.11940000e+09
2685.000000 1.11463000e+09
2695.000000 1.09554000e+09
2705.000000 1.09234000e+09
2715.000000 1.08104000e+09
2725.000000 1.06226000e+09
2735.000000 1.06050000e+09
2745.000000 1.04219000e+09
2755.000000 1.03384000e+09
2765.000000 1.02081000e+09
2775.000000 1.02051000e+09
2785.000000 1.01009000e+09
2795.000000 9.86621000e+08
2805.000000 9.84626000e+08
2815.000000 9.82112000e+08
2825.000000 9.64456000e+08
2835.000000 9.56117000e+08
2845.000000 9.53736000e+08
2855.000000 9.44987000e+08
2865.000000 9.36611000e+08
2875.000000 9.27555000e+08
2885.000000 9.19008000e+08
2895.000000 9.10468000e+08
2910.000000 8.97725000e+08
2930.000000 8.80640000e+08
2950.000000 8.59735000e+08
2970.000000 8.49178000e+08
2990.000000 8.33389000e+08
3010.000000 8.18525000e+08
3030.000000 8.04144000e+08
3050.000000 7.89704000e+08
3070.000000 7.75651000e+08
3090.000000 7.61658000e+08
3110.000000 7.48465000e+08
3130.000000 7.36201000e+08
3150.000000 7.23123000e+08
3170.000000 7.10316000e+08
3190.000000 6.93107000e+08
3210.000000 6.86033000e+08
3230.000000 6.74169000e+08
3250.000000 6.62651000e+08
3270.000000 6.52069000e+08
3290.000000 6.40267000e+08
3310.000000 6.30352000e+08
3330.000000 6.19814000e+08
3350.000000 6.08474000e+08
3370.000000 5.99382000e+08
3390.000000 5.89512000e+08
3410.000000 5.79863000e+08
3430.000000 5.68093000e+08
3450.000000 5.57094000e+08
3470.000000 5.49658000e+08
3490.000000 5.41335000e+08
3510.000000 5.35337000e+08
3530.000000 5.27020000e+08
3550.000000 5.18767000e+08
3570.000000 5.12291000e+08
3590.000000 5.02127000e+08
3610.000000 4.94613000e+08
3630.000000 4.86433000e+08
3640.000000 4.84958000e+08
3650.000000 4.77525000e+08
3670.000000 4.71160000e+08
3690.000000 4.53837000e+08
3710.000000 4.60480000e+08
3730.000000 4.69284000e+08
3750.000000 5.33489000e+08
3770.000000 5.37996000e+08
3790.000000 5.56094000e+08
3810.000000 5.79727000e+08
3830.000000 5.11923000e+08
3850.000000 5.89779000e+08
3870.000000 5.83322000e+08
3890.000000 4.90900000e+08
3910.000000 5.73543000e+08
3930.000000 5.61549000e+08
3950.000000 5.55587000e+08
3970.000000 4.56543000e+08
3990.000000 5.36363000e+08
4010.000000 5.28332000e+08
4030.000000 5.05843000e+08
4050.000000 5.15604000e+08
4070.000000 5.06524000e+08
4090.000000 4.81786000e+08
4110.000000 4.24186000e+08
4130.000000 4.78021000e+08
4150.000000 4.72243000e+08
4170.000000 4.67399000e+08
4190.000000 4.61575000e+08
4210.000000 4.54500000e+08
4230.000000 4.47475000e+08
4250.000000 4.40583000e+08
4270.000000 4.32953000e+08
4290.000000 4.27227000e+08
4310.000000 4.20046000e+08
4330.000000 3.93248000e+08
4350.000000 3.59040000e+08
4370.000000 4.00937000e+08
4390.000000 3.89004000e+08
4410.000000 3.90074000e+08
4430.000000 3.82701000e+08
4450.000000 3.78717000e+08
4470.000000 3.62232000e+08
4490.000000 3.67384000e+08
4510.000000 3.62318000e+08
4530.000000 3.56996000e+08
4550.000000 3.51790000e+08
4570.000000 3.46679000e+08
4590.000000 3.41734000e+08
4610.000000 3.36825000e+08
4630.000000 3.31971000e+08
4650.000000 3.27100000e+08
4670.000000 3.22611000e+08
4690.000000 3.18067000e+08
4710.000000 3.10074000e+08
4730.000000 3.08922000e+08
4750.000000 3.04406000e+08
4770.000000 3.00583000e+08
4790.000000 2.96404000e+08
4810.000000 2.92218000e+08
4830.000000 2.87623000e+08
4850.000000 2.72683000e+08
4870.000000 2.44271000e+08
4890.000000 2.75504000e+08
4910.000000 2.72685000e+08
4930.000000 2.64525000e+08
4950.000000 2.65390000e+08
4970.000000 2.61825000e+08
4990.000000 2.58293000e+08
5010.000000 2.52138000e+08
5030.000000 2.51402000e+08
5050.000000 2.46534000e+08
5070.000000 2.44754000e+08
5090.000000 2.41511000e+08
5110.000000 2.38326000e+08
5130.000000 2.35169000e+08
5150.000000 2.32082000e+08
5170.000000 2.29077000e+08
5190.000000 2.26084000e+08
5210.000000 2.23089000e+08
5230.000000 2.20257000e+08
5250.000000 2.17420000e+08
5270.000000 2.14620000e+08
5290.000000 2.11869000e+08
5310.000000 2.09167000e+08
5330.000000 2.06500000e+08
5350.000000 2.03853000e+08
5370.000000 2.01292000e+08
5390.000000 1.98751000e+08
5410.000000 1.96254000e+08
5430.000000 1.93764000e+08
5450.000000 1.91355000e+08
5470.000000 1.88976000e+08
5490.000000 1.86639000e+08
5510.000000 1.84319000e+08
5530.000000 1.82052000e+08
5550.000000 1.79813000e+08
5570.000000 1.77601000e+08
5590.000000 1.75428000e+08
5610.000000 1.73282000e+08
5630.000000 1.71185000e+08
5650.000000 1.69078000e+08
5670.000000 1.67044000e+08
5690.000000 1.65022000e+08
5710.000000 1.63071000e+08
5730.000000 1.61120000e+08
5750.000000 1.59192000e+08
5770.000000 1.57298000e+08
5790.000000 1.55438000e+08
5810.000000 1.53589000e+08
5830.000000 1.51783000e+08
5850.000000 1.49998000e+08
5870.000000 1.44714000e+08
5890.000000 1.46426000e+08
5910.000000 1.44789000e+08
5930.000000 1.43107000e+08
5950.000000 1.41444000e+08
5970.000000 1.39811000e+08
5990.000000 1.38197000e+08
6010.000000 1.36611000e+08
6030.000000 1.35043000e+08
6050.000000 1.33503000e+08
6070.000000 1.31981000e+08
6090.000000 1.30486000e+08
6110.000000 1.29007000e+08
6130.000000 1.27555000e+08
6150.000000 1.26109000e+08
6170.000000 1.24699000e+08
6190.000000 1.23305000e+08
6210.000000 1.21926000e+08
6230.000000 1.20572000e+08
6250.000000 1.19223000e+08
6270.000000 1.17907000e+08
6290.000000 1.16606000e+08
6310.000000 1.15320000e+08
6330.000000 1.14056000e+08
6350.000000 1.12778000e+08
6370.000000 1.11561000e+08
6390.000000 1.10356000e+08
6410.000000 1.09164000e+08
6430.000000 1.07976000e+08
6450.000000 1.06809000e+08
6470.000000 1.05655000e+08
6490.000000 1.04522000e+08
6510.000000 1.03409000e+08
6530.000000 1.02132000e+08
6550.000000 9.88923000e+07
6570.000000 8.83852000e+07
6590.000000 9.84935000e+07
6610.000000 9.80191000e+07
6630.000000 9.69915000e+07
6650.000000 9.60427000e+07
6670.000000 9.43413000e+07
6690.000000 9.33741000e+07
6710.000000 9.30609000e+07
6730.000000 9.20928000e+07
6750.000000 9.11427000e+07
6770.000000 9.01940000e+07
6790.000000 8.92549000e+07
6810.000000 8.83496000e+07
6830.000000 8.74372000e+07
6850.000000 8.65420000e+07
6870.000000 8.56637000e+07
6890.000000 8.47862000e+07
6910.000000 8.39252000e+07
6930.000000 8.30650000e+07
6950.000000 8.22366000e+07
6970.000000 8.14086000e+07
6990.000000 8.05734000e+07
7010.000000 7.97769000e+07
7030.000000 7.89806000e+07
7050.000000 7.81921000e+07
7070.000000 7.62881000e+07
7090.000000 7.66453000e+07
7110.000000 7.58793000e+07
7130.000000 7.51356000e+07
7150.000000 7.43916000e+07
7170.000000 7.36474000e+07
7190.000000 7.29394000e+07
7210.000000 7.22237000e+07
7230.000000 7.14341000e+07
7250.000000 7.08219000e+07
7270.000000 7.01341000e+07
7290.000000 6.89523000e+07
7310.000000 6.87715000e+07
7330.000000 6.81198000e+07
7350.000000 6.74644000e+07
7370.000000 6.68171000e+07
7390.000000 6.61772000e+07
7410.000000 6.55454000e+07
7430.000000 6.49207000e+07
7450.000000 6.43140000e+07
7470.000000 6.37034000e+07
7490.000000 6.31011000e+07
7510.000000 6.24829000e+07
7530.000000 6.19175000e+07
7550.000000 6.13361000e+07
7570.000000 6.07613000e+07
7590.000000 6.01930000e+07
7610.000000 5.96318000e+07
7630.000000 5.90769000e+07
7650.000000 5.85283000e+07
7670.000000 5.79872000e+07
7690.000000 5.74502000e+07
7710.000000 5.69168000e+07
7730.000000 5.63995000e+07
7750.000000 5.58754000e+07
7770.000000 5.53554000e+07
7790.000000 5.48654000e+07
7810.000000 5.43241000e+07
7830.000000 5.38719000e+07
7850.000000 5.34381000e+07
7870.000000 5.29540000e+07
7890.000000 5.24450000e+07
7910.000000 5.20073000e+07
7930.000000 5.14752000e+07
7950.000000 5.09584000e+07
7970.000000 5.04717000e+07
7990.000000 5.00547000e+07
8010.000000 4.95948000e+07
8030.000000 4.91810000e+07
8050.000000 4.87741000e+07
8070.000000 4.83643000e+07
8090.000000 4.78498000e+07
8110.000000 4.74640000e+07
8130.000000 4.71190000e+07
8150.000000 4.66118000e+07
8170.000000 4.63009000e+07
8190.000000 4.58662000e+07
8210.000000 4.53015000e+07
8230.000000 4.50443000e+07
8250.000000 4.46607000e+07
8270.000000 4.40687000e+07
8290.000000 4.38371000e+07
8310.000000 4.34742000e+07
8330.000000 4.30919000e+07
8350.000000 4.25351000e+07
8370.000000 4.21895000e+07
8390.000000 4.18613000e+07
8410.000000 4.14445000e+07
8430.000000 4.10854000e+07
8450.000000 4.06120000e+07
8470.000000 3.99431000e+07
8490.000000 4.04247000e+07
8510.000000 3.90462000e+07
8530.000000 4.00749000e+07
8550.000000 3.77139000e+07
8570.000000 4.01428000e+07
8590.000000 3.78735000e+07
8610.000000 3.75047000e+07
8630.000000 3.97019000e+07
8650.000000 3.85901000e+07
8670.000000 3.49711000e+07
8690.000000 3.89645000e+07
8710.000000 3.90330000e+07
8730.000000 3.79048000e+07
8750.000000 3.36516000e+07
8770.000000 3.69422000e+07
8790.000000 3.78226000e+07
8810.000000 3.74996000e+07
8830.000000 3.71676000e+07
8850.000000 3.51869000e+07
8870.000000 3.22359000e+07
8890.000000 3.60522000e+07
8910.000000 3.60148000e+07
8930.000000 3.57361000e+07
8950.000000 3.55474000e+07
8970.000000 3.52224000e+07
8990.000000 3.44547000e+07
9010.000000 3.08121000e+07
9030.000000 3.25409000e+07
9050.000000 3.39672000e+07
9070.000000 3.35831000e+07
9090.000000 3.34788000e+07
9110.000000 3.33129000e+07
9130.000000 3.30667000e+07
9150.000000 3.28022000e+07
9170.000000 3.24541000e+07
9190.000000 3.21894000e+07
9210.000000 3.11100000e+07
9230.000000 2.76207000e+07
9250.000000 3.07587000e+07
9270.000000 3.11474000e+07
9290.000000 3.10209000e+07
9310.000000 3.06522000e+07
9330.000000 3.05343000e+07
9350.000000 3.02719000e+07
9370.000000 3.00583000e+07
9390.000000 2.98232000e+07
9410.000000 2.95868000e+07
9430.000000 2.93601000e+07
9450.000000 2.91318000e+07
9470.000000 2.87514000e+07
9490.000000 2.86809000e+07
9510.000000 2.81493000e+07
9530.000000 2.72506000e+07
9550.000000 2.44487000e+07
9570.000000 2.73412000e+07
9590.000000 2.75145000e+07
9610.000000 2.72993000e+07
9630.000000 2.70536000e+07
9650.000000 2.69671000e+07
9670.000000 2.67618000e+07
9690.000000 2.65334000e+07
9710.000000 2.62824000e+07
9730.000000 2.61582000e+07
9750.000000 2.59602000e+07
9770.000000 2.57648000e+07
9790.000000 2.55708000e+07
9810.000000 2.53786000e+07
9830.000000 2.51885000e+07
9850.000000 2.50001000e+07
9870.000000 2.48134000e+07
9890.000000 2.46284000e+07
9910.000000 2.44397000e+07
9930.000000 2.42635000e+07
9950.000000 2.40834000e+07
9970.000000 2.39054000e+07
9990.000000 2.37283000e+07
10025.000000 2.27123000e+07
10075.000000 2.20009000e+07
10125.000000 2.25367000e+07
10175.000000 2.21706000e+07
10225.000000 2.17619000e+07
10275.000000 2.13818000e+07
10325.000000 2.09360000e+07
10375.000000 2.06276000e+07
10425.000000 2.02631000e+07
10475.000000 1.99064000e+07
10525.000000 1.95579000e+07
10575.000000 1.92167000e+07
10625.000000 1.88831000e+07
10675.000000 1.85261000e+07
10725.000000 1.82372000e+07
10775.000000 1.79246000e+07
10825.000000 1.74359000e+07
10875.000000 1.73021000e+07
10925.000000 1.59579000e+07
10975.000000 1.65260000e+07
11025.000000 1.63792000e+07
11075.000000 1.61794000e+07
11125.000000 1.59138000e+07
11175.000000 1.56501000e+07
11225.000000 1.53836000e+07
11275.000000 1.51387000e+07
11325.000000 1.48911000e+07
11375.000000 1.46487000e+07
11425.000000 1.44108000e+07
11475.000000 1.41779000e+07
11525.000000 1.39496000e+07
11575.000000 1.37259000e+07
11625.000000 1.35069000e+07
11675.000000 1.32919000e+07
11725.000000 1.30813000e+07
11775.000000 1.28748000e+07
11825.000000 1.26726000e+07
11875.000000 1.24742000e+07
11925.000000 1.22795000e+07
11975.000000 1.20169000e+07
12025.000000 1.19018000e+07
12075.000000 1.17185000e+07
12125.000000 1.15385000e+07
12175.000000 1.13621000e+07
12225.000000 1.11889000e+07
12275.000000 1.10192000e+07
12325.000000 1.08526000e+07
12375.000000 1.06890000e+07
12425.000000 1.05288000e+07
12475.000000 1.03712000e+07
12525.000000 1.01997000e+07
12575.000000 1.00654000e+07
12625.000000 9.91656000e+06
12675.000000 9.77047000e+06
12725.000000 9.62707000e+06
12775.000000 9.37919000e+06
12825.000000 8.78833000e+06
12875.000000 9.18588000e+06
12925.000000 9.07931000e+06
12975.000000 8.90721000e+06
13025.000000 8.82030000e+06
13075.000000 8.69413000e+06
