# Kurucz ODFNEW /NOVER, alpha: 0.0 (2003)
# teff = 10000 K (value for the effective temperature for the model. Temperatures are given in K)
# logg = 4 log(cm/s2) (value for Log(G) for the model.)
# lh = 1.25  (l/Hp where l is the  mixing length of the convective element and Hp is the pressure scale height)
# meta = 0.2  (value for the Metallicity for the model.)
# vtur = 2 km/s (Microturbulence velocity)
# alpha = 0  (Alpha)
#
# column 1: WAVELENGTH (ANGSTROM), Wavelength in Angstrom
# column 2: FLUX (ERG/CM2/S/A), Flux in erg/cm2/s/A
273.500000 4.29917000e-23
278.500000 1.80938000e-22
284.000000 7.63632000e-22
290.000000 3.38017000e-21
296.000000 1.40551000e-20
301.000000 4.44211000e-20
308.000000 2.10060000e-19
318.000000 1.72919000e-18
328.000000 1.26241000e-17
338.000000 8.25419000e-17
348.000000 4.89172000e-16
357.000000 2.24621000e-15
366.000000 9.59794000e-15
375.000000 3.83333000e-14
385.000000 1.66414000e-13
395.000000 6.73248000e-13
405.000000 2.55264000e-12
414.000000 8.03723000e-12
422.000000 2.14000000e-11
430.000000 5.48692000e-11
441.000000 1.90725000e-10
451.000000 5.61776000e-10
460.000000 1.42760000e-09
470.000000 3.85751000e-09
480.000000 1.00031000e-08
490.000000 2.50028000e-08
500.000000 6.01953000e-08
506.000000 1.22841000e-07
512.000000 2.16184000e-07
520.000000 4.04775000e-07
530.000000 8.66746000e-07
540.000000 1.79050000e-06
550.000000 3.63429000e-06
560.000000 7.17792000e-06
570.000000 1.38401000e-05
580.000000 2.59645000e-05
590.000000 4.80419000e-05
600.000000 8.67231000e-05
610.000000 1.53840000e-04
620.000000 2.67592000e-04
630.000000 4.57021000e-04
640.000000 7.66850000e-04
650.000000 1.26742000e-03
658.000000 1.87371000e-03
665.000000 2.61566000e-03
675.000000 4.16174000e-03
685.000000 6.52818000e-03
695.000000 1.01033000e-02
705.000000 1.54345000e-02
716.000000 2.42790000e-02
726.000000 3.61658000e-02
735.000000 5.12592000e-02
745.000000 7.47316000e-02
755.000000 1.07879000e-01
765.000000 1.54110000e-01
775.000000 2.18006000e-01
785.000000 3.05498000e-01
795.000000 4.24042000e-01
805.000000 5.83908000e-01
815.000000 7.97330000e-01
825.000000 1.07967000e+00
835.000000 1.45013000e+00
845.000000 1.93381000e+00
855.000000 2.56007000e+00
865.000000 3.36518000e+00
875.000000 4.39257000e+00
885.000000 5.69742000e+00
895.000000 7.34247000e+00
905.000000 9.40415000e+00
915.000000 2.22278000e+02
925.000000 1.58401000e+03
935.000000 2.46423000e+03
945.000000 3.75601000e+03
955.000000 5.38477000e+03
965.000000 6.94333000e+03
975.000000 6.38672000e+03
985.000000 9.29335000e+03
995.000000 1.00588000e+04
1005.000000 1.26101000e+04
1015.000000 1.45744000e+04
1025.000000 1.23253000e+04
1035.000000 1.87921000e+04
1045.000000 2.23173000e+04
1055.000000 2.55808000e+04
1065.000000 2.78631000e+04
1075.000000 3.29126000e+04
1085.000000 3.73201000e+04
1095.000000 4.00726000e+04
1105.000000 6.67300000e+04
1115.000000 4.24115000e+05
1125.000000 7.83865000e+05
1135.000000 1.34216000e+06
1145.000000 1.26186000e+06
1155.000000 1.63722000e+06
1165.000000 1.72709000e+06
1175.000000 1.25165000e+06
1185.000000 9.17205000e+05
1195.000000 1.76577000e+05
1205.000000 1.80394000e+05
1215.000000 4.01145000e+04
1225.000000 1.84691000e+05
1235.000000 4.09302000e+05
1245.000000 1.42754000e+06
1255.000000 1.42031000e+07
1265.000000 1.57526000e+07
1275.000000 3.89006000e+07
1285.000000 6.16260000e+07
1295.000000 5.80811000e+07
1305.000000 2.45877000e+07
1315.000000 6.34758000e+07
1325.000000 7.90078000e+07
1335.000000 6.88131000e+07
1345.000000 9.36688000e+07
1355.000000 8.74776000e+07
1365.000000 7.53894000e+07
1375.000000 8.52681000e+07
1385.000000 7.98365000e+07
1395.000000 8.48405000e+07
1405.000000 8.94463000e+07
1415.000000 8.55693000e+07
1425.000000 9.94148000e+07
1435.000000 8.65432000e+07
1442.000000 1.01926000e+08
1447.000000 1.12081000e+08
1455.000000 1.12154000e+08
1465.000000 1.00997000e+08
1475.000000 9.60237000e+07
1485.000000 1.05361000e+08
1495.000000 1.16891000e+08
1505.000000 1.17961000e+08
1512.000000 1.01432000e+08
1517.000000 1.15624000e+08
1525.000000 1.07397000e+08
1535.000000 1.05290000e+08
1545.000000 1.33099000e+08
1555.000000 1.04056000e+08
1565.000000 9.00960000e+07
1575.000000 1.14558000e+08
1585.000000 1.33163000e+08
1595.000000 1.44540000e+08
1605.000000 1.34925000e+08
1615.000000 1.32621000e+08
1625.000000 1.15506000e+08
1635.000000 1.20891000e+08
1645.000000 1.34835000e+08
1655.000000 1.07192000e+08
1665.000000 1.31181000e+08
1672.000000 8.32593000e+07
1677.000000 1.24622000e+08
1685.000000 1.42121000e+08
1695.000000 1.26563000e+08
1705.000000 1.19396000e+08
1715.000000 1.17871000e+08
1725.000000 1.15880000e+08
1735.000000 1.26351000e+08
1745.000000 1.23575000e+08
1755.000000 1.39866000e+08
1765.000000 1.12947000e+08
1775.000000 1.29916000e+08
1785.000000 1.28902000e+08
1795.000000 1.45698000e+08
1805.000000 1.35948000e+08
1815.000000 1.35208000e+08
1825.000000 1.28279000e+08
1835.000000 1.22655000e+08
1845.000000 1.11292000e+08
1855.000000 1.19401000e+08
1865.000000 1.20561000e+08
1875.000000 1.26779000e+08
1885.000000 1.23964000e+08
1895.000000 1.24243000e+08
1905.000000 1.16465000e+08
1915.000000 1.23459000e+08
1925.000000 1.24884000e+08
1935.000000 1.19572000e+08
1945.000000 1.27239000e+08
1955.000000 1.24896000e+08
1967.000000 1.31497000e+08
1976.000000 1.30398000e+08
1984.000000 1.24965000e+08
1995.000000 1.20174000e+08
2005.000000 1.18585000e+08
2015.000000 1.11472000e+08
2025.000000 1.13057000e+08
2035.000000 1.15696000e+08
2045.000000 1.21306000e+08
2055.000000 1.14267000e+08
2065.000000 1.12015000e+08
2074.000000 1.19776000e+08
2078.000000 1.22727000e+08
2085.000000 1.20284000e+08
2095.000000 1.15181000e+08
2105.000000 1.10927000e+08
2115.000000 1.10857000e+08
2125.000000 1.13120000e+08
2135.000000 9.41116000e+07
2145.000000 1.06320000e+08
2155.000000 1.08411000e+08
2165.000000 1.02179000e+08
2175.000000 1.00214000e+08
2185.000000 1.00396000e+08
2195.000000 1.06653000e+08
2205.000000 1.01644000e+08
2215.000000 9.21816000e+07
2225.000000 8.96579000e+07
2235.000000 1.00804000e+08
2245.000000 8.97942000e+07
2255.000000 8.70511000e+07
2265.000000 8.88249000e+07
2275.000000 9.42620000e+07
2285.000000 9.74865000e+07
2295.000000 9.13602000e+07
2305.000000 8.84420000e+07
2315.000000 8.44952000e+07
2325.000000 8.37978000e+07
2335.000000 7.77128000e+07
2345.000000 7.16461000e+07
2355.000000 8.34901000e+07
2365.000000 7.18606000e+07
2375.000000 7.71208000e+07
2385.000000 6.65873000e+07
2395.000000 7.47610000e+07
2405.000000 7.03434000e+07
2415.000000 7.30693000e+07
2425.000000 7.90856000e+07
2435.000000 7.52668000e+07
2445.000000 8.09606000e+07
2455.000000 7.75771000e+07
2465.000000 7.73395000e+07
2475.000000 7.38806000e+07
2485.000000 7.83081000e+07
2495.000000 7.51277000e+07
2505.000000 8.40809000e+07
2513.000000 7.39181000e+07
2518.000000 7.59124000e+07
2525.000000 7.00855000e+07
2535.000000 6.91936000e+07
2545.000000 6.87963000e+07
2555.000000 7.39779000e+07
2565.000000 7.32361000e+07
2575.000000 7.90546000e+07
2585.000000 7.87091000e+07
2595.000000 7.65708000e+07
2605.000000 7.29806000e+07
2615.000000 7.21040000e+07
2625.000000 7.73838000e+07
2635.000000 7.76711000e+07
2645.000000 8.71547000e+07
2655.000000 8.56710000e+07
2665.000000 7.72531000e+07
2675.000000 8.13517000e+07
2685.000000 8.00100000e+07
2695.000000 7.69536000e+07
2705.000000 7.92020000e+07
2715.000000 7.48938000e+07
2725.000000 7.58063000e+07
2735.000000 8.19463000e+07
2745.000000 6.83910000e+07
2755.000000 6.91661000e+07
2765.000000 7.13326000e+07
2775.000000 7.73113000e+07
2785.000000 7.51737000e+07
2795.000000 5.53567000e+07
2805.000000 6.32940000e+07
2815.000000 7.86146000e+07
2825.000000 8.03202000e+07
2835.000000 7.65484000e+07
2845.000000 7.35258000e+07
2855.000000 7.11259000e+07
2865.000000 7.64040000e+07
2875.000000 7.38179000e+07
2885.000000 7.53393000e+07
2895.000000 7.18485000e+07
2910.000000 7.99807000e+07
2930.000000 7.63912000e+07
2950.000000 7.61164000e+07
2970.000000 7.72345000e+07
2990.000000 7.75068000e+07
3010.000000 7.86757000e+07
3030.000000 7.74066000e+07
3050.000000 7.63705000e+07
3070.000000 7.53747000e+07
3090.000000 7.62723000e+07
3110.000000 7.40987000e+07
3130.000000 7.35855000e+07
3150.000000 7.45030000e+07
3170.000000 7.37758000e+07
3190.000000 7.08619000e+07
3210.000000 7.21534000e+07
3230.000000 7.04862000e+07
3250.000000 7.10302000e+07
3270.000000 7.09497000e+07
3290.000000 7.12939000e+07
3310.000000 7.13427000e+07
3330.000000 6.96628000e+07
3350.000000 6.84743000e+07
3370.000000 6.83008000e+07
3390.000000 6.76547000e+07
3410.000000 6.85481000e+07
3430.000000 6.81737000e+07
3450.000000 6.75470000e+07
3470.000000 6.65516000e+07
3490.000000 6.60848000e+07
3510.000000 6.65234000e+07
3530.000000 6.64459000e+07
3550.000000 6.62404000e+07
3570.000000 6.49357000e+07
3590.000000 6.44948000e+07
3610.000000 6.41175000e+07
3630.000000 6.37503000e+07
3640.000000 6.33436000e+07
3650.000000 6.45099000e+07
3670.000000 6.40856000e+07
3690.000000 6.16580000e+07
3710.000000 6.25168000e+07
3730.000000 6.36489000e+07
3750.000000 8.08967000e+07
3770.000000 8.70939000e+07
3790.000000 1.10049000e+08
3810.000000 1.29080000e+08
3830.000000 1.00605000e+08
3850.000000 1.40973000e+08
3870.000000 1.60068000e+08
3890.000000 8.69644000e+07
3910.000000 1.57731000e+08
3930.000000 1.61406000e+08
3950.000000 1.57127000e+08
3970.000000 8.24049000e+07
3990.000000 1.50061000e+08
4010.000000 1.63389000e+08
4030.000000 1.61818000e+08
4050.000000 1.60352000e+08
4070.000000 1.53354000e+08
4090.000000 1.19752000e+08
4110.000000 9.00024000e+07
4130.000000 1.43916000e+08
4150.000000 1.49834000e+08
4170.000000 1.47774000e+08
4190.000000 1.46247000e+08
4210.000000 1.44637000e+08
4230.000000 1.41637000e+08
4250.000000 1.39579000e+08
4270.000000 1.36332000e+08
4290.000000 1.35468000e+08
4310.000000 1.27732000e+08
4330.000000 9.58998000e+07
4350.000000 8.09821000e+07
4370.000000 1.23674000e+08
4390.000000 1.24770000e+08
4410.000000 1.24492000e+08
4430.000000 1.23115000e+08
4450.000000 1.23053000e+08
4470.000000 1.21155000e+08
4490.000000 1.18095000e+08
4510.000000 1.18225000e+08
4530.000000 1.16124000e+08
4550.000000 1.13325000e+08
4570.000000 1.13948000e+08
4590.000000 1.11393000e+08
4610.000000 1.11926000e+08
4630.000000 1.08617000e+08
4650.000000 1.08948000e+08
4670.000000 1.07234000e+08
4690.000000 1.04888000e+08
4710.000000 1.01600000e+08
4730.000000 1.03223000e+08
4750.000000 1.01846000e+08
4770.000000 1.00570000e+08
4790.000000 9.90684000e+07
4810.000000 9.67873000e+07
4830.000000 9.25913000e+07
4850.000000 7.15694000e+07
4870.000000 5.74047000e+07
4890.000000 8.72325000e+07
4910.000000 9.06144000e+07
4930.000000 8.95304000e+07
4950.000000 8.95125000e+07
4970.000000 8.89186000e+07
4990.000000 8.75068000e+07
5010.000000 8.52156000e+07
5030.000000 8.50083000e+07
5050.000000 8.34056000e+07
5070.000000 8.34084000e+07
5090.000000 8.24256000e+07
5110.000000 8.13257000e+07
5130.000000 8.04438000e+07
5150.000000 7.90659000e+07
5170.000000 7.73589000e+07
5190.000000 7.66603000e+07
5210.000000 7.63435000e+07
5230.000000 7.48008000e+07
5250.000000 7.48497000e+07
5270.000000 7.28096000e+07
5290.000000 7.32038000e+07
5310.000000 7.16219000e+07
5330.000000 7.08666000e+07
5350.000000 7.08353000e+07
5370.000000 6.98213000e+07
5390.000000 6.90500000e+07
5410.000000 6.79457000e+07
5430.000000 6.73886000e+07
5450.000000 6.69139000e+07
5470.000000 6.60868000e+07
5490.000000 6.54137000e+07
5510.000000 6.46444000e+07
5530.000000 6.38721000e+07
5550.000000 6.33270000e+07
5570.000000 6.25852000e+07
5590.000000 6.19429000e+07
5610.000000 6.13680000e+07
5630.000000 6.07022000e+07
5650.000000 5.99073000e+07
5670.000000 5.92675000e+07
5690.000000 5.87143000e+07
5710.000000 5.81026000e+07
5730.000000 5.75176000e+07
5750.000000 5.68299000e+07
5770.000000 5.62454000e+07
5790.000000 5.55810000e+07
5810.000000 5.50316000e+07
5830.000000 5.44530000e+07
5850.000000 5.38974000e+07
5870.000000 5.32290000e+07
5890.000000 5.23643000e+07
5910.000000 5.21798000e+07
5930.000000 5.16613000e+07
5950.000000 5.09634000e+07
5970.000000 5.05285000e+07
5990.000000 4.98882000e+07
6010.000000 4.94451000e+07
6030.000000 4.90088000e+07
6050.000000 4.84558000e+07
6070.000000 4.80011000e+07
6090.000000 4.75045000e+07
6110.000000 4.70093000e+07
6130.000000 4.64985000e+07
6150.000000 4.54795000e+07
6170.000000 4.55324000e+07
6190.000000 4.51482000e+07
6210.000000 4.46928000e+07
6230.000000 4.42044000e+07
6250.000000 4.34648000e+07
6270.000000 4.33691000e+07
6290.000000 4.29338000e+07
6310.000000 4.24151000e+07
6330.000000 4.20619000e+07
6350.000000 4.12200000e+07
6370.000000 4.09615000e+07
6390.000000 4.08006000e+07
6410.000000 4.03364000e+07
6430.000000 3.99993000e+07
6450.000000 3.92780000e+07
6470.000000 3.91418000e+07
6490.000000 3.85467000e+07
6510.000000 3.79991000e+07
6530.000000 3.68293000e+07
6550.000000 3.17690000e+07
6570.000000 2.55302000e+07
6590.000000 3.46879000e+07
6610.000000 3.60363000e+07
6630.000000 3.60549000e+07
6650.000000 3.58435000e+07
6670.000000 3.55374000e+07
6690.000000 3.52781000e+07
6710.000000 3.49744000e+07
6730.000000 3.45872000e+07
6750.000000 3.42982000e+07
6770.000000 3.40128000e+07
6790.000000 3.36812000e+07
6810.000000 3.33772000e+07
6830.000000 3.30351000e+07
6850.000000 3.27445000e+07
6870.000000 3.24511000e+07
6890.000000 3.21614000e+07
6910.000000 3.18548000e+07
6930.000000 3.15473000e+07
6950.000000 3.12739000e+07
6970.000000 3.09854000e+07
6990.000000 3.07181000e+07
7010.000000 3.03415000e+07
7030.000000 3.01477000e+07
7050.000000 2.98534000e+07
7070.000000 2.96101000e+07
7090.000000 2.93578000e+07
7110.000000 2.88829000e+07
7130.000000 2.87848000e+07
7150.000000 2.85282000e+07
7170.000000 2.83026000e+07
7190.000000 2.80470000e+07
7210.000000 2.78061000e+07
7230.000000 2.75415000e+07
7250.000000 2.72693000e+07
7270.000000 2.70781000e+07
7290.000000 2.68199000e+07
7310.000000 2.65810000e+07
7330.000000 2.63660000e+07
7350.000000 2.61502000e+07
7370.000000 2.59273000e+07
7390.000000 2.56885000e+07
7410.000000 2.54471000e+07
7430.000000 2.51431000e+07
7450.000000 2.49709000e+07
7470.000000 2.46808000e+07
7490.000000 2.45411000e+07
7510.000000 2.43511000e+07
7530.000000 2.41767000e+07
7550.000000 2.39847000e+07
7570.000000 2.37747000e+07
7590.000000 2.35750000e+07
7610.000000 2.33849000e+07
7630.000000 2.31790000e+07
7650.000000 2.29684000e+07
7670.000000 2.27688000e+07
7690.000000 2.25861000e+07
7710.000000 2.23861000e+07
7730.000000 2.22225000e+07
7750.000000 2.20339000e+07
7770.000000 2.14140000e+07
7790.000000 2.16748000e+07
7810.000000 2.14984000e+07
7830.000000 2.13021000e+07
7850.000000 2.10904000e+07
7870.000000 2.08568000e+07
7890.000000 2.06368000e+07
7910.000000 2.05796000e+07
7930.000000 2.04405000e+07
7950.000000 2.01644000e+07
7970.000000 2.01279000e+07
7990.000000 1.97228000e+07
8010.000000 1.97965000e+07
8030.000000 1.96290000e+07
8050.000000 1.94781000e+07
8070.000000 1.93146000e+07
8090.000000 1.91622000e+07
8110.000000 1.90077000e+07
8130.000000 1.88676000e+07
8150.000000 1.87178000e+07
8170.000000 1.85709000e+07
8190.000000 1.83136000e+07
8210.000000 1.82278000e+07
8230.000000 1.80598000e+07
8250.000000 1.80028000e+07
8270.000000 1.79813000e+07
8290.000000 1.78212000e+07
8310.000000 1.77137000e+07
8330.000000 1.75028000e+07
8350.000000 1.74461000e+07
8370.000000 1.73160000e+07
8390.000000 1.71560000e+07
8410.000000 1.69850000e+07
8430.000000 1.68265000e+07
8450.000000 1.64842000e+07
8470.000000 1.63198000e+07
8490.000000 1.64871000e+07
8510.000000 1.57298000e+07
8530.000000 1.64064000e+07
8550.000000 1.48574000e+07
8570.000000 1.64972000e+07
8590.000000 1.52559000e+07
8610.000000 1.48787000e+07
8630.000000 1.65883000e+07
8650.000000 1.57867000e+07
8670.000000 1.31063000e+07
8690.000000 1.60792000e+07
8710.000000 1.68099000e+07
8730.000000 1.59870000e+07
8750.000000 1.24751000e+07
8770.000000 1.50951000e+07
8790.000000 1.67018000e+07
8810.000000 1.68454000e+07
8830.000000 1.62744000e+07
8850.000000 1.41966000e+07
8870.000000 1.19665000e+07
8890.000000 1.53491000e+07
8910.000000 1.61866000e+07
8930.000000 1.62748000e+07
8950.000000 1.62793000e+07
8970.000000 1.59460000e+07
8990.000000 1.49862000e+07
9010.000000 1.16940000e+07
9030.000000 1.28056000e+07
9050.000000 1.49873000e+07
9070.000000 1.52144000e+07
9090.000000 1.51707000e+07
9110.000000 1.53294000e+07
9130.000000 1.52822000e+07
9150.000000 1.51889000e+07
9170.000000 1.49484000e+07
9190.000000 1.44721000e+07
9210.000000 1.32129000e+07
9230.000000 1.01814000e+07
9250.000000 1.26335000e+07
9270.000000 1.36838000e+07
9290.000000 1.42779000e+07
9310.000000 1.43071000e+07
9330.000000 1.42237000e+07
9350.000000 1.41582000e+07
9370.000000 1.40699000e+07
9390.000000 1.38785000e+07
9410.000000 1.36183000e+07
9430.000000 1.37101000e+07
9450.000000 1.36138000e+07
9470.000000 1.34643000e+07
9490.000000 1.32566000e+07
9510.000000 1.28269000e+07
9530.000000 1.15046000e+07
9550.000000 9.19203000e+06
9570.000000 1.16246000e+07
9590.000000 1.25421000e+07
9610.000000 1.26714000e+07
9630.000000 1.25275000e+07
9650.000000 1.26552000e+07
9670.000000 1.25014000e+07
9690.000000 1.24843000e+07
9710.000000 1.24541000e+07
9730.000000 1.23560000e+07
9750.000000 1.22590000e+07
9770.000000 1.21872000e+07
9790.000000 1.20970000e+07
9810.000000 1.20023000e+07
9830.000000 1.18895000e+07
9850.000000 1.18064000e+07
9870.000000 1.17207000e+07
9890.000000 1.15782000e+07
9910.000000 1.15449000e+07
9930.000000 1.14461000e+07
9950.000000 1.13594000e+07
9970.000000 1.12571000e+07
9990.000000 1.10950000e+07
10025.000000 9.92723000e+06
10075.000000 9.39433000e+06
10125.000000 1.05373000e+07
10175.000000 1.05140000e+07
10225.000000 1.03783000e+07
10275.000000 1.02019000e+07
10325.000000 1.00213000e+07
10375.000000 9.85392000e+06
10425.000000 9.69133000e+06
10475.000000 9.48985000e+06
10525.000000 9.33529000e+06
10575.000000 9.19601000e+06
10625.000000 9.05394000e+06
10675.000000 8.80006000e+06
10725.000000 8.71689000e+06
10775.000000 8.59075000e+06
10825.000000 8.42670000e+06
10875.000000 8.17769000e+06
10925.000000 6.82437000e+06
10975.000000 7.46042000e+06
11025.000000 7.87176000e+06
11075.000000 7.80330000e+06
11125.000000 7.69679000e+06
11175.000000 7.57769000e+06
11225.000000 7.46070000e+06
11275.000000 7.25480000e+06
11325.000000 7.15505000e+06
11375.000000 7.10393000e+06
11425.000000 6.98763000e+06
11475.000000 6.89797000e+06
11525.000000 6.79400000e+06
11575.000000 6.68763000e+06
11625.000000 6.55245000e+06
11675.000000 6.43260000e+06
11725.000000 6.38772000e+06
11775.000000 6.22545000e+06
11825.000000 6.16968000e+06
11875.000000 6.06627000e+06
11925.000000 6.01551000e+06
11975.000000 5.90312000e+06
12025.000000 5.83094000e+06
12075.000000 5.73805000e+06
12125.000000 5.65572000e+06
12175.000000 5.58039000e+06
12225.000000 5.49627000e+06
12275.000000 5.41008000e+06
12325.000000 5.33503000e+06
12375.000000 5.26076000e+06
12425.000000 5.19117000e+06
12475.000000 5.09929000e+06
12525.000000 5.04065000e+06
12575.000000 4.94942000e+06
12625.000000 4.88855000e+06
12675.000000 4.81793000e+06
12725.000000 4.72733000e+06
12775.000000 4.50781000e+06
12825.000000 3.85798000e+06
12875.000000 4.42897000e+06
12925.000000 4.47482000e+06
12975.000000 4.43279000e+06
13025.000000 4.38150000e+06
13075.000000 4.32205000e+06
13125.000000 4.26251000e+06
13175.000000 4.19180000e+06
13225.000000 4.14789000e+06
13275.000000 4.09190000e+06
13325.000000 4.03685000e+06
13375.000000 3.98251000e+06
13425.000000 3.92802000e+06
13475.000000 3.87465000e+06
13525.000000 3.81784000e+06
13575.000000 3.76994000e+06
13625.000000 3.72162000e+06
13675.000000 3.66988000e+06
13725.000000 3.61499000e+06
13775.000000 3.57768000e+06
13825.000000 3.53154000e+06
13875.000000 3.48794000e+06
13925.000000 3.43884000e+06
13975.000000 3.39692000e+06
14025.000000 3.35416000e+06
14075.000000 3.31155000e+06
14125.000000 3.26813000e+06
14175.000000 3.22693000e+06
14225.000000 3.18585000e+06
14275.000000 3.14564000e+06
14325.000000 3.10573000e+06
14375.000000 3.06739000e+06
14425.000000 3.00561000e+06
14475.000000 2.99027000e+06
14525.000000 2.94258000e+06
