# Kurucz ODFNEW /NOVER, alpha: 0.0 (2003)
# teff = 25000 K (value for the effective temperature for the model. Temperatures are given in K)
# logg = 3 log(cm/s2) (value for Log(G) for the model.)
# lh = 1.25  (l/Hp where l is the  mixing length of the convective element and Hp is the pressure scale height)
# meta = -2.5  (value for the Metallicity for the model.)
# vtur = 2 km/s (Microturbulence velocity)
# alpha = 0  (Alpha)
#
# column 1: WAVELENGTH (ANGSTROM), Wavelength in Angstrom
# column 2: FLUX (ERG/CM2/S/A), Flux in erg/cm2/s/A
147.200000 6.94211000e-13
151.000000 3.13382000e-12
155.200000 1.51894000e-11
158.800000 5.48046000e-11
162.000000 1.63775000e-10
166.000000 6.06587000e-10
170.300000 2.29607000e-09
173.400000 5.77494000e-09
176.800000 1.52821000e-08
180.200000 3.88609000e-08
181.700000 5.79559000e-08
186.100000 1.80842000e-07
191.000000 6.03794000e-07
193.900000 1.19280000e-06
198.400000 3.30124000e-06
201.800000 6.92435000e-06
205.000000 1.35667000e-05
210.500000 4.09069000e-05
216.200000 1.21322000e-04
219.800000 2.33631000e-04
223.000000 4.10206000e-04
226.800000 7.83439000e-04
230.000000 2.59530000e-02
234.000000 6.38024000e-02
240.000000 1.44773000e-01
246.500000 3.41753000e-01
252.400000 7.17140000e-01
256.800000 1.04770000e+00
260.000000 1.71730000e+00
264.000000 2.64569000e+00
268.500000 4.27192000e+00
273.500000 7.10929000e+00
278.500000 1.16037000e+01
284.000000 1.95170000e+01
290.000000 3.34577000e+01
296.000000 5.57724000e+01
301.000000 8.13618000e+01
308.000000 1.30762000e+02
318.000000 3.11810000e+02
328.000000 6.24813000e+02
338.000000 1.20705000e+03
348.000000 2.22891000e+03
357.000000 3.75373000e+03
366.000000 6.17533000e+03
375.000000 9.76804000e+03
385.000000 1.60241000e+04
395.000000 2.54010000e+04
405.000000 3.92933000e+04
414.000000 5.71833000e+04
422.000000 7.82487000e+04
430.000000 1.05621000e+05
441.000000 1.57546000e+05
451.000000 2.22147000e+05
460.000000 2.97128000e+05
470.000000 4.06472000e+05
480.000000 5.46127000e+05
490.000000 7.24510000e+05
500.000000 9.49057000e+05
506.000000 8.58057000e+06
512.000000 2.32179000e+07
520.000000 2.54669000e+07
530.000000 3.03248000e+07
540.000000 3.05621000e+07
550.000000 3.86817000e+07
560.000000 4.29803000e+07
570.000000 4.85145000e+07
580.000000 4.74047000e+07
590.000000 5.77075000e+07
600.000000 6.48341000e+07
610.000000 7.21719000e+07
620.000000 7.87182000e+07
630.000000 8.68765000e+07
640.000000 9.28855000e+07
650.000000 1.02675000e+08
658.000000 1.10348000e+08
665.000000 1.16616000e+08
675.000000 1.23795000e+08
685.000000 1.31800000e+08
695.000000 1.47658000e+08
705.000000 1.55490000e+08
716.000000 1.70289000e+08
726.000000 1.81276000e+08
735.000000 1.93712000e+08
745.000000 2.07898000e+08
755.000000 2.21144000e+08
765.000000 2.34564000e+08
775.000000 2.50214000e+08
785.000000 2.66072000e+08
795.000000 2.79919000e+08
805.000000 2.95890000e+08
815.000000 3.09942000e+08
825.000000 3.27985000e+08
835.000000 3.33690000e+08
845.000000 3.58930000e+08
855.000000 3.75274000e+08
865.000000 3.93745000e+08
875.000000 4.13597000e+08
885.000000 4.32191000e+08
895.000000 4.50156000e+08
905.000000 4.65263000e+08
915.000000 1.23117000e+09
925.000000 1.25480000e+10
935.000000 1.86705000e+10
945.000000 2.49183000e+10
955.000000 2.62192000e+10
965.000000 2.81799000e+10
975.000000 1.95168000e+10
985.000000 2.67804000e+10
995.000000 2.57254000e+10
1005.000000 2.64495000e+10
1015.000000 2.56164000e+10
1025.000000 2.01782000e+10
1035.000000 2.46891000e+10
1045.000000 2.59717000e+10
1055.000000 2.54803000e+10
1065.000000 2.40471000e+10
1075.000000 2.43187000e+10
1085.000000 2.31668000e+10
1095.000000 2.40187000e+10
1105.000000 2.33120000e+10
1115.000000 2.29960000e+10
1125.000000 2.19062000e+10
1135.000000 2.24761000e+10
1145.000000 2.19223000e+10
1155.000000 2.18894000e+10
1165.000000 2.16260000e+10
1175.000000 1.92053000e+10
1185.000000 2.08131000e+10
1195.000000 2.02631000e+10
1205.000000 1.92772000e+10
1215.000000 1.45322000e+10
1225.000000 1.94751000e+10
1235.000000 1.94206000e+10
1245.000000 1.89302000e+10
1255.000000 1.88606000e+10
1265.000000 1.85650000e+10
1275.000000 1.83282000e+10
1285.000000 1.80475000e+10
1295.000000 1.71983000e+10
1305.000000 1.71862000e+10
1315.000000 1.72264000e+10
1325.000000 1.68487000e+10
1335.000000 1.63721000e+10
1345.000000 1.64113000e+10
1355.000000 1.62047000e+10
1365.000000 1.59253000e+10
1375.000000 1.56731000e+10
1385.000000 1.54553000e+10
1395.000000 1.47621000e+10
1405.000000 1.46434000e+10
1415.000000 1.47074000e+10
1425.000000 1.44670000e+10
1435.000000 1.43048000e+10
1442.000000 1.41804000e+10
1447.000000 1.40622000e+10
1455.000000 1.38790000e+10
1465.000000 1.36649000e+10
1475.000000 1.34564000e+10
1485.000000 1.32624000e+10
1495.000000 1.30456000e+10
1505.000000 1.28166000e+10
1512.000000 1.26854000e+10
1517.000000 1.25955000e+10
1525.000000 1.24255000e+10
1535.000000 1.20662000e+10
1545.000000 1.18120000e+10
1555.000000 1.16131000e+10
1565.000000 1.16139000e+10
1575.000000 1.15154000e+10
1585.000000 1.13631000e+10
1595.000000 1.12024000e+10
1605.000000 1.09033000e+10
1615.000000 1.07411000e+10
1625.000000 1.06241000e+10
1635.000000 1.04721000e+10
1645.000000 1.00920000e+10
1655.000000 1.02296000e+10
1665.000000 1.00817000e+10
1672.000000 9.96339000e+09
1677.000000 9.97453000e+09
1685.000000 9.83851000e+09
1695.000000 9.67739000e+09
1705.000000 9.51574000e+09
1715.000000 9.31979000e+09
1725.000000 9.21217000e+09
1735.000000 9.13244000e+09
1745.000000 8.99071000e+09
1755.000000 8.87423000e+09
1765.000000 8.70370000e+09
1775.000000 8.60363000e+09
1785.000000 8.51164000e+09
1795.000000 8.39204000e+09
1805.000000 8.29261000e+09
1815.000000 8.15185000e+09
1825.000000 8.04082000e+09
1835.000000 7.93686000e+09
1845.000000 7.75145000e+09
1855.000000 7.56267000e+09
1865.000000 7.50388000e+09
1875.000000 7.47753000e+09
1885.000000 7.27584000e+09
1895.000000 7.10546000e+09
1905.000000 7.13508000e+09
1915.000000 6.94261000e+09
1925.000000 6.83875000e+09
1935.000000 6.80970000e+09
1945.000000 6.76754000e+09
1955.000000 6.55704000e+09
1967.000000 6.56384000e+09
1976.000000 6.52223000e+09
1984.000000 6.39336000e+09
1995.000000 6.22594000e+09
2005.000000 6.24945000e+09
2015.000000 6.19268000e+09
2025.000000 6.12377000e+09
2035.000000 6.01470000e+09
2045.000000 5.93287000e+09
2055.000000 5.58918000e+09
2065.000000 5.48879000e+09
2074.000000 5.56256000e+09
2078.000000 5.49990000e+09
2085.000000 5.59042000e+09
2095.000000 5.51194000e+09
2105.000000 5.48716000e+09
2115.000000 5.43809000e+09
2125.000000 5.37627000e+09
2135.000000 5.30296000e+09
2145.000000 5.22571000e+09
2155.000000 5.17367000e+09
2165.000000 5.09939000e+09
2175.000000 5.04185000e+09
2185.000000 4.96953000e+09
2195.000000 4.91810000e+09
2205.000000 4.85476000e+09
2215.000000 4.78354000e+09
2225.000000 4.73090000e+09
2235.000000 4.66935000e+09
2245.000000 4.61327000e+09
2255.000000 4.54459000e+09
2265.000000 4.49779000e+09
2275.000000 4.44159000e+09
2285.000000 4.38635000e+09
2295.000000 4.28191000e+09
2305.000000 4.26852000e+09
2315.000000 4.22300000e+09
2325.000000 4.17093000e+09
2335.000000 4.11822000e+09
2345.000000 4.06960000e+09
2355.000000 4.01990000e+09
2365.000000 3.97069000e+09
2375.000000 3.92149000e+09
2385.000000 3.86536000e+09
2395.000000 3.82619000e+09
2405.000000 3.78050000e+09
2415.000000 3.73401000e+09
2425.000000 3.68995000e+09
2435.000000 3.64471000e+09
2445.000000 3.60154000e+09
2455.000000 3.55876000e+09
2465.000000 3.51624000e+09
2475.000000 3.47417000e+09
2485.000000 3.43284000e+09
2495.000000 3.31496000e+09
2505.000000 3.35189000e+09
2513.000000 3.29801000e+09
2518.000000 3.29930000e+09
2525.000000 3.27377000e+09
2535.000000 3.23550000e+09
2545.000000 3.19355000e+09
2555.000000 3.15948000e+09
2565.000000 3.12362000e+09
2575.000000 3.08758000e+09
2585.000000 3.05190000e+09
2595.000000 3.01679000e+09
2605.000000 2.99578000e+09
2615.000000 2.96107000e+09
2625.000000 2.92477000e+09
2635.000000 2.88666000e+09
2645.000000 2.85529000e+09
2655.000000 2.82116000e+09
2665.000000 2.78735000e+09
2675.000000 2.75423000e+09
2685.000000 2.73380000e+09
2695.000000 2.68964000e+09
2705.000000 2.67252000e+09
2715.000000 2.64260000e+09
2725.000000 2.59909000e+09
2735.000000 2.57855000e+09
2745.000000 2.55520000e+09
2755.000000 2.52701000e+09
2765.000000 2.48353000e+09
2775.000000 2.47168000e+09
2785.000000 2.44435000e+09
2795.000000 2.41377000e+09
2805.000000 2.39032000e+09
2815.000000 2.36519000e+09
2825.000000 2.32327000e+09
2835.000000 2.30887000e+09
2845.000000 2.28904000e+09
2855.000000 2.26416000e+09
2865.000000 2.23984000e+09
2875.000000 2.21581000e+09
2885.000000 2.19220000e+09
2895.000000 2.16867000e+09
2910.000000 2.13405000e+09
2930.000000 2.08908000e+09
2950.000000 2.03497000e+09
2970.000000 2.00253000e+09
2990.000000 1.96091000e+09
3010.000000 1.92018000e+09
3030.000000 1.88096000e+09
3050.000000 1.84248000e+09
3070.000000 1.80500000e+09
3090.000000 1.76767000e+09
3110.000000 1.73273000e+09
3130.000000 1.69928000e+09
3150.000000 1.66505000e+09
3170.000000 1.63136000e+09
3190.000000 1.58853000e+09
3210.000000 1.56635000e+09
3230.000000 1.53676000e+09
3250.000000 1.50660000e+09
3270.000000 1.47861000e+09
3290.000000 1.44840000e+09
3310.000000 1.42228000e+09
3330.000000 1.39506000e+09
3350.000000 1.36636000e+09
3370.000000 1.34260000e+09
3390.000000 1.31730000e+09
3410.000000 1.29259000e+09
3430.000000 1.26360000e+09
3450.000000 1.23636000e+09
3470.000000 1.21674000e+09
3490.000000 1.19504000e+09
3510.000000 1.17788000e+09
3530.000000 1.15668000e+09
3550.000000 1.13588000e+09
3570.000000 1.11926000e+09
3590.000000 1.09431000e+09
3610.000000 1.07569000e+09
3630.000000 1.05520000e+09
3640.000000 1.05123000e+09
3650.000000 1.03810000e+09
3670.000000 1.02226000e+09
3690.000000 9.89654000e+08
3710.000000 9.78247000e+08
3730.000000 9.68597000e+08
3750.000000 1.03046000e+09
3770.000000 1.02149000e+09
3790.000000 1.02745000e+09
3810.000000 1.05139000e+09
3830.000000 9.61259000e+08
3850.000000 1.04033000e+09
3870.000000 1.02098000e+09
3890.000000 9.21303000e+08
3910.000000 9.95636000e+08
3930.000000 9.73820000e+08
3950.000000 9.62245000e+08
3970.000000 8.54979000e+08
3990.000000 9.29347000e+08
4010.000000 9.10916000e+08
4030.000000 8.81809000e+08
4050.000000 8.85386000e+08
4070.000000 8.70292000e+08
4090.000000 8.45226000e+08
4110.000000 7.73504000e+08
4130.000000 8.23124000e+08
4150.000000 8.10004000e+08
4170.000000 8.00389000e+08
4190.000000 7.88668000e+08
4210.000000 7.75539000e+08
4230.000000 7.63569000e+08
4250.000000 7.51269000e+08
4270.000000 7.39041000e+08
4290.000000 7.27560000e+08
4310.000000 7.15936000e+08
4330.000000 6.89646000e+08
4350.000000 6.42267000e+08
4370.000000 6.82701000e+08
4390.000000 6.64825000e+08
4410.000000 6.61598000e+08
4430.000000 6.49840000e+08
4450.000000 6.41482000e+08
4470.000000 6.19219000e+08
4490.000000 6.21937000e+08
4510.000000 6.12488000e+08
4530.000000 6.03163000e+08
4550.000000 5.93614000e+08
4570.000000 5.84984000e+08
4590.000000 5.76196000e+08
4610.000000 5.67591000e+08
4630.000000 5.59113000e+08
4650.000000 5.50219000e+08
4670.000000 5.42580000e+08
4690.000000 5.32927000e+08
4710.000000 5.22161000e+08
4730.000000 5.19001000e+08
4750.000000 5.11384000e+08
4770.000000 5.04008000e+08
4790.000000 4.96688000e+08
4810.000000 4.89489000e+08
4830.000000 4.82375000e+08
4850.000000 4.67675000e+08
4870.000000 4.30532000e+08
4890.000000 4.61709000e+08
4910.000000 4.55424000e+08
4930.000000 4.43552000e+08
4950.000000 4.42604000e+08
4970.000000 4.36395000e+08
4990.000000 4.30272000e+08
5010.000000 4.20735000e+08
5030.000000 4.18348000e+08
5050.000000 4.10875000e+08
5070.000000 4.06820000e+08
5090.000000 4.01200000e+08
5110.000000 3.95686000e+08
5130.000000 3.90259000e+08
5150.000000 3.84918000e+08
5170.000000 3.79691000e+08
5190.000000 3.74532000e+08
5210.000000 3.69469000e+08
5230.000000 3.64487000e+08
5250.000000 3.59583000e+08
5270.000000 3.54770000e+08
5290.000000 3.50032000e+08
5310.000000 3.45370000e+08
5330.000000 3.40794000e+08
5350.000000 3.36289000e+08
5370.000000 3.31855000e+08
5390.000000 3.27491000e+08
5410.000000 3.23040000e+08
5430.000000 3.18991000e+08
5450.000000 3.14841000e+08
5470.000000 3.10755000e+08
5490.000000 3.06732000e+08
5510.000000 3.02772000e+08
5530.000000 2.98886000e+08
5550.000000 2.95060000e+08
5570.000000 2.91282000e+08
5590.000000 2.87574000e+08
5610.000000 2.83935000e+08
5630.000000 2.80340000e+08
5650.000000 2.76801000e+08
5670.000000 2.73317000e+08
5690.000000 2.69851000e+08
5710.000000 2.66520000e+08
5730.000000 2.63194000e+08
5750.000000 2.59908000e+08
5770.000000 2.56706000e+08
5790.000000 2.53542000e+08
5810.000000 2.50416000e+08
5830.000000 2.47337000e+08
5850.000000 2.44317000e+08
5870.000000 2.36303000e+08
5890.000000 2.38371000e+08
5910.000000 2.35509000e+08
5930.000000 2.32659000e+08
5950.000000 2.29853000e+08
5970.000000 2.27089000e+08
5990.000000 2.24368000e+08
6010.000000 2.21688000e+08
6030.000000 2.19038000e+08
6050.000000 2.16440000e+08
6070.000000 2.13871000e+08
6090.000000 2.11351000e+08
6110.000000 2.08860000e+08
6130.000000 2.06406000e+08
6150.000000 2.03990000e+08
6170.000000 2.01601000e+08
6190.000000 1.99258000e+08
6210.000000 1.96941000e+08
6230.000000 1.94660000e+08
6250.000000 1.92413000e+08
6270.000000 1.90200000e+08
6290.000000 1.88012000e+08
6310.000000 1.85866000e+08
6330.000000 1.83744000e+08
6350.000000 1.81654000e+08
6370.000000 1.79587000e+08
6390.000000 1.77551000e+08
6410.000000 1.75546000e+08
6430.000000 1.73572000e+08
6450.000000 1.71628000e+08
6470.000000 1.69705000e+08
6490.000000 1.67811000e+08
6510.000000 1.65945000e+08
6530.000000 1.64082000e+08
6550.000000 1.60729000e+08
6570.000000 1.47411000e+08
6590.000000 1.58514000e+08
6610.000000 1.56979000e+08
6630.000000 1.55262000e+08
6650.000000 1.53639000e+08
6670.000000 1.50958000e+08
6690.000000 1.49333000e+08
6710.000000 1.48687000e+08
6730.000000 1.47072000e+08
6750.000000 1.45491000e+08
6770.000000 1.43926000e+08
6790.000000 1.42385000e+08
6810.000000 1.40859000e+08
6830.000000 1.39357000e+08
6850.000000 1.37878000e+08
6870.000000 1.36414000e+08
6890.000000 1.34964000e+08
6910.000000 1.33545000e+08
6930.000000 1.32132000e+08
6950.000000 1.30757000e+08
6970.000000 1.29387000e+08
6990.000000 1.28023000e+08
7010.000000 1.26703000e+08
7030.000000 1.25381000e+08
7050.000000 1.24087000e+08
7070.000000 1.21095000e+08
7090.000000 1.21537000e+08
7110.000000 1.20288000e+08
7130.000000 1.19050000e+08
7150.000000 1.17833000e+08
7170.000000 1.16612000e+08
7190.000000 1.15447000e+08
7210.000000 1.14271000e+08
7230.000000 1.13085000e+08
7250.000000 1.11967000e+08
7270.000000 1.10846000e+08
7290.000000 1.08941000e+08
7310.000000 1.08614000e+08
7330.000000 1.07538000e+08
7350.000000 1.06465000e+08
7370.000000 1.05410000e+08
7390.000000 1.04364000e+08
7410.000000 1.03328000e+08
7430.000000 1.02308000e+08
7450.000000 1.01312000e+08
7470.000000 1.00311000e+08
7490.000000 9.93261000e+07
7510.000000 9.83235000e+07
7530.000000 9.73966000e+07
7550.000000 9.64451000e+07
7570.000000 9.55088000e+07
7590.000000 9.45811000e+07
7610.000000 9.36683000e+07
7630.000000 9.27637000e+07
7650.000000 9.18738000e+07
7670.000000 9.09918000e+07
7690.000000 9.01178000e+07
7710.000000 8.92516000e+07
7730.000000 8.84057000e+07
7750.000000 8.75549000e+07
7770.000000 8.67366000e+07
7790.000000 8.59131000e+07
7810.000000 8.50475000e+07
7830.000000 8.43002000e+07
7850.000000 8.35777000e+07
7870.000000 8.27946000e+07
7890.000000 8.19941000e+07
7910.000000 8.12549000e+07
7930.000000 8.04501000e+07
7950.000000 7.96286000e+07
7970.000000 7.88321000e+07
7990.000000 7.81842000e+07
8010.000000 7.74009000e+07
8030.000000 7.67178000e+07
8050.000000 7.60522000e+07
8070.000000 7.53749000e+07
8090.000000 7.45595000e+07
8110.000000 7.39230000e+07
8130.000000 7.33602000e+07
8150.000000 7.25582000e+07
8170.000000 7.20454000e+07
8190.000000 7.13570000e+07
8210.000000 7.05347000e+07
8230.000000 7.00866000e+07
8250.000000 6.94704000e+07
8270.000000 6.85399000e+07
8290.000000 6.81438000e+07
8310.000000 6.75544000e+07
8330.000000 6.69317000e+07
8350.000000 6.60766000e+07
8370.000000 6.55568000e+07
8390.000000 6.50466000e+07
8410.000000 6.44234000e+07
8430.000000 6.38159000e+07
8450.000000 6.30182000e+07
8470.000000 6.22956000e+07
8490.000000 6.24676000e+07
8510.000000 6.09206000e+07
8530.000000 6.16501000e+07
8550.000000 5.90739000e+07
8570.000000 6.13529000e+07
8590.000000 5.86731000e+07
8610.000000 5.81315000e+07
8630.000000 6.02296000e+07
8650.000000 5.89092000e+07
8670.000000 5.47235000e+07
8690.000000 5.89019000e+07
8710.000000 5.87013000e+07
8730.000000 5.73550000e+07
8750.000000 5.25465000e+07
8770.000000 5.61620000e+07
8790.000000 5.68038000e+07
8810.000000 5.62793000e+07
8830.000000 5.58168000e+07
8850.000000 5.36745000e+07
8870.000000 5.00522000e+07
8890.000000 5.42365000e+07
8910.000000 5.39791000e+07
8930.000000 5.34825000e+07
8950.000000 5.31449000e+07
8970.000000 5.27209000e+07
8990.000000 5.17548000e+07
9010.000000 4.75018000e+07
9030.000000 4.97126000e+07
9050.000000 5.08960000e+07
9070.000000 5.02139000e+07
9090.000000 5.00114000e+07
9110.000000 4.97149000e+07
9130.000000 4.93301000e+07
9150.000000 4.89257000e+07
9170.000000 4.84258000e+07
9190.000000 4.81082000e+07
9210.000000 4.68024000e+07
9230.000000 4.27491000e+07
9250.000000 4.63853000e+07
9270.000000 4.65405000e+07
9290.000000 4.62050000e+07
9310.000000 4.56851000e+07
9330.000000 4.54634000e+07
9350.000000 4.50709000e+07
9370.000000 4.47371000e+07
9390.000000 4.43801000e+07
9410.000000 4.40257000e+07
9430.000000 4.36740000e+07
9450.000000 4.33248000e+07
9470.000000 4.27891000e+07
9490.000000 4.26424000e+07
9510.000000 4.19634000e+07
9530.000000 4.09960000e+07
9550.000000 3.76112000e+07
9570.000000 4.09699000e+07
9590.000000 4.09618000e+07
9610.000000 4.05782000e+07
9630.000000 4.01953000e+07
9650.000000 4.00329000e+07
9670.000000 3.97212000e+07
9690.000000 3.93829000e+07
9710.000000 3.90111000e+07
9730.000000 3.88035000e+07
9750.000000 3.85034000e+07
9770.000000 3.82066000e+07
9790.000000 3.79123000e+07
9810.000000 3.76208000e+07
9830.000000 3.73322000e+07
9850.000000 3.70464000e+07
9870.000000 3.67630000e+07
9890.000000 3.64828000e+07
9910.000000 3.62018000e+07
9930.000000 3.59296000e+07
9950.000000 3.56571000e+07
9970.000000 3.53872000e+07
9990.000000 3.51196000e+07
10025.000000 3.39474000e+07
10075.000000 3.29210000e+07
10125.000000 3.33158000e+07
10175.000000 3.27621000e+07
10225.000000 3.21470000e+07
10275.000000 3.15698000e+07
10325.000000 3.08994000e+07
10375.000000 3.04311000e+07
10425.000000 2.98813000e+07
10475.000000 2.93437000e+07
10525.000000 2.88180000e+07
10575.000000 2.83039000e+07
10625.000000 2.78015000e+07
10675.000000 2.72703000e+07
10725.000000 2.68293000e+07
10775.000000 2.63589000e+07
10825.000000 2.56369000e+07
10875.000000 2.54483000e+07
10925.000000 2.37721000e+07
10975.000000 2.44189000e+07
11025.000000 2.40545000e+07
11075.000000 2.37413000e+07
11125.000000 2.33403000e+07
11175.000000 2.29451000e+07
11225.000000 2.25471000e+07
11275.000000 2.21793000e+07
11325.000000 2.18085000e+07
11375.000000 2.14454000e+07
11425.000000 2.10899000e+07
11475.000000 2.07414000e+07
11525.000000 2.04004000e+07
11575.000000 2.00663000e+07
11625.000000 1.97385000e+07
11675.000000 1.94180000e+07
11725.000000 1.91037000e+07
11775.000000 1.87959000e+07
11825.000000 1.84942000e+07
11875.000000 1.81983000e+07
11925.000000 1.79085000e+07
11975.000000 1.75223000e+07
12025.000000 1.73459000e+07
12075.000000 1.70728000e+07
12125.000000 1.68050000e+07
12175.000000 1.65424000e+07
12225.000000 1.62851000e+07
12275.000000 1.60327000e+07
12325.000000 1.57851000e+07
12375.000000 1.55424000e+07
12425.000000 1.53041000e+07
12475.000000 1.50706000e+07
12525.000000 1.48160000e+07
12575.000000 1.46165000e+07
12625.000000 1.43960000e+07
12675.000000 1.41794000e+07
12725.000000 1.39670000e+07
12775.000000 1.36195000e+07
12825.000000 1.29129000e+07
12875.000000 1.33364000e+07
12925.000000 1.31561000e+07
12975.000000 1.29012000e+07
13025.000000 1.27728000e+07
13075.000000 1.25862000e+07
