# Kurucz ODFNEW /NOVER, alpha: 0.0 (2003)
# teff = 22000 K (value for the effective temperature for the model. Temperatures are given in K)
# logg = 3.5 log(cm/s2) (value for Log(G) for the model.)
# lh = 1.25  (l/Hp where l is the  mixing length of the convective element and Hp is the pressure scale height)
# meta = 0.5  (value for the Metallicity for the model.)
# vtur = 2 km/s (Microturbulence velocity)
# alpha = 0  (Alpha)
#
# column 1: WAVELENGTH (ANGSTROM), Wavelength in Angstrom
# column 2: FLUX (ERG/CM2/S/A), Flux in erg/cm2/s/A
147.200000 4.86598000e-18
151.000000 2.51175000e-17
155.200000 1.41087000e-16
158.800000 5.78567000e-16
162.000000 1.93231000e-15
166.000000 8.20572000e-15
170.300000 3.60374000e-14
173.400000 1.00983000e-13
176.800000 2.99532000e-13
180.200000 8.54996000e-13
181.700000 1.34306000e-12
186.100000 4.85526000e-12
191.000000 1.90487000e-11
193.900000 4.14553000e-11
198.400000 1.32842000e-10
201.800000 3.09981000e-10
205.000000 6.71721000e-10
210.500000 2.41094000e-09
216.200000 8.49169000e-09
219.800000 1.82157000e-08
223.000000 3.51972000e-08
226.800000 7.51947000e-08
230.000000 2.20618000e-06
234.000000 5.44922000e-06
240.000000 1.49102000e-05
246.500000 4.19874000e-05
252.400000 1.03896000e-04
256.800000 1.91437000e-04
260.000000 3.28139000e-04
264.000000 5.64262000e-04
268.500000 1.02433000e-03
273.500000 1.93290000e-03
278.500000 3.60564000e-03
284.000000 7.34813000e-03
290.000000 1.44783000e-02
296.000000 2.79120000e-02
301.000000 4.69493000e-02
308.000000 9.95237000e-02
318.000000 2.67511000e-01
328.000000 6.39205000e-01
338.000000 1.53509000e+00
348.000000 3.39201000e+00
357.000000 1.22077000e+01
366.000000 2.42519000e+01
375.000000 4.14007000e+01
385.000000 7.59991000e+01
395.000000 1.42714000e+02
405.000000 2.42494000e+02
414.000000 3.90388000e+02
422.000000 5.90446000e+02
430.000000 8.95654000e+02
441.000000 1.48314000e+03
451.000000 2.23314000e+03
460.000000 3.20113000e+03
470.000000 4.84854000e+03
480.000000 7.07758000e+03
490.000000 1.03038000e+04
500.000000 1.45395000e+04
506.000000 7.00957000e+04
512.000000 1.46499000e+06
520.000000 1.74474000e+06
530.000000 2.17159000e+06
540.000000 2.42574000e+06
550.000000 3.89258000e+06
560.000000 4.73122000e+06
570.000000 6.01816000e+06
580.000000 5.77245000e+06
590.000000 8.16478000e+06
600.000000 9.76190000e+06
610.000000 1.20673000e+07
620.000000 1.33610000e+07
630.000000 1.43269000e+07
640.000000 1.28397000e+07
650.000000 8.36928000e+06
658.000000 1.51322000e+07
665.000000 1.98739000e+07
675.000000 2.18402000e+07
685.000000 2.25038000e+07
695.000000 3.11874000e+07
705.000000 3.22197000e+07
716.000000 3.69376000e+07
726.000000 3.85853000e+07
735.000000 4.08909000e+07
745.000000 4.80488000e+07
755.000000 5.24351000e+07
765.000000 5.74971000e+07
775.000000 6.23961000e+07
785.000000 6.76154000e+07
795.000000 7.08843000e+07
805.000000 7.42791000e+07
815.000000 7.77252000e+07
825.000000 8.65184000e+07
835.000000 7.37870000e+07
845.000000 9.01797000e+07
855.000000 9.25094000e+07
865.000000 1.00740000e+08
875.000000 1.09103000e+08
885.000000 1.20855000e+08
895.000000 1.28075000e+08
905.000000 1.22477000e+08
915.000000 2.21171000e+08
925.000000 2.28325000e+09
935.000000 5.03455000e+09
945.000000 8.61054000e+09
955.000000 1.12268000e+10
965.000000 1.02760000e+10
975.000000 1.38811000e+09
985.000000 6.21149000e+09
995.000000 8.67065000e+09
1005.000000 1.24657000e+10
1015.000000 1.29947000e+10
1025.000000 8.22825000e+09
1035.000000 8.78745000e+09
1045.000000 1.69649000e+10
1055.000000 1.53897000e+10
1065.000000 1.09592000e+10
1075.000000 1.40553000e+10
1085.000000 1.17746000e+10
1095.000000 1.44816000e+10
1105.000000 1.21983000e+10
1115.000000 1.06892000e+10
1125.000000 8.12441000e+09
1135.000000 1.31142000e+10
1145.000000 1.17134000e+10
1155.000000 1.22819000e+10
1165.000000 1.19645000e+10
1175.000000 5.75889000e+09
1185.000000 1.15080000e+10
1195.000000 9.62991000e+09
1205.000000 4.04588000e+09
1215.000000 5.84148000e+09
1225.000000 1.01677000e+10
1235.000000 1.25251000e+10
1245.000000 1.19258000e+10
1255.000000 1.17679000e+10
1265.000000 1.19244000e+10
1275.000000 1.24512000e+10
1285.000000 1.25707000e+10
1295.000000 6.50225000e+09
1305.000000 7.30685000e+09
1315.000000 1.20512000e+10
1325.000000 1.10170000e+10
1335.000000 1.00966000e+10
1345.000000 1.13017000e+10
1355.000000 1.08694000e+10
1365.000000 9.32126000e+09
1375.000000 9.08634000e+09
1385.000000 8.65080000e+09
1395.000000 5.50606000e+09
1405.000000 6.29916000e+09
1415.000000 7.30306000e+09
1425.000000 7.58774000e+09
1435.000000 7.96863000e+09
1442.000000 8.26757000e+09
1447.000000 8.08333000e+09
1455.000000 7.75943000e+09
1465.000000 6.84607000e+09
1475.000000 7.28723000e+09
1485.000000 7.23076000e+09
1495.000000 7.03878000e+09
1505.000000 6.13987000e+09
1512.000000 5.29893000e+09
1517.000000 5.59375000e+09
1525.000000 5.92886000e+09
1535.000000 4.79645000e+09
1545.000000 4.61351000e+09
1555.000000 4.59144000e+09
1565.000000 5.04254000e+09
1575.000000 5.45801000e+09
1585.000000 5.67548000e+09
1595.000000 5.49658000e+09
1605.000000 5.79713000e+09
1615.000000 5.75719000e+09
1625.000000 5.52021000e+09
1635.000000 6.11651000e+09
1645.000000 6.10544000e+09
1655.000000 5.92611000e+09
1665.000000 6.28130000e+09
1672.000000 5.88815000e+09
1677.000000 6.49595000e+09
1685.000000 6.43335000e+09
1695.000000 5.91196000e+09
1705.000000 5.80096000e+09
1715.000000 5.32069000e+09
1725.000000 5.30602000e+09
1735.000000 5.70834000e+09
1745.000000 5.46927000e+09
1755.000000 5.59757000e+09
1765.000000 5.46744000e+09
1775.000000 5.04371000e+09
1785.000000 5.26604000e+09
1795.000000 5.60962000e+09
1805.000000 5.75323000e+09
1815.000000 4.76884000e+09
1825.000000 5.15547000e+09
1835.000000 4.92982000e+09
1845.000000 4.38338000e+09
1855.000000 4.31172000e+09
1865.000000 4.42352000e+09
1875.000000 4.97398000e+09
1885.000000 4.23240000e+09
1895.000000 3.88225000e+09
1905.000000 4.46300000e+09
1915.000000 3.93718000e+09
1925.000000 3.75537000e+09
1935.000000 4.15142000e+09
1945.000000 4.21500000e+09
1955.000000 3.70734000e+09
1967.000000 4.25133000e+09
1976.000000 4.41569000e+09
1984.000000 4.07350000e+09
1995.000000 3.96548000e+09
2005.000000 4.31746000e+09
2015.000000 4.16105000e+09
2025.000000 4.37059000e+09
2035.000000 3.86798000e+09
2045.000000 4.07121000e+09
2055.000000 3.87905000e+09
2065.000000 3.80411000e+09
2074.000000 4.16634000e+09
2078.000000 3.54789000e+09
2085.000000 3.92733000e+09
2095.000000 3.66590000e+09
2105.000000 3.82670000e+09
2115.000000 3.88863000e+09
2125.000000 3.90551000e+09
2135.000000 3.82480000e+09
2145.000000 3.60401000e+09
2155.000000 3.82203000e+09
2165.000000 3.84861000e+09
2175.000000 3.82015000e+09
2185.000000 3.59123000e+09
2195.000000 3.72951000e+09
2205.000000 3.73171000e+09
2215.000000 3.61739000e+09
2225.000000 3.50436000e+09
2235.000000 3.50180000e+09
2245.000000 3.55327000e+09
2255.000000 3.37447000e+09
2265.000000 3.49924000e+09
2275.000000 3.44606000e+09
2285.000000 3.48335000e+09
2295.000000 3.05724000e+09
2305.000000 3.33092000e+09
2315.000000 3.17778000e+09
2325.000000 3.13914000e+09
2335.000000 2.98289000e+09
2345.000000 3.02869000e+09
2355.000000 3.04772000e+09
2365.000000 3.00745000e+09
2375.000000 2.96481000e+09
2385.000000 2.92808000e+09
2395.000000 2.94039000e+09
2405.000000 2.83008000e+09
2415.000000 2.86599000e+09
2425.000000 2.86995000e+09
2435.000000 2.74597000e+09
2445.000000 2.80863000e+09
2455.000000 2.82812000e+09
2465.000000 2.74613000e+09
2475.000000 2.68930000e+09
2485.000000 2.65678000e+09
2495.000000 2.23241000e+09
2505.000000 2.57370000e+09
2513.000000 2.44041000e+09
2518.000000 2.58807000e+09
2525.000000 2.51347000e+09
2535.000000 2.48541000e+09
2545.000000 2.36064000e+09
2555.000000 2.45883000e+09
2565.000000 2.41948000e+09
2575.000000 2.46959000e+09
2585.000000 2.42797000e+09
2595.000000 2.40845000e+09
2605.000000 2.39027000e+09
2615.000000 2.35197000e+09
2625.000000 2.34224000e+09
2635.000000 2.33350000e+09
2645.000000 2.32310000e+09
2655.000000 2.33177000e+09
2665.000000 2.18705000e+09
2675.000000 2.23838000e+09
2685.000000 2.22075000e+09
2695.000000 2.12763000e+09
2705.000000 2.06086000e+09
2715.000000 2.07841000e+09
2725.000000 2.09672000e+09
2735.000000 2.09260000e+09
2745.000000 2.00793000e+09
2755.000000 2.00783000e+09
2765.000000 2.00309000e+09
2775.000000 2.03946000e+09
2785.000000 2.00191000e+09
2795.000000 1.91769000e+09
2805.000000 1.95048000e+09
2815.000000 1.95885000e+09
2825.000000 1.94199000e+09
2835.000000 1.83016000e+09
2845.000000 1.85469000e+09
2855.000000 1.82652000e+09
2865.000000 1.85454000e+09
2875.000000 1.83278000e+09
2885.000000 1.81222000e+09
2895.000000 1.77338000e+09
2910.000000 1.75043000e+09
2930.000000 1.73324000e+09
2950.000000 1.67601000e+09
2970.000000 1.65744000e+09
2990.000000 1.62417000e+09
3010.000000 1.55659000e+09
3030.000000 1.57070000e+09
3050.000000 1.54563000e+09
3070.000000 1.52504000e+09
3090.000000 1.45869000e+09
3110.000000 1.45810000e+09
3130.000000 1.42418000e+09
3150.000000 1.40539000e+09
3170.000000 1.36144000e+09
3190.000000 1.33872000e+09
3210.000000 1.32264000e+09
3230.000000 1.29226000e+09
3250.000000 1.27648000e+09
3270.000000 1.24703000e+09
3290.000000 1.22311000e+09
3310.000000 1.20242000e+09
3330.000000 1.17603000e+09
3350.000000 1.15766000e+09
3370.000000 1.13401000e+09
3390.000000 1.11939000e+09
3410.000000 1.09985000e+09
3430.000000 1.07451000e+09
3450.000000 1.05231000e+09
3470.000000 1.03468000e+09
3490.000000 1.01388000e+09
3510.000000 9.97774000e+08
3530.000000 9.87679000e+08
3550.000000 9.69856000e+08
3570.000000 9.56005000e+08
3590.000000 9.24249000e+08
3610.000000 9.07994000e+08
3630.000000 9.00446000e+08
3640.000000 9.00510000e+08
3650.000000 8.85289000e+08
3670.000000 8.76897000e+08
3690.000000 8.52726000e+08
3710.000000 8.26259000e+08
3730.000000 8.07511000e+08
3750.000000 8.76155000e+08
3770.000000 8.72662000e+08
3790.000000 9.02004000e+08
3810.000000 9.35303000e+08
3830.000000 8.25220000e+08
3850.000000 9.31778000e+08
3870.000000 9.12060000e+08
3890.000000 7.87039000e+08
3910.000000 9.15352000e+08
3930.000000 8.76642000e+08
3950.000000 8.73027000e+08
3970.000000 7.29800000e+08
3990.000000 8.44299000e+08
4010.000000 8.37726000e+08
4030.000000 7.95170000e+08
4050.000000 8.06078000e+08
4070.000000 7.65517000e+08
4090.000000 7.31654000e+08
4110.000000 6.62886000e+08
4130.000000 7.33541000e+08
4150.000000 7.28566000e+08
4170.000000 7.26729000e+08
4190.000000 7.22104000e+08
4210.000000 7.16768000e+08
4230.000000 6.99416000e+08
4250.000000 6.78979000e+08
4270.000000 6.58149000e+08
4290.000000 6.52518000e+08
4310.000000 6.30069000e+08
4330.000000 5.91128000e+08
4350.000000 5.48316000e+08
4370.000000 5.98525000e+08
4390.000000 6.02819000e+08
4410.000000 5.96414000e+08
4430.000000 5.90120000e+08
4450.000000 5.83438000e+08
4470.000000 5.61807000e+08
4490.000000 5.66063000e+08
4510.000000 5.63184000e+08
4530.000000 5.52659000e+08
4550.000000 5.47211000e+08
4570.000000 5.37688000e+08
4590.000000 5.29042000e+08
4610.000000 5.13932000e+08
4630.000000 5.06725000e+08
4650.000000 4.91991000e+08
4670.000000 4.93850000e+08
4690.000000 4.91548000e+08
4710.000000 4.70213000e+08
4730.000000 4.70994000e+08
4750.000000 4.64181000e+08
4770.000000 4.67267000e+08
4790.000000 4.57347000e+08
4810.000000 4.46550000e+08
4830.000000 4.40534000e+08
4850.000000 4.20652000e+08
4870.000000 3.77636000e+08
4890.000000 4.23567000e+08
4910.000000 4.18670000e+08
4930.000000 4.04802000e+08
4950.000000 4.05135000e+08
4970.000000 4.03437000e+08
4990.000000 3.95791000e+08
5010.000000 3.75152000e+08
5030.000000 3.83000000e+08
5050.000000 3.72748000e+08
5070.000000 3.73800000e+08
5090.000000 3.67582000e+08
5110.000000 3.60396000e+08
5130.000000 3.49733000e+08
5150.000000 3.48144000e+08
5170.000000 3.47823000e+08
5190.000000 3.43511000e+08
5210.000000 3.35855000e+08
5230.000000 3.33360000e+08
5250.000000 3.29581000e+08
5270.000000 3.23530000e+08
5290.000000 3.21102000e+08
5310.000000 3.15975000e+08
5330.000000 3.11792000e+08
5350.000000 3.06793000e+08
5370.000000 3.04447000e+08
5390.000000 3.00091000e+08
5410.000000 2.96653000e+08
5430.000000 2.91546000e+08
5450.000000 2.87800000e+08
5470.000000 2.83785000e+08
5490.000000 2.80559000e+08
5510.000000 2.78029000e+08
5530.000000 2.73139000e+08
5550.000000 2.71199000e+08
5570.000000 2.67166000e+08
5590.000000 2.64474000e+08
5610.000000 2.60473000e+08
5630.000000 2.57924000e+08
5650.000000 2.51310000e+08
5670.000000 2.47009000e+08
5690.000000 2.43938000e+08
5710.000000 2.43283000e+08
5730.000000 2.40819000e+08
5750.000000 2.36948000e+08
5770.000000 2.35761000e+08
5790.000000 2.32404000e+08
5810.000000 2.29657000e+08
5830.000000 2.25990000e+08
5850.000000 2.23753000e+08
5870.000000 2.15376000e+08
5890.000000 2.15306000e+08
5910.000000 2.14390000e+08
5930.000000 2.11372000e+08
5950.000000 2.08166000e+08
5970.000000 2.08433000e+08
5990.000000 2.04040000e+08
6010.000000 2.03091000e+08
6030.000000 1.99819000e+08
6050.000000 1.97739000e+08
6070.000000 1.96039000e+08
6090.000000 1.93656000e+08
6110.000000 1.91432000e+08
6130.000000 1.89513000e+08
6150.000000 1.85274000e+08
6170.000000 1.83986000e+08
6190.000000 1.82593000e+08
6210.000000 1.80764000e+08
6230.000000 1.78819000e+08
6250.000000 1.75651000e+08
6270.000000 1.74120000e+08
6290.000000 1.72434000e+08
6310.000000 1.70141000e+08
6330.000000 1.68720000e+08
6350.000000 1.65584000e+08
6370.000000 1.64426000e+08
6390.000000 1.62687000e+08
6410.000000 1.60977000e+08
6430.000000 1.59531000e+08
6450.000000 1.57511000e+08
6470.000000 1.55026000e+08
6490.000000 1.53410000e+08
6510.000000 1.52078000e+08
6530.000000 1.49858000e+08
6550.000000 1.45318000e+08
6570.000000 1.28515000e+08
6590.000000 1.43082000e+08
6610.000000 1.43606000e+08
6630.000000 1.42372000e+08
6650.000000 1.40784000e+08
6670.000000 1.38188000e+08
6690.000000 1.36799000e+08
6710.000000 1.36470000e+08
6730.000000 1.34488000e+08
6750.000000 1.33642000e+08
6770.000000 1.32221000e+08
6790.000000 1.28771000e+08
6810.000000 1.28885000e+08
6830.000000 1.27598000e+08
6850.000000 1.26549000e+08
6870.000000 1.25207000e+08
6890.000000 1.23703000e+08
6910.000000 1.22262000e+08
6930.000000 1.21166000e+08
6950.000000 1.20040000e+08
6970.000000 1.18817000e+08
6990.000000 1.17498000e+08
7010.000000 1.16238000e+08
7030.000000 1.15037000e+08
7050.000000 1.13771000e+08
7070.000000 1.10664000e+08
7090.000000 1.11359000e+08
7110.000000 1.08073000e+08
7130.000000 1.07201000e+08
7150.000000 1.07833000e+08
7170.000000 1.06998000e+08
7190.000000 1.06002000e+08
7210.000000 1.04915000e+08
7230.000000 1.01582000e+08
7250.000000 1.02506000e+08
7270.000000 1.01715000e+08
7290.000000 9.98674000e+07
7310.000000 9.96601000e+07
7330.000000 9.85981000e+07
7350.000000 9.77345000e+07
7370.000000 9.67748000e+07
7390.000000 9.58102000e+07
7410.000000 9.48614000e+07
7430.000000 9.37714000e+07
7450.000000 9.29292000e+07
7470.000000 9.14263000e+07
7490.000000 9.10260000e+07
7510.000000 9.01277000e+07
7530.000000 8.91512000e+07
7550.000000 8.84879000e+07
7570.000000 8.76528000e+07
7590.000000 8.67468000e+07
7610.000000 8.58295000e+07
7630.000000 8.50695000e+07
7650.000000 8.42841000e+07
7670.000000 8.34865000e+07
7690.000000 8.26770000e+07
7710.000000 8.18557000e+07
7730.000000 8.10355000e+07
7750.000000 8.03543000e+07
7770.000000 7.87930000e+07
7790.000000 7.88421000e+07
7810.000000 7.80374000e+07
7830.000000 7.73689000e+07
7850.000000 7.64738000e+07
7870.000000 7.57146000e+07
7890.000000 7.46898000e+07
7910.000000 7.43005000e+07
7930.000000 7.35667000e+07
7950.000000 7.26904000e+07
7970.000000 7.22074000e+07
7990.000000 7.12799000e+07
8010.000000 7.08774000e+07
8030.000000 7.02326000e+07
8050.000000 6.96399000e+07
8070.000000 6.90638000e+07
8090.000000 6.83198000e+07
8110.000000 6.74448000e+07
8130.000000 6.72217000e+07
8150.000000 6.65349000e+07
8170.000000 6.60910000e+07
8190.000000 6.51227000e+07
8210.000000 6.44369000e+07
8230.000000 6.36569000e+07
8250.000000 6.36199000e+07
8270.000000 6.23431000e+07
8290.000000 6.23770000e+07
8310.000000 6.18644000e+07
8330.000000 6.13776000e+07
8350.000000 6.05058000e+07
8370.000000 6.00395000e+07
8390.000000 5.96948000e+07
8410.000000 5.90863000e+07
8430.000000 5.85147000e+07
8450.000000 5.73147000e+07
8470.000000 5.72386000e+07
8490.000000 5.70059000e+07
8510.000000 5.58643000e+07
8530.000000 5.63171000e+07
8550.000000 5.40390000e+07
8570.000000 5.61825000e+07
8590.000000 5.33327000e+07
8610.000000 5.30039000e+07
8630.000000 5.53332000e+07
8650.000000 5.36477000e+07
8670.000000 4.93033000e+07
8690.000000 5.39431000e+07
8710.000000 5.41476000e+07
8730.000000 5.25701000e+07
8750.000000 4.69834000e+07
8770.000000 5.11610000e+07
8790.000000 5.24741000e+07
8810.000000 5.21681000e+07
8830.000000 5.14924000e+07
8850.000000 4.86481000e+07
8870.000000 4.46735000e+07
8890.000000 4.99893000e+07
8910.000000 4.99882000e+07
8930.000000 4.95283000e+07
8950.000000 4.93919000e+07
8970.000000 4.88769000e+07
8990.000000 4.76761000e+07
9010.000000 4.24296000e+07
9030.000000 4.49331000e+07
9050.000000 4.70736000e+07
9070.000000 4.64495000e+07
9090.000000 4.63411000e+07
9110.000000 4.61696000e+07
9130.000000 4.58275000e+07
9150.000000 4.54564000e+07
9170.000000 4.49357000e+07
9190.000000 4.45209000e+07
9210.000000 4.28186000e+07
9230.000000 3.75876000e+07
9250.000000 4.21048000e+07
9270.000000 4.25362000e+07
9290.000000 4.28517000e+07
9310.000000 4.23496000e+07
9330.000000 4.20410000e+07
9350.000000 4.18540000e+07
9370.000000 4.15451000e+07
9390.000000 4.12196000e+07
9410.000000 4.07208000e+07
9430.000000 4.05517000e+07
9450.000000 4.02127000e+07
9470.000000 3.96797000e+07
9490.000000 3.95160000e+07
9510.000000 3.87572000e+07
9530.000000 3.73839000e+07
9550.000000 3.33000000e+07
9570.000000 3.75632000e+07
9590.000000 3.79330000e+07
9610.000000 3.75285000e+07
9630.000000 3.70750000e+07
9650.000000 3.71990000e+07
9670.000000 3.68817000e+07
9690.000000 3.65635000e+07
9710.000000 3.61673000e+07
9730.000000 3.60371000e+07
9750.000000 3.57281000e+07
9770.000000 3.54952000e+07
9790.000000 3.52041000e+07
9810.000000 3.48888000e+07
9830.000000 3.46519000e+07
9850.000000 3.43882000e+07
9870.000000 3.40746000e+07
9890.000000 3.37435000e+07
9910.000000 3.33083000e+07
9930.000000 3.33569000e+07
9950.000000 3.30859000e+07
9970.000000 3.27824000e+07
9990.000000 3.25705000e+07
10025.000000 3.10228000e+07
10075.000000 2.99229000e+07
10125.000000 3.07960000e+07
10175.000000 3.04024000e+07
10225.000000 2.98409000e+07
10275.000000 2.93003000e+07
10325.000000 2.86515000e+07
10375.000000 2.82447000e+07
10425.000000 2.77374000e+07
10475.000000 2.72322000e+07
10525.000000 2.67152000e+07
10575.000000 2.62611000e+07
10625.000000 2.57976000e+07
10675.000000 2.52646000e+07
10725.000000 2.48930000e+07
10775.000000 2.44487000e+07
10825.000000 2.37202000e+07
10875.000000 2.35758000e+07
10925.000000 2.14841000e+07
10975.000000 2.24373000e+07
11025.000000 2.22513000e+07
11075.000000 2.20133000e+07
11125.000000 2.16439000e+07
11175.000000 2.12766000e+07
11225.000000 2.09075000e+07
11275.000000 2.05002000e+07
11325.000000 2.01542000e+07
11375.000000 1.98799000e+07
11425.000000 1.95247000e+07
11475.000000 1.92296000e+07
11525.000000 1.89125000e+07
11575.000000 1.85774000e+07
11625.000000 1.82805000e+07
11675.000000 1.79822000e+07
11725.000000 1.77061000e+07
11775.000000 1.73963000e+07
11825.000000 1.71391000e+07
11875.000000 1.68660000e+07
11925.000000 1.66003000e+07
11975.000000 1.61909000e+07
12025.000000 1.60755000e+07
12075.000000 1.58238000e+07
12125.000000 1.55721000e+07
12175.000000 1.53289000e+07
12225.000000 1.50908000e+07
12275.000000 1.48571000e+07
12325.000000 1.46242000e+07
12375.000000 1.43995000e+07
12425.000000 1.41816000e+07
12475.000000 1.39384000e+07
12525.000000 1.37118000e+07
12575.000000 1.35222000e+07
12625.000000 1.33265000e+07
12675.000000 1.31348000e+07
12725.000000 1.29382000e+07
12775.000000 1.25419000e+07
12825.000000 1.16646000e+07
12875.000000 1.23212000e+07
12925.000000 1.21851000e+07
12975.000000 1.19224000e+07
13025.000000 1.18266000e+07
13075.000000 1.16587000e+07
