# Kurucz ODFNEW /NOVER, alpha: 0.0 (2003)
# teff = 10000 K (value for the effective temperature for the model. Temperatures are given in K)
# logg = 3.5 log(cm/s2) (value for Log(G) for the model.)
# lh = 1.25  (l/Hp where l is the  mixing length of the convective element and Hp is the pressure scale height)
# meta = -0.5  (value for the Metallicity for the model.)
# vtur = 2 km/s (Microturbulence velocity)
# alpha = 0  (Alpha)
#
# column 1: WAVELENGTH (ANGSTROM), Wavelength in Angstrom
# column 2: FLUX (ERG/CM2/S/A), Flux in erg/cm2/s/A
268.500000 4.98261000e-23
273.500000 2.28831000e-22
278.500000 9.19405000e-22
284.000000 3.97972000e-21
290.000000 1.84329000e-20
296.000000 8.01823000e-20
301.000000 2.62065000e-19
308.000000 1.29114000e-18
318.000000 1.11867000e-17
328.000000 8.52004000e-17
338.000000 5.75890000e-16
348.000000 3.49280000e-15
357.000000 1.62428000e-14
366.000000 7.00356000e-14
375.000000 2.81157000e-13
385.000000 1.22068000e-12
395.000000 4.91263000e-12
405.000000 1.84473000e-11
414.000000 5.74119000e-11
422.000000 1.51044000e-10
430.000000 3.82821000e-10
441.000000 1.30183000e-09
451.000000 3.75338000e-09
460.000000 9.34916000e-09
470.000000 2.46997000e-08
480.000000 6.25740000e-08
490.000000 1.52454000e-07
500.000000 3.57803000e-07
506.000000 7.19908000e-07
512.000000 1.25442000e-06
520.000000 2.31736000e-06
530.000000 4.88166000e-06
540.000000 9.90039000e-06
550.000000 1.97556000e-05
560.000000 3.82255000e-05
570.000000 7.21920000e-05
580.000000 1.32550000e-04
590.000000 2.40702000e-04
600.000000 4.25934000e-04
610.000000 7.39325000e-04
620.000000 1.25936000e-03
630.000000 2.10699000e-03
640.000000 3.46571000e-03
650.000000 5.61251000e-03
658.000000 8.16005000e-03
665.000000 1.12322000e-02
675.000000 1.75166000e-02
685.000000 2.69445000e-02
695.000000 4.09085000e-02
705.000000 6.13098000e-02
716.000000 9.43778000e-02
726.000000 1.38005000e-01
735.000000 1.92463000e-01
745.000000 2.75686000e-01
755.000000 3.90856000e-01
765.000000 5.48713000e-01
775.000000 7.63150000e-01
785.000000 1.05177000e+00
795.000000 1.43605000e+00
805.000000 1.94595000e+00
815.000000 2.61500000e+00
825.000000 3.48653000e+00
835.000000 4.61191000e+00
845.000000 6.06281000e+00
855.000000 7.90899000e+00
865.000000 1.02497000e+01
875.000000 1.31940000e+01
885.000000 1.68830000e+01
895.000000 2.14687000e+01
905.000000 2.71228000e+01
915.000000 3.75575000e+02
925.000000 2.69189000e+03
935.000000 4.56398000e+03
945.000000 8.01234000e+03
955.000000 1.23846000e+04
965.000000 1.64078000e+04
975.000000 1.26351000e+04
985.000000 2.50809000e+04
995.000000 3.04211000e+04
1005.000000 3.54371000e+04
1015.000000 3.44654000e+04
1025.000000 2.19029000e+04
1035.000000 4.33693000e+04
1045.000000 6.06031000e+04
1055.000000 7.96462000e+04
1065.000000 9.00251000e+04
1075.000000 1.13069000e+05
1085.000000 1.32003000e+05
1095.000000 1.43795000e+05
1105.000000 2.09489000e+06
1115.000000 2.30260000e+07
1125.000000 3.02812000e+07
1135.000000 3.58357000e+07
1145.000000 3.15631000e+07
1155.000000 3.21626000e+07
1165.000000 2.96865000e+07
1175.000000 1.91933000e+07
1185.000000 1.36591000e+07
1195.000000 2.57530000e+05
1205.000000 1.77651000e+05
1215.000000 4.64817000e+04
1225.000000 1.85008000e+05
1235.000000 4.80414000e+05
1245.000000 6.87070000e+06
1255.000000 3.26900000e+07
1265.000000 3.75452000e+07
1275.000000 7.35927000e+07
1285.000000 1.01730000e+08
1295.000000 9.83031000e+07
1305.000000 6.28109000e+07
1315.000000 1.09710000e+08
1325.000000 1.24811000e+08
1335.000000 1.17501000e+08
1345.000000 1.43468000e+08
1355.000000 1.34601000e+08
1365.000000 1.18820000e+08
1375.000000 1.31274000e+08
1385.000000 1.31687000e+08
1395.000000 1.35547000e+08
1405.000000 1.41066000e+08
1415.000000 1.33028000e+08
1425.000000 1.41829000e+08
1435.000000 1.29704000e+08
1442.000000 1.43984000e+08
1447.000000 1.54371000e+08
1455.000000 1.54295000e+08
1465.000000 1.42196000e+08
1475.000000 1.35454000e+08
1485.000000 1.41441000e+08
1495.000000 1.49822000e+08
1505.000000 1.51254000e+08
1512.000000 1.41049000e+08
1517.000000 1.50879000e+08
1525.000000 1.41815000e+08
1535.000000 1.36767000e+08
1545.000000 1.50000000e+08
1555.000000 1.33301000e+08
1565.000000 1.21073000e+08
1575.000000 1.31319000e+08
1585.000000 1.42558000e+08
1595.000000 1.49757000e+08
1605.000000 1.40322000e+08
1615.000000 1.40086000e+08
1625.000000 1.28105000e+08
1635.000000 1.32657000e+08
1645.000000 1.37680000e+08
1655.000000 1.18440000e+08
1665.000000 1.35387000e+08
1672.000000 1.05810000e+08
1677.000000 1.27348000e+08
1685.000000 1.39017000e+08
1695.000000 1.30039000e+08
1705.000000 1.24491000e+08
1715.000000 1.23712000e+08
1725.000000 1.21902000e+08
1735.000000 1.27365000e+08
1745.000000 1.24499000e+08
1755.000000 1.33836000e+08
1765.000000 1.17860000e+08
1775.000000 1.28852000e+08
1785.000000 1.27436000e+08
1795.000000 1.35912000e+08
1805.000000 1.29993000e+08
1815.000000 1.28861000e+08
1825.000000 1.23913000e+08
1835.000000 1.20742000e+08
1845.000000 1.13450000e+08
1855.000000 1.17244000e+08
1865.000000 1.17127000e+08
1875.000000 1.22525000e+08
1885.000000 1.21324000e+08
1895.000000 1.18830000e+08
1905.000000 1.14741000e+08
1915.000000 1.17255000e+08
1925.000000 1.17849000e+08
1935.000000 1.16282000e+08
1945.000000 1.20606000e+08
1955.000000 1.18449000e+08
1967.000000 1.20854000e+08
1976.000000 1.19196000e+08
1984.000000 1.16409000e+08
1995.000000 1.13160000e+08
2005.000000 1.12418000e+08
2015.000000 1.07093000e+08
2025.000000 1.08509000e+08
2035.000000 1.09501000e+08
2045.000000 1.11730000e+08
2055.000000 1.06988000e+08
2065.000000 1.05751000e+08
2074.000000 1.09293000e+08
2078.000000 1.11342000e+08
2085.000000 1.10881000e+08
2095.000000 1.07087000e+08
2105.000000 1.05570000e+08
2115.000000 1.05029000e+08
2125.000000 1.05411000e+08
2135.000000 9.34173000e+07
2145.000000 1.01817000e+08
2155.000000 1.02440000e+08
2165.000000 9.81202000e+07
2175.000000 9.66068000e+07
2185.000000 9.61664000e+07
2195.000000 1.01086000e+08
2205.000000 9.71805000e+07
2215.000000 9.03541000e+07
2225.000000 8.86762000e+07
2235.000000 9.67008000e+07
2245.000000 8.84263000e+07
2255.000000 8.72363000e+07
2265.000000 8.76059000e+07
2275.000000 9.22967000e+07
2285.000000 9.42180000e+07
2295.000000 8.91429000e+07
2305.000000 8.75769000e+07
2315.000000 8.52122000e+07
2325.000000 8.53868000e+07
2335.000000 8.19968000e+07
2345.000000 7.65102000e+07
2355.000000 8.38637000e+07
2365.000000 7.67506000e+07
2375.000000 8.04535000e+07
2385.000000 7.20976000e+07
2395.000000 7.80318000e+07
2405.000000 7.46682000e+07
2415.000000 7.62344000e+07
2425.000000 7.94635000e+07
2435.000000 7.60419000e+07
2445.000000 8.05825000e+07
2455.000000 7.76458000e+07
2465.000000 7.72279000e+07
2475.000000 7.43972000e+07
2485.000000 7.83752000e+07
2495.000000 7.59205000e+07
2505.000000 8.13912000e+07
2513.000000 7.56063000e+07
2518.000000 7.65958000e+07
2525.000000 7.20059000e+07
2535.000000 7.12923000e+07
2545.000000 7.14835000e+07
2555.000000 7.48781000e+07
2565.000000 7.43813000e+07
2575.000000 7.83217000e+07
2585.000000 7.81115000e+07
2595.000000 7.72813000e+07
2605.000000 7.42853000e+07
2615.000000 7.39331000e+07
2625.000000 7.62083000e+07
2635.000000 7.65643000e+07
2645.000000 8.22437000e+07
2655.000000 8.10374000e+07
2665.000000 7.64309000e+07
2675.000000 7.85877000e+07
2685.000000 7.84528000e+07
2695.000000 7.56517000e+07
2705.000000 7.67255000e+07
2715.000000 7.38768000e+07
2725.000000 7.42082000e+07
2735.000000 7.82798000e+07
2745.000000 6.97060000e+07
2755.000000 6.98114000e+07
2765.000000 7.18253000e+07
2775.000000 7.52517000e+07
2785.000000 7.43334000e+07
2795.000000 6.31883000e+07
2805.000000 6.82880000e+07
2815.000000 7.59238000e+07
2825.000000 7.58498000e+07
2835.000000 7.34126000e+07
2845.000000 7.12591000e+07
2855.000000 6.99288000e+07
2865.000000 7.25671000e+07
2875.000000 7.09693000e+07
2885.000000 7.23746000e+07
2895.000000 7.06124000e+07
2910.000000 7.50558000e+07
2930.000000 7.24154000e+07
2950.000000 7.21511000e+07
2970.000000 7.23400000e+07
2990.000000 7.22478000e+07
3010.000000 7.29832000e+07
3030.000000 7.23143000e+07
3050.000000 7.14298000e+07
3070.000000 7.04302000e+07
3090.000000 7.08037000e+07
3110.000000 6.94909000e+07
3130.000000 6.88479000e+07
3150.000000 6.90661000e+07
3170.000000 6.84373000e+07
3190.000000 6.65378000e+07
3210.000000 6.72432000e+07
3230.000000 6.61170000e+07
3250.000000 6.61938000e+07
3270.000000 6.61511000e+07
3290.000000 6.61254000e+07
3310.000000 6.59683000e+07
3330.000000 6.48114000e+07
3350.000000 6.37948000e+07
3370.000000 6.37231000e+07
3390.000000 6.30423000e+07
3410.000000 6.34843000e+07
3430.000000 6.30567000e+07
3450.000000 6.26790000e+07
3470.000000 6.19617000e+07
3490.000000 6.15691000e+07
3510.000000 6.15452000e+07
3530.000000 6.13607000e+07
3550.000000 6.10031000e+07
3570.000000 6.02831000e+07
3590.000000 5.98822000e+07
3610.000000 5.95038000e+07
3630.000000 5.90729000e+07
3640.000000 5.88398000e+07
3650.000000 5.96546000e+07
3670.000000 5.91265000e+07
3690.000000 5.66529000e+07
3710.000000 6.06885000e+07
3730.000000 6.54604000e+07
3750.000000 8.94346000e+07
3770.000000 9.63154000e+07
3790.000000 1.18746000e+08
3810.000000 1.36393000e+08
3830.000000 1.07688000e+08
3850.000000 1.46923000e+08
3870.000000 1.61735000e+08
3890.000000 9.38904000e+07
3910.000000 1.58465000e+08
3930.000000 1.61403000e+08
3950.000000 1.56537000e+08
3970.000000 8.88777000e+07
3990.000000 1.49714000e+08
4010.000000 1.57206000e+08
4030.000000 1.55158000e+08
4050.000000 1.53730000e+08
4070.000000 1.48889000e+08
4090.000000 1.22815000e+08
4110.000000 9.39409000e+07
4130.000000 1.40946000e+08
4150.000000 1.43443000e+08
4170.000000 1.41479000e+08
4190.000000 1.40114000e+08
4210.000000 1.38376000e+08
4230.000000 1.35906000e+08
4250.000000 1.34052000e+08
4270.000000 1.31898000e+08
4290.000000 1.30047000e+08
4310.000000 1.25217000e+08
4330.000000 9.91329000e+07
4350.000000 8.40760000e+07
4370.000000 1.20652000e+08
4390.000000 1.20486000e+08
4410.000000 1.19996000e+08
4430.000000 1.18895000e+08
4450.000000 1.17681000e+08
4470.000000 1.15791000e+08
4490.000000 1.13325000e+08
4510.000000 1.12672000e+08
4530.000000 1.11112000e+08
4550.000000 1.08849000e+08
4570.000000 1.08620000e+08
4590.000000 1.06683000e+08
4610.000000 1.06376000e+08
4630.000000 1.04111000e+08
4650.000000 1.03657000e+08
4670.000000 1.02226000e+08
4690.000000 1.00742000e+08
4710.000000 9.84750000e+07
4730.000000 9.84488000e+07
4750.000000 9.72158000e+07
4770.000000 9.59751000e+07
4790.000000 9.45842000e+07
4810.000000 9.29412000e+07
4830.000000 9.01157000e+07
4850.000000 7.33327000e+07
4870.000000 5.92346000e+07
4890.000000 8.56933000e+07
4910.000000 8.72047000e+07
4930.000000 8.61079000e+07
4950.000000 8.57641000e+07
4970.000000 8.49288000e+07
4990.000000 8.38015000e+07
5010.000000 8.21507000e+07
5030.000000 8.16833000e+07
5050.000000 8.03492000e+07
5070.000000 7.98690000e+07
5090.000000 7.89329000e+07
5110.000000 7.79454000e+07
5130.000000 7.70826000e+07
5150.000000 7.60660000e+07
5170.000000 7.45794000e+07
5190.000000 7.39232000e+07
5210.000000 7.34400000e+07
5230.000000 7.22734000e+07
5250.000000 7.18113000e+07
5270.000000 7.05592000e+07
5290.000000 7.02044000e+07
5310.000000 6.90686000e+07
5330.000000 6.84783000e+07
5350.000000 6.78843000e+07
5370.000000 6.70530000e+07
5390.000000 6.63087000e+07
5410.000000 6.54859000e+07
5430.000000 6.47859000e+07
5450.000000 6.41452000e+07
5470.000000 6.34050000e+07
5490.000000 6.27176000e+07
5510.000000 6.20063000e+07
5530.000000 6.13073000e+07
5550.000000 6.06901000e+07
5570.000000 6.00134000e+07
5590.000000 5.93665000e+07
5610.000000 5.87441000e+07
5630.000000 5.81040000e+07
5650.000000 5.74361000e+07
5670.000000 5.68231000e+07
5690.000000 5.62358000e+07
5710.000000 5.56357000e+07
5730.000000 5.50449000e+07
5750.000000 5.44462000e+07
5770.000000 5.38691000e+07
5790.000000 5.32796000e+07
5810.000000 5.27259000e+07
5830.000000 5.21686000e+07
5850.000000 5.16264000e+07
5870.000000 5.09833000e+07
5890.000000 5.04107000e+07
5910.000000 5.00119000e+07
5930.000000 4.95004000e+07
5950.000000 4.89352000e+07
5970.000000 4.84599000e+07
5990.000000 4.79174000e+07
6010.000000 4.74644000e+07
6030.000000 4.69905000e+07
6050.000000 4.65023000e+07
6070.000000 4.60318000e+07
6090.000000 4.55633000e+07
6110.000000 4.51031000e+07
6130.000000 4.46398000e+07
6150.000000 4.40113000e+07
6170.000000 4.37403000e+07
6190.000000 4.33126000e+07
6210.000000 4.28797000e+07
6230.000000 4.24408000e+07
6250.000000 4.19198000e+07
6270.000000 4.16125000e+07
6290.000000 4.11988000e+07
6310.000000 4.07678000e+07
6330.000000 4.03865000e+07
6350.000000 3.97718000e+07
6370.000000 3.94612000e+07
6390.000000 3.92026000e+07
6410.000000 3.88070000e+07
6430.000000 3.84421000e+07
6450.000000 3.79749000e+07
6470.000000 3.76649000e+07
6490.000000 3.71926000e+07
6510.000000 3.67101000e+07
6530.000000 3.58654000e+07
6550.000000 3.17901000e+07
6570.000000 2.55930000e+07
6590.000000 3.41136000e+07
6610.000000 3.48783000e+07
6630.000000 3.47625000e+07
6650.000000 3.45154000e+07
6670.000000 3.42435000e+07
6690.000000 3.39288000e+07
6710.000000 3.36273000e+07
6730.000000 3.32963000e+07
6750.000000 3.29976000e+07
6770.000000 3.26960000e+07
6790.000000 3.23918000e+07
6810.000000 3.20921000e+07
6830.000000 3.17890000e+07
6850.000000 3.14984000e+07
6870.000000 3.12123000e+07
6890.000000 3.09274000e+07
6910.000000 3.06429000e+07
6930.000000 3.03588000e+07
6950.000000 3.00869000e+07
6970.000000 2.98144000e+07
6990.000000 2.95469000e+07
7010.000000 2.92582000e+07
7030.000000 2.90134000e+07
7050.000000 2.87444000e+07
7070.000000 2.84901000e+07
7090.000000 2.82442000e+07
7110.000000 2.79454000e+07
7130.000000 2.77325000e+07
7150.000000 2.74862000e+07
7170.000000 2.72503000e+07
7190.000000 2.70078000e+07
7210.000000 2.67712000e+07
7230.000000 2.65303000e+07
7250.000000 2.62945000e+07
7270.000000 2.60731000e+07
7290.000000 2.58402000e+07
7310.000000 2.56123000e+07
7330.000000 2.53963000e+07
7350.000000 2.51788000e+07
7370.000000 2.49625000e+07
7390.000000 2.47448000e+07
7410.000000 2.45277000e+07
7430.000000 2.42962000e+07
7450.000000 2.40987000e+07
7470.000000 2.38720000e+07
7490.000000 2.36882000e+07
7510.000000 2.34894000e+07
7530.000000 2.32997000e+07
7550.000000 2.31044000e+07
7570.000000 2.29088000e+07
7590.000000 2.27157000e+07
7610.000000 2.25262000e+07
7630.000000 2.23351000e+07
7650.000000 2.21445000e+07
7670.000000 2.19593000e+07
7690.000000 2.17777000e+07
7710.000000 2.15920000e+07
7730.000000 2.14193000e+07
7750.000000 2.12417000e+07
7770.000000 2.07662000e+07
7790.000000 2.08925000e+07
7810.000000 2.07221000e+07
7830.000000 2.05481000e+07
7850.000000 2.03708000e+07
7870.000000 2.01695000e+07
7890.000000 1.99772000e+07
7910.000000 1.98793000e+07
7930.000000 1.97234000e+07
7950.000000 1.95337000e+07
7970.000000 1.94091000e+07
7990.000000 1.91598000e+07
8010.000000 1.90960000e+07
8030.000000 1.89420000e+07
8050.000000 1.87910000e+07
8070.000000 1.86390000e+07
8090.000000 1.84911000e+07
8110.000000 1.83427000e+07
8130.000000 1.81996000e+07
8150.000000 1.80548000e+07
8170.000000 1.79123000e+07
8190.000000 1.77435000e+07
8210.000000 1.76834000e+07
8230.000000 1.75447000e+07
8250.000000 1.74404000e+07
8270.000000 1.73512000e+07
8290.000000 1.72166000e+07
8310.000000 1.70983000e+07
8330.000000 1.69392000e+07
8350.000000 1.68242000e+07
8370.000000 1.66691000e+07
8390.000000 1.65036000e+07
8410.000000 1.63053000e+07
8430.000000 1.61809000e+07
8450.000000 1.59624000e+07
8470.000000 1.55337000e+07
8490.000000 1.60491000e+07
8510.000000 1.50114000e+07
8530.000000 1.61102000e+07
8550.000000 1.41879000e+07
8570.000000 1.63177000e+07
8590.000000 1.49174000e+07
8610.000000 1.44762000e+07
8630.000000 1.65403000e+07
8650.000000 1.57766000e+07
8670.000000 1.28236000e+07
8690.000000 1.62243000e+07
8710.000000 1.68223000e+07
8730.000000 1.61185000e+07
8750.000000 1.23457000e+07
8770.000000 1.52205000e+07
8790.000000 1.66057000e+07
8810.000000 1.66527000e+07
8830.000000 1.62648000e+07
8850.000000 1.43948000e+07
8870.000000 1.19564000e+07
8890.000000 1.54249000e+07
8910.000000 1.59916000e+07
8930.000000 1.59838000e+07
8950.000000 1.59266000e+07
8970.000000 1.56917000e+07
8990.000000 1.50095000e+07
9010.000000 1.17590000e+07
9030.000000 1.29525000e+07
9050.000000 1.49220000e+07
9070.000000 1.50559000e+07
9090.000000 1.49610000e+07
9110.000000 1.49975000e+07
9130.000000 1.49210000e+07
9150.000000 1.48109000e+07
9170.000000 1.46379000e+07
9190.000000 1.43316000e+07
9210.000000 1.33506000e+07
9230.000000 1.02287000e+07
9250.000000 1.27990000e+07
9270.000000 1.36592000e+07
9290.000000 1.39850000e+07
9310.000000 1.39498000e+07
9330.000000 1.38649000e+07
9350.000000 1.37919000e+07
9370.000000 1.36996000e+07
9390.000000 1.35670000e+07
9410.000000 1.33860000e+07
9430.000000 1.33784000e+07
9450.000000 1.32632000e+07
9470.000000 1.31400000e+07
9490.000000 1.29835000e+07
9510.000000 1.26877000e+07
9530.000000 1.16058000e+07
9550.000000 9.22342000e+06
9570.000000 1.16995000e+07
9590.000000 1.23749000e+07
9610.000000 1.24295000e+07
9630.000000 1.23223000e+07
9650.000000 1.23348000e+07
9670.000000 1.22230000e+07
9690.000000 1.21758000e+07
9710.000000 1.20985000e+07
9730.000000 1.20102000e+07
9750.000000 1.19234000e+07
9770.000000 1.18407000e+07
9790.000000 1.17558000e+07
9810.000000 1.16699000e+07
9830.000000 1.15800000e+07
9850.000000 1.14985000e+07
9870.000000 1.14167000e+07
9890.000000 1.13140000e+07
9910.000000 1.12584000e+07
9930.000000 1.11737000e+07
9950.000000 1.10759000e+07
9970.000000 1.09815000e+07
9990.000000 1.08587000e+07
10025.000000 9.90361000e+06
10075.000000 9.39507000e+06
10125.000000 1.03546000e+07
10175.000000 1.02560000e+07
10225.000000 1.00925000e+07
10275.000000 9.92033000e+06
10325.000000 9.75027000e+06
10375.000000 9.58653000e+06
10425.000000 9.42685000e+06
10475.000000 9.26016000e+06
10525.000000 9.10607000e+06
10575.000000 8.95986000e+06
10625.000000 8.81400000e+06
10675.000000 8.61526000e+06
10725.000000 8.50793000e+06
10775.000000 8.38275000e+06
10825.000000 8.22930000e+06
10875.000000 8.03020000e+06
10925.000000 6.83163000e+06
10975.000000 7.42508000e+06
11025.000000 7.69293000e+06
11075.000000 7.60857000e+06
11125.000000 7.49194000e+06
11175.000000 7.37406000e+06
11225.000000 7.25858000e+06
11275.000000 7.10930000e+06
11325.000000 7.00554000e+06
11375.000000 6.92196000e+06
11425.000000 6.81388000e+06
11475.000000 6.71229000e+06
11525.000000 6.60993000e+06
11575.000000 6.50852000e+06
11625.000000 6.40136000e+06
11675.000000 6.29496000e+06
11725.000000 6.21700000e+06
11775.000000 6.09476000e+06
11825.000000 6.02204000e+06
11875.000000 5.93136000e+06
11925.000000 5.85365000e+06
11975.000000 5.75994000e+06
12025.000000 5.68036000e+06
12075.000000 5.59543000e+06
12125.000000 5.51402000e+06
12175.000000 5.43502000e+06
12225.000000 5.35536000e+06
12275.000000 5.27632000e+06
12325.000000 5.20086000e+06
12375.000000 5.12669000e+06
12425.000000 5.05452000e+06
12475.000000 4.97704000e+06
12525.000000 4.91073000e+06
12575.000000 4.83602000e+06
12625.000000 4.76967000e+06
12675.000000 4.70303000e+06
12725.000000 4.61961000e+06
12775.000000 4.45310000e+06
12825.000000 3.85523000e+06
12875.000000 4.36419000e+06
12925.000000 4.37154000e+06
12975.000000 4.32605000e+06
13025.000000 4.26759000e+06
13075.000000 4.20923000e+06
13125.000000 4.15185000e+06
13175.000000 4.09131000e+06
13225.000000 4.03997000e+06
13275.000000 3.98565000e+06
13325.000000 3.93204000e+06
13375.000000 3.87932000e+06
13425.000000 3.82727000e+06
13475.000000 3.77610000e+06
13525.000000 3.72455000e+06
13575.000000 3.67631000e+06
13625.000000 3.62807000e+06
13675.000000 3.57983000e+06
13725.000000 3.53120000e+06
13775.000000 3.48774000e+06
13825.000000 3.44245000e+06
13875.000000 3.39831000e+06
13925.000000 3.35375000e+06
13975.000000 3.31089000e+06
14025.000000 3.26855000e+06
14075.000000 3.22693000e+06
14125.000000 3.18562000e+06
14175.000000 3.14518000e+06
14225.000000 3.10524000e+06
14275.000000 3.06615000e+06
14325.000000 3.02752000e+06
14375.000000 2.98954000e+06
14425.000000 2.94477000e+06
14475.000000 2.91530000e+06
