# Kurucz ODFNEW /NOVER, alpha: 0.0 (2003)
# teff = 25000 K (value for the effective temperature for the model. Temperatures are given in K)
# logg = 4 log(cm/s2) (value for Log(G) for the model.)
# lh = 1.25  (l/Hp where l is the  mixing length of the convective element and Hp is the pressure scale height)
# meta = -1.5  (value for the Metallicity for the model.)
# vtur = 2 km/s (Microturbulence velocity)
# alpha = 0  (Alpha)
#
# column 1: WAVELENGTH (ANGSTROM), Wavelength in Angstrom
# column 2: FLUX (ERG/CM2/S/A), Flux in erg/cm2/s/A
147.200000 5.23910000e-14
151.000000 2.48779000e-13
155.200000 1.27574000e-12
158.800000 4.83225000e-12
162.000000 1.50195000e-11
166.000000 5.83045000e-11
170.300000 2.33179000e-10
173.400000 6.06587000e-10
176.800000 1.66380000e-09
180.200000 4.38867000e-09
181.700000 6.65221000e-09
186.100000 2.16684000e-08
191.000000 7.56226000e-08
193.900000 1.53589000e-07
198.400000 4.41767000e-07
201.800000 9.50445000e-07
205.000000 1.90870000e-06
210.500000 6.00740000e-06
216.200000 1.84946000e-05
219.800000 3.64564000e-05
223.000000 6.53695000e-05
226.800000 1.27846000e-04
230.000000 2.83679000e-03
234.000000 6.58733000e-03
240.000000 1.56578000e-02
246.500000 3.81620000e-02
252.400000 8.31450000e-02
256.800000 1.35710000e-01
260.000000 2.10952000e-01
264.000000 3.35568000e-01
268.500000 5.57055000e-01
273.500000 9.57206000e-01
278.500000 1.61548000e+00
284.000000 2.81258000e+00
290.000000 5.00186000e+00
296.000000 8.67093000e+00
301.000000 1.33979000e+01
308.000000 2.31636000e+01
318.000000 5.43837000e+01
328.000000 1.14107000e+02
338.000000 2.31256000e+02
348.000000 4.46025000e+02
357.000000 7.84945000e+02
366.000000 1.34095000e+03
375.000000 2.19222000e+03
385.000000 3.72396000e+03
395.000000 6.10928000e+03
405.000000 9.76315000e+03
414.000000 1.46288000e+04
422.000000 2.04654000e+04
430.000000 2.82863000e+04
441.000000 4.35305000e+04
451.000000 6.30972000e+04
460.000000 8.63469000e+04
470.000000 1.21140000e+05
480.000000 1.66618000e+05
490.000000 2.26383000e+05
500.000000 3.03312000e+05
506.000000 1.96401000e+06
512.000000 6.12668000e+06
520.000000 7.22710000e+06
530.000000 9.19426000e+06
540.000000 9.84936000e+06
550.000000 1.31276000e+07
560.000000 1.49947000e+07
570.000000 1.77570000e+07
580.000000 1.78006000e+07
590.000000 2.24544000e+07
600.000000 2.60467000e+07
610.000000 2.99480000e+07
620.000000 3.33264000e+07
630.000000 3.76122000e+07
640.000000 4.04175000e+07
650.000000 4.48357000e+07
658.000000 5.01692000e+07
665.000000 5.39020000e+07
675.000000 5.77152000e+07
685.000000 6.26291000e+07
695.000000 7.16810000e+07
705.000000 7.67368000e+07
716.000000 8.51186000e+07
726.000000 9.13884000e+07
735.000000 9.83621000e+07
745.000000 1.07590000e+08
755.000000 1.15988000e+08
765.000000 1.24402000e+08
775.000000 1.34139000e+08
785.000000 1.44138000e+08
795.000000 1.52659000e+08
805.000000 1.62528000e+08
815.000000 1.71479000e+08
825.000000 1.83587000e+08
835.000000 1.88407000e+08
845.000000 2.02920000e+08
855.000000 2.13363000e+08
865.000000 2.26307000e+08
875.000000 2.40162000e+08
885.000000 2.53481000e+08
895.000000 2.65758000e+08
905.000000 2.74645000e+08
915.000000 4.12005000e+08
925.000000 2.99997000e+09
935.000000 8.20619000e+09
945.000000 1.99986000e+10
955.000000 2.53748000e+10
965.000000 3.20365000e+10
975.000000 1.20343000e+10
985.000000 3.30835000e+10
995.000000 3.13108000e+10
1005.000000 3.27321000e+10
1015.000000 3.05450000e+10
1025.000000 1.27876000e+10
1035.000000 2.69831000e+10
1045.000000 3.30452000e+10
1055.000000 3.17762000e+10
1065.000000 2.86809000e+10
1075.000000 3.01129000e+10
1085.000000 2.76957000e+10
1095.000000 2.95539000e+10
1105.000000 2.80687000e+10
1115.000000 2.77641000e+10
1125.000000 2.56413000e+10
1135.000000 2.69329000e+10
1145.000000 2.51878000e+10
1155.000000 2.57315000e+10
1165.000000 2.53782000e+10
1175.000000 2.09953000e+10
1185.000000 2.40473000e+10
1195.000000 2.25941000e+10
1205.000000 1.94552000e+10
1215.000000 8.96229000e+09
1225.000000 1.99408000e+10
1235.000000 2.16974000e+10
1245.000000 2.13179000e+10
1255.000000 2.09784000e+10
1265.000000 2.05731000e+10
1275.000000 2.05576000e+10
1285.000000 2.01191000e+10
1295.000000 1.81960000e+10
1305.000000 1.83500000e+10
1315.000000 1.89284000e+10
1325.000000 1.82246000e+10
1335.000000 1.74863000e+10
1345.000000 1.75619000e+10
1355.000000 1.75091000e+10
1365.000000 1.68632000e+10
1375.000000 1.65646000e+10
1385.000000 1.63188000e+10
1395.000000 1.50368000e+10
1405.000000 1.51104000e+10
1415.000000 1.52556000e+10
1425.000000 1.49059000e+10
1435.000000 1.47964000e+10
1442.000000 1.47604000e+10
1447.000000 1.45551000e+10
1455.000000 1.42994000e+10
1465.000000 1.39138000e+10
1475.000000 1.36927000e+10
1485.000000 1.34281000e+10
1495.000000 1.31687000e+10
1505.000000 1.26663000e+10
1512.000000 1.22886000e+10
1517.000000 1.23246000e+10
1525.000000 1.21678000e+10
1535.000000 1.14389000e+10
1545.000000 1.13939000e+10
1555.000000 1.09807000e+10
1565.000000 1.11759000e+10
1575.000000 1.11771000e+10
1585.000000 1.10047000e+10
1595.000000 1.08679000e+10
1605.000000 1.04770000e+10
1615.000000 1.02738000e+10
1625.000000 1.02288000e+10
1635.000000 1.01997000e+10
1645.000000 9.88495000e+09
1655.000000 9.86791000e+09
1665.000000 9.76522000e+09
1672.000000 9.55022000e+09
1677.000000 9.69817000e+09
1685.000000 9.51541000e+09
1695.000000 9.27195000e+09
1705.000000 9.04182000e+09
1715.000000 8.78285000e+09
1725.000000 8.66929000e+09
1735.000000 8.61695000e+09
1745.000000 8.45488000e+09
1755.000000 8.40308000e+09
1765.000000 8.10557000e+09
1775.000000 7.99213000e+09
1785.000000 7.94919000e+09
1795.000000 7.88904000e+09
1805.000000 7.82026000e+09
1815.000000 7.55512000e+09
1825.000000 7.50444000e+09
1835.000000 7.37354000e+09
1845.000000 6.98007000e+09
1855.000000 6.85936000e+09
1865.000000 6.88445000e+09
1875.000000 6.90873000e+09
1885.000000 6.49719000e+09
1895.000000 6.22528000e+09
1905.000000 6.41889000e+09
1915.000000 6.18180000e+09
1925.000000 6.02411000e+09
1935.000000 6.11716000e+09
1945.000000 6.13956000e+09
1955.000000 5.78318000e+09
1967.000000 5.91196000e+09
1976.000000 5.99349000e+09
1984.000000 5.74044000e+09
1995.000000 5.57282000e+09
2005.000000 5.62242000e+09
2015.000000 5.61658000e+09
2025.000000 5.60865000e+09
2035.000000 5.39473000e+09
2045.000000 5.32967000e+09
2055.000000 5.15999000e+09
2065.000000 5.12595000e+09
2074.000000 5.21994000e+09
2078.000000 5.04021000e+09
2085.000000 5.04932000e+09
2095.000000 4.91102000e+09
2105.000000 4.95314000e+09
2115.000000 4.91071000e+09
2125.000000 4.90106000e+09
2135.000000 4.81459000e+09
2145.000000 4.69767000e+09
2155.000000 4.68703000e+09
2165.000000 4.63435000e+09
2175.000000 4.56029000e+09
2185.000000 4.50531000e+09
2195.000000 4.46068000e+09
2205.000000 4.39854000e+09
2215.000000 4.34332000e+09
2225.000000 4.27347000e+09
2235.000000 4.20990000e+09
2245.000000 4.17360000e+09
2255.000000 4.10629000e+09
2265.000000 4.06578000e+09
2275.000000 4.01294000e+09
2285.000000 3.96664000e+09
2295.000000 3.85318000e+09
2305.000000 3.86009000e+09
2315.000000 3.80046000e+09
2325.000000 3.75424000e+09
2335.000000 3.69431000e+09
2345.000000 3.65821000e+09
2355.000000 3.61933000e+09
2365.000000 3.57208000e+09
2375.000000 3.52370000e+09
2385.000000 3.47805000e+09
2395.000000 3.43436000e+09
2405.000000 3.39283000e+09
2415.000000 3.34638000e+09
2425.000000 3.31474000e+09
2435.000000 3.26717000e+09
2445.000000 3.23042000e+09
2455.000000 3.19522000e+09
2465.000000 3.15422000e+09
2475.000000 3.11525000e+09
2485.000000 3.07626000e+09
2495.000000 2.96831000e+09
2505.000000 2.99941000e+09
2513.000000 2.93662000e+09
2518.000000 2.95242000e+09
2525.000000 2.92898000e+09
2535.000000 2.89343000e+09
2545.000000 2.84218000e+09
2555.000000 2.82246000e+09
2565.000000 2.79093000e+09
2575.000000 2.76197000e+09
2585.000000 2.72936000e+09
2595.000000 2.69729000e+09
2605.000000 2.68262000e+09
2615.000000 2.65228000e+09
2625.000000 2.62194000e+09
2635.000000 2.58727000e+09
2645.000000 2.55810000e+09
2655.000000 2.52647000e+09
2665.000000 2.49009000e+09
2675.000000 2.46172000e+09
2685.000000 2.44927000e+09
2695.000000 2.39896000e+09
2705.000000 2.39104000e+09
2715.000000 2.36493000e+09
2725.000000 2.32056000e+09
2735.000000 2.31208000e+09
2745.000000 2.28042000e+09
2755.000000 2.25774000e+09
2765.000000 2.21650000e+09
2775.000000 2.21205000e+09
2785.000000 2.18643000e+09
2795.000000 2.13798000e+09
2805.000000 2.12965000e+09
2815.000000 2.11593000e+09
2825.000000 2.07152000e+09
2835.000000 2.04620000e+09
2845.000000 2.04683000e+09
2855.000000 2.02391000e+09
2865.000000 2.00302000e+09
2875.000000 1.98136000e+09
2885.000000 1.96027000e+09
2895.000000 1.93893000e+09
2910.000000 1.90716000e+09
2930.000000 1.86673000e+09
2950.000000 1.81471000e+09
2970.000000 1.78971000e+09
2990.000000 1.75156000e+09
3010.000000 1.71435000e+09
3030.000000 1.68121000e+09
3050.000000 1.64700000e+09
3070.000000 1.61362000e+09
3090.000000 1.57765000e+09
3110.000000 1.54889000e+09
3130.000000 1.51897000e+09
3150.000000 1.48904000e+09
3170.000000 1.45857000e+09
3190.000000 1.41842000e+09
3210.000000 1.40183000e+09
3230.000000 1.37412000e+09
3250.000000 1.34745000e+09
3270.000000 1.32295000e+09
3290.000000 1.29560000e+09
3310.000000 1.27298000e+09
3330.000000 1.24870000e+09
3350.000000 1.22286000e+09
3370.000000 1.20211000e+09
3390.000000 1.17974000e+09
3410.000000 1.15785000e+09
3430.000000 1.13074000e+09
3450.000000 1.10580000e+09
3470.000000 1.08887000e+09
3490.000000 1.06891000e+09
3510.000000 1.05315000e+09
3530.000000 1.03632000e+09
3550.000000 1.01810000e+09
3570.000000 1.00519000e+09
3590.000000 9.80956000e+08
3610.000000 9.65550000e+08
3630.000000 9.46820000e+08
3640.000000 9.44980000e+08
3650.000000 9.27282000e+08
3670.000000 9.15189000e+08
3690.000000 8.94892000e+08
3710.000000 8.65152000e+08
3730.000000 8.33262000e+08
3750.000000 8.77039000e+08
3770.000000 8.77646000e+08
3790.000000 9.19314000e+08
3810.000000 9.55805000e+08
3830.000000 8.38498000e+08
3850.000000 9.76993000e+08
3870.000000 9.79523000e+08
3890.000000 7.95105000e+08
3910.000000 9.61802000e+08
3930.000000 9.45086000e+08
3950.000000 9.30107000e+08
3970.000000 7.38477000e+08
3990.000000 8.93165000e+08
4010.000000 8.85449000e+08
4030.000000 8.37365000e+08
4050.000000 8.64485000e+08
4070.000000 8.44297000e+08
4090.000000 7.84510000e+08
4110.000000 6.89224000e+08
4130.000000 7.93573000e+08
4150.000000 7.86073000e+08
4170.000000 7.78919000e+08
4190.000000 7.67961000e+08
4210.000000 7.55771000e+08
4230.000000 7.43041000e+08
4250.000000 7.30245000e+08
4270.000000 7.15300000e+08
4290.000000 7.06026000e+08
4310.000000 6.90931000e+08
4330.000000 6.31616000e+08
4350.000000 5.77184000e+08
4370.000000 6.56661000e+08
4390.000000 6.34232000e+08
4410.000000 6.40173000e+08
4430.000000 6.28225000e+08
4450.000000 6.20935000e+08
4470.000000 5.86412000e+08
4490.000000 6.00914000e+08
4510.000000 5.92466000e+08
4530.000000 5.83116000e+08
4550.000000 5.73815000e+08
4570.000000 5.64745000e+08
4590.000000 5.56222000e+08
4610.000000 5.47719000e+08
4630.000000 5.39325000e+08
4650.000000 5.29538000e+08
4670.000000 5.22974000e+08
4690.000000 5.15183000e+08
4710.000000 5.00934000e+08
4730.000000 4.99552000e+08
4750.000000 4.91664000e+08
4770.000000 4.85480000e+08
4790.000000 4.78233000e+08
4810.000000 4.70649000e+08
4830.000000 4.61398000e+08
4850.000000 4.29029000e+08
4870.000000 3.84657000e+08
4890.000000 4.40361000e+08
4910.000000 4.36453000e+08
4930.000000 4.21356000e+08
4950.000000 4.25077000e+08
4970.000000 4.19207000e+08
4990.000000 4.13190000e+08
5010.000000 4.02003000e+08
5030.000000 4.01523000e+08
5050.000000 3.93341000e+08
5070.000000 3.90317000e+08
5090.000000 3.84827000e+08
5110.000000 3.79455000e+08
5130.000000 3.74011000e+08
5150.000000 3.68825000e+08
5170.000000 3.63863000e+08
5190.000000 3.58868000e+08
5210.000000 3.53870000e+08
5230.000000 3.49089000e+08
5250.000000 3.44329000e+08
5270.000000 3.39645000e+08
5290.000000 3.35049000e+08
5310.000000 3.30512000e+08
5330.000000 3.26074000e+08
5350.000000 3.21679000e+08
5370.000000 3.17433000e+08
5390.000000 3.13188000e+08
5410.000000 3.09036000e+08
5430.000000 3.04937000e+08
5450.000000 3.00914000e+08
5470.000000 2.96968000e+08
5490.000000 2.93083000e+08
5510.000000 2.89272000e+08
5530.000000 2.85495000e+08
5550.000000 2.81815000e+08
5570.000000 2.78155000e+08
5590.000000 2.74589000e+08
5610.000000 2.71055000e+08
5630.000000 2.67599000e+08
5650.000000 2.64127000e+08
5670.000000 2.60696000e+08
5690.000000 2.57296000e+08
5710.000000 2.54237000e+08
5730.000000 2.51043000e+08
5750.000000 2.47841000e+08
5770.000000 2.44813000e+08
5790.000000 2.41765000e+08
5810.000000 2.38764000e+08
5830.000000 2.35788000e+08
5850.000000 2.32890000e+08
5870.000000 2.23336000e+08
5890.000000 2.26828000e+08
5910.000000 2.24400000e+08
5930.000000 2.21635000e+08
5950.000000 2.18935000e+08
5970.000000 2.16339000e+08
5990.000000 2.13689000e+08
6010.000000 2.11133000e+08
6030.000000 2.08595000e+08
6050.000000 2.06106000e+08
6070.000000 2.03656000e+08
6090.000000 2.01224000e+08
6110.000000 1.98839000e+08
6130.000000 1.96491000e+08
6150.000000 1.94129000e+08
6170.000000 1.91873000e+08
6190.000000 1.89642000e+08
6210.000000 1.87426000e+08
6230.000000 1.85235000e+08
6250.000000 1.83077000e+08
6270.000000 1.80962000e+08
6290.000000 1.78871000e+08
6310.000000 1.76811000e+08
6330.000000 1.74784000e+08
6350.000000 1.72741000e+08
6370.000000 1.70795000e+08
6390.000000 1.68860000e+08
6410.000000 1.66937000e+08
6430.000000 1.65062000e+08
6450.000000 1.63188000e+08
6470.000000 1.61326000e+08
6490.000000 1.59519000e+08
6510.000000 1.57741000e+08
6530.000000 1.55380000e+08
6550.000000 1.49102000e+08
6570.000000 1.32923000e+08
6590.000000 1.49319000e+08
6610.000000 1.48977000e+08
6630.000000 1.47557000e+08
6650.000000 1.46023000e+08
6670.000000 1.43024000e+08
6690.000000 1.41488000e+08
6710.000000 1.41307000e+08
6730.000000 1.39761000e+08
6750.000000 1.38256000e+08
6770.000000 1.36766000e+08
6790.000000 1.35235000e+08
6810.000000 1.33832000e+08
6830.000000 1.32404000e+08
6850.000000 1.30997000e+08
6870.000000 1.29597000e+08
6890.000000 1.28219000e+08
6910.000000 1.26862000e+08
6930.000000 1.25519000e+08
6950.000000 1.24205000e+08
6970.000000 1.22896000e+08
6990.000000 1.21600000e+08
7010.000000 1.20340000e+08
7030.000000 1.19085000e+08
7050.000000 1.17849000e+08
7070.000000 1.14741000e+08
7090.000000 1.15421000e+08
7110.000000 1.14229000e+08
7130.000000 1.13055000e+08
7150.000000 1.11893000e+08
7170.000000 1.10728000e+08
7190.000000 1.09617000e+08
7210.000000 1.08502000e+08
7230.000000 1.07096000e+08
7250.000000 1.06305000e+08
7270.000000 1.05236000e+08
7290.000000 1.03320000e+08
7310.000000 1.03115000e+08
7330.000000 1.02097000e+08
7350.000000 1.01075000e+08
7370.000000 1.00069000e+08
7390.000000 9.90731000e+07
7410.000000 9.80861000e+07
7430.000000 9.71152000e+07
7450.000000 9.61737000e+07
7470.000000 9.52138000e+07
7490.000000 9.42896000e+07
7510.000000 9.33272000e+07
7530.000000 9.24467000e+07
7550.000000 9.15478000e+07
7570.000000 9.06571000e+07
7590.000000 8.97746000e+07
7610.000000 8.89065000e+07
7630.000000 8.80463000e+07
7650.000000 8.72003000e+07
7670.000000 8.63619000e+07
7690.000000 8.55310000e+07
7710.000000 8.47139000e+07
7730.000000 8.39041000e+07
7750.000000 8.31016000e+07
7770.000000 8.22937000e+07
7790.000000 8.15364000e+07
7810.000000 8.07055000e+07
7830.000000 8.00050000e+07
7850.000000 7.93349000e+07
7870.000000 7.85855000e+07
7890.000000 7.77882000e+07
7910.000000 7.71304000e+07
7930.000000 7.64004000e+07
7950.000000 7.55694000e+07
7970.000000 7.47814000e+07
7990.000000 7.41124000e+07
8010.000000 7.34081000e+07
8030.000000 7.27274000e+07
8050.000000 7.20758000e+07
8070.000000 7.14876000e+07
8090.000000 7.06798000e+07
8110.000000 7.01426000e+07
8130.000000 6.95871000e+07
8150.000000 6.88376000e+07
8170.000000 6.83486000e+07
8190.000000 6.76276000e+07
8210.000000 6.68123000e+07
8230.000000 6.64101000e+07
8250.000000 6.58394000e+07
8270.000000 6.48989000e+07
8290.000000 6.45971000e+07
8310.000000 6.40465000e+07
8330.000000 6.34516000e+07
8350.000000 6.25645000e+07
8370.000000 6.22120000e+07
8390.000000 6.17552000e+07
8410.000000 6.12009000e+07
8430.000000 6.05874000e+07
8450.000000 5.96467000e+07
8470.000000 5.94179000e+07
8490.000000 5.88874000e+07
8510.000000 5.81844000e+07
8530.000000 5.79377000e+07
8550.000000 5.65178000e+07
8570.000000 5.76444000e+07
8590.000000 5.51962000e+07
8610.000000 5.50214000e+07
8630.000000 5.66837000e+07
8650.000000 5.49819000e+07
8670.000000 5.14909000e+07
8690.000000 5.52901000e+07
8710.000000 5.55480000e+07
8730.000000 5.37663000e+07
8750.000000 4.86785000e+07
8770.000000 5.21749000e+07
8790.000000 5.39271000e+07
8810.000000 5.36340000e+07
8830.000000 5.29564000e+07
8850.000000 4.96005000e+07
8870.000000 4.60008000e+07
8890.000000 5.10619000e+07
8910.000000 5.14355000e+07
8930.000000 5.10731000e+07
8950.000000 5.08028000e+07
8970.000000 5.02722000e+07
8990.000000 4.88135000e+07
9010.000000 4.35197000e+07
9030.000000 4.56912000e+07
9050.000000 4.82650000e+07
9070.000000 4.78096000e+07
9090.000000 4.78047000e+07
9110.000000 4.76449000e+07
9130.000000 4.72918000e+07
9150.000000 4.68963000e+07
9170.000000 4.62618000e+07
9190.000000 4.57975000e+07
9210.000000 4.37410000e+07
9230.000000 3.88112000e+07
9250.000000 4.31355000e+07
9270.000000 4.42520000e+07
9290.000000 4.41534000e+07
9310.000000 4.36727000e+07
9330.000000 4.35635000e+07
9350.000000 4.31835000e+07
9370.000000 4.28727000e+07
9390.000000 4.25284000e+07
9410.000000 4.21810000e+07
9430.000000 4.18493000e+07
9450.000000 4.15146000e+07
9470.000000 4.08820000e+07
9490.000000 4.07282000e+07
9510.000000 3.98444000e+07
9530.000000 3.80899000e+07
9550.000000 3.41236000e+07
9570.000000 3.83332000e+07
9590.000000 3.89809000e+07
9610.000000 3.87331000e+07
9630.000000 3.84176000e+07
9650.000000 3.83487000e+07
9670.000000 3.80493000e+07
9690.000000 3.77118000e+07
9710.000000 3.73385000e+07
9730.000000 3.71676000e+07
9750.000000 3.68794000e+07
9770.000000 3.65939000e+07
9790.000000 3.63113000e+07
9810.000000 3.60307000e+07
9830.000000 3.57540000e+07
9850.000000 3.54793000e+07
9870.000000 3.52073000e+07
9890.000000 3.49375000e+07
9910.000000 3.46398000e+07
9930.000000 3.44068000e+07
9950.000000 3.41449000e+07
9970.000000 3.38830000e+07
9990.000000 3.35345000e+07
10025.000000 3.18021000e+07
10075.000000 3.07628000e+07
10125.000000 3.18312000e+07
10175.000000 3.13659000e+07
10225.000000 3.07724000e+07
10275.000000 3.02220000e+07
10325.000000 2.95519000e+07
10375.000000 2.91295000e+07
10425.000000 2.86019000e+07
10475.000000 2.80864000e+07
10525.000000 2.75821000e+07
10575.000000 2.70891000e+07
10625.000000 2.66072000e+07
10675.000000 2.60805000e+07
10725.000000 2.56751000e+07
10775.000000 2.52245000e+07
10825.000000 2.45082000e+07
10875.000000 2.42751000e+07
10925.000000 2.20750000e+07
10975.000000 2.30112000e+07
11025.000000 2.29387000e+07
11075.000000 2.27004000e+07
11125.000000 2.23312000e+07
11175.000000 2.19526000e+07
11225.000000 2.15688000e+07
11275.000000 2.12179000e+07
11325.000000 2.08633000e+07
11375.000000 2.05158000e+07
11425.000000 2.01747000e+07
11475.000000 1.98416000e+07
11525.000000 1.95147000e+07
11575.000000 1.91943000e+07
11625.000000 1.88810000e+07
11675.000000 1.85740000e+07
11725.000000 1.82731000e+07
11775.000000 1.79783000e+07
11825.000000 1.76895000e+07
11875.000000 1.74064000e+07
11925.000000 1.71289000e+07
11975.000000 1.66911000e+07
12025.000000 1.65904000e+07
12075.000000 1.63292000e+07
12125.000000 1.60731000e+07
12175.000000 1.58219000e+07
12225.000000 1.55755000e+07
12275.000000 1.53341000e+07
12325.000000 1.50971000e+07
12375.000000 1.48649000e+07
12425.000000 1.46372000e+07
12475.000000 1.44133000e+07
12525.000000 1.41638000e+07
12575.000000 1.39792000e+07
12625.000000 1.37682000e+07
12675.000000 1.35611000e+07
12725.000000 1.33500000e+07
12775.000000 1.29265000e+07
12825.000000 1.19752000e+07
12875.000000 1.26860000e+07
12925.000000 1.25824000e+07
12975.000000 1.23073000e+07
13025.000000 1.22158000e+07
13075.000000 1.20378000e+07
