# Kurucz ODFNEW /NOVER, alpha: 0.0 (2003)
# teff = 7750 K (value for the effective temperature for the model. Temperatures are given in K)
# logg = 1 log(cm/s2) (value for Log(G) for the model.)
# lh = 1.25  (l/Hp where l is the  mixing length of the convective element and Hp is the pressure scale height)
# meta = 0.2  (value for the Metallicity for the model.)
# vtur = 2 km/s (Microturbulence velocity)
# alpha = 0  (Alpha)
#
# column 1: WAVELENGTH (ANGSTROM), Wavelength in Angstrom
# column 2: FLUX (ERG/CM2/S/A), Flux in erg/cm2/s/A
385.000000 3.21996000e-23
395.000000 2.70888000e-22
405.000000 1.87980000e-21
414.000000 9.84443000e-21
422.000000 4.03291000e-20
430.000000 1.56478000e-19
441.000000 9.28976000e-19
451.000000 4.33848000e-18
460.000000 1.63667000e-17
470.000000 6.72673000e-17
480.000000 2.60081000e-16
490.000000 9.49512000e-16
500.000000 3.28493000e-15
506.000000 6.41968000e-15
512.000000 1.34088000e-14
520.000000 3.33414000e-14
530.000000 1.01553000e-13
540.000000 2.87211000e-13
550.000000 8.05516000e-13
560.000000 2.14097000e-12
570.000000 5.49000000e-12
580.000000 1.33882000e-11
590.000000 3.26567000e-11
600.000000 7.60146000e-11
610.000000 1.71862000e-10
620.000000 3.77994000e-10
630.000000 8.09745000e-10
640.000000 1.69179000e-09
650.000000 3.45111000e-09
658.000000 6.00503000e-09
665.000000 9.48500000e-09
675.000000 1.77217000e-08
685.000000 1.57974000e-09
695.000000 2.77439000e-09
705.000000 4.75822000e-09
716.000000 8.53832000e-09
726.000000 1.42193000e-08
735.000000 2.22038000e-08
745.000000 3.58983000e-08
755.000000 5.72617000e-08
765.000000 9.01228000e-08
775.000000 1.39985000e-07
785.000000 2.14951000e-07
795.000000 3.22109000e-07
805.000000 4.84974000e-07
815.000000 7.21499000e-07
825.000000 1.05742000e-06
835.000000 1.53285000e-06
845.000000 2.20205000e-06
855.000000 3.13139000e-06
865.000000 4.41190000e-06
875.000000 6.13297000e-06
885.000000 8.52376000e-06
895.000000 1.17027000e-05
905.000000 1.58148000e-05
915.000000 1.10104000e-02
925.000000 3.43960000e-02
935.000000 4.45883000e-02
945.000000 6.00092000e-02
955.000000 8.66495000e-02
965.000000 1.15670000e-01
975.000000 1.47331000e-01
985.000000 1.89420000e-01
995.000000 2.33102000e-01
1005.000000 3.23696000e-01
1015.000000 4.15116000e-01
1025.000000 5.09501000e-01
1035.000000 6.52685000e-01
1045.000000 8.35271000e-01
1055.000000 1.04686000e+00
1065.000000 1.26382000e+00
1075.000000 1.59699000e+00
1085.000000 1.97257000e+00
1095.000000 2.35512000e+00
1105.000000 7.64798000e+00
1115.000000 2.55069000e+01
1125.000000 3.78865000e+01
1135.000000 5.18907000e+01
1145.000000 6.41606000e+01
1155.000000 7.05747000e+01
1165.000000 9.38087000e+01
1175.000000 1.05742000e+02
1185.000000 1.12064000e+02
1195.000000 4.14817000e+01
1205.000000 3.93276000e+01
1215.000000 8.72343000e+00
1225.000000 4.64992000e+01
1235.000000 1.27484000e+02
1245.000000 3.17298000e+02
1255.000000 7.69520000e+02
1265.000000 7.22795000e+02
1275.000000 1.58047000e+03
1285.000000 2.64017000e+03
1295.000000 3.44106000e+03
1305.000000 2.09919000e+03
1315.000000 4.94804000e+03
1325.000000 6.66305000e+03
1335.000000 6.67987000e+03
1345.000000 1.05477000e+04
1355.000000 1.11581000e+04
1365.000000 1.19016000e+04
1375.000000 1.35490000e+04
1385.000000 1.56729000e+04
1395.000000 1.88844000e+04
1405.000000 2.23077000e+04
1415.000000 2.18825000e+04
1425.000000 2.79566000e+04
1435.000000 2.76397000e+04
1442.000000 3.34957000e+04
1447.000000 4.09222000e+04
1455.000000 6.67303000e+04
1465.000000 7.56048000e+04
1475.000000 8.74159000e+04
1485.000000 1.12488000e+05
1495.000000 1.40696000e+05
1505.000000 1.60854000e+05
1512.000000 1.41067000e+05
1517.000000 8.30354000e+04
1525.000000 8.06486000e+04
1535.000000 4.38490000e+05
1545.000000 1.75832000e+06
1555.000000 1.30433000e+06
1565.000000 8.42926000e+05
1575.000000 1.64595000e+06
1585.000000 2.14156000e+06
1595.000000 3.19891000e+06
1605.000000 2.34254000e+06
1615.000000 1.86514000e+06
1625.000000 1.41701000e+06
1635.000000 1.50651000e+06
1645.000000 2.13687000e+06
1655.000000 1.15609000e+06
1665.000000 1.58167000e+06
1672.000000 2.13539000e+05
1677.000000 2.60679000e+06
1685.000000 3.91746000e+06
1695.000000 4.11868000e+06
1705.000000 3.17541000e+06
1715.000000 4.25002000e+06
1725.000000 4.83062000e+06
1735.000000 6.30418000e+06
1745.000000 5.25351000e+06
1755.000000 7.39056000e+06
1765.000000 5.42076000e+06
1775.000000 7.45083000e+06
1785.000000 5.82955000e+06
1795.000000 9.37268000e+06
1805.000000 7.80441000e+06
1815.000000 8.94242000e+06
1825.000000 7.42006000e+06
1835.000000 6.43910000e+06
1845.000000 6.12524000e+06
1855.000000 7.17062000e+06
1865.000000 7.93463000e+06
1875.000000 7.61940000e+06
1885.000000 7.89428000e+06
1895.000000 8.85124000e+06
1905.000000 7.76801000e+06
1915.000000 8.18635000e+06
1925.000000 8.57771000e+06
1935.000000 6.25339000e+06
1945.000000 9.45104000e+06
1955.000000 9.63492000e+06
1967.000000 1.07865000e+07
1976.000000 1.05708000e+07
1984.000000 1.02455000e+07
1995.000000 9.93405000e+06
2005.000000 9.14294000e+06
2015.000000 7.98873000e+06
2025.000000 7.83441000e+06
2035.000000 9.21259000e+06
2045.000000 1.04929000e+07
2055.000000 8.70389000e+06
2065.000000 8.23867000e+06
2074.000000 1.11150000e+07
2078.000000 1.17867000e+07
2085.000000 1.12008000e+07
2095.000000 1.03739000e+07
2105.000000 9.57335000e+06
2115.000000 9.56557000e+06
2125.000000 1.00364000e+07
2135.000000 7.15833000e+06
2145.000000 9.14102000e+06
2155.000000 9.73212000e+06
2165.000000 8.17079000e+06
2175.000000 8.37933000e+06
2185.000000 8.72813000e+06
2195.000000 1.00359000e+07
2205.000000 9.25780000e+06
2215.000000 7.26726000e+06
2225.000000 6.84496000e+06
2235.000000 9.46721000e+06
2245.000000 8.29399000e+06
2255.000000 6.64196000e+06
2265.000000 6.72311000e+06
2275.000000 8.16185000e+06
2285.000000 8.72840000e+06
2295.000000 7.87573000e+06
2305.000000 8.14364000e+06
2315.000000 7.36345000e+06
2325.000000 6.87694000e+06
2335.000000 4.24183000e+06
2345.000000 3.14029000e+06
2355.000000 5.82223000e+06
2365.000000 3.04881000e+06
2375.000000 4.46168000e+06
2385.000000 2.31148000e+06
2395.000000 3.26432000e+06
2405.000000 3.05030000e+06
2415.000000 4.37408000e+06
2425.000000 7.54788000e+06
2435.000000 7.12893000e+06
2445.000000 7.84020000e+06
2455.000000 7.77521000e+06
2465.000000 7.23361000e+06
2475.000000 6.92496000e+06
2485.000000 7.27687000e+06
2495.000000 6.93906000e+06
2505.000000 9.23118000e+06
2513.000000 6.73322000e+06
2518.000000 7.70949000e+06
2525.000000 5.99931000e+06
2535.000000 5.93800000e+06
2545.000000 5.96588000e+06
2555.000000 7.33084000e+06
2565.000000 6.02437000e+06
2575.000000 7.12934000e+06
2585.000000 6.26471000e+06
2595.000000 5.36784000e+06
2605.000000 4.55671000e+06
2615.000000 4.24735000e+06
2625.000000 5.71385000e+06
2635.000000 7.44428000e+06
2645.000000 1.14828000e+07
2655.000000 1.16230000e+07
2665.000000 9.07050000e+06
2675.000000 1.01158000e+07
2685.000000 9.69725000e+06
2695.000000 9.40238000e+06
2705.000000 1.00059000e+07
2715.000000 8.39246000e+06
2725.000000 8.53290000e+06
2735.000000 9.19434000e+06
2745.000000 4.87977000e+06
2755.000000 5.97007000e+06
2765.000000 7.13079000e+06
2775.000000 8.92238000e+06
2785.000000 6.82717000e+06
2795.000000 2.39709000e+06
2805.000000 3.15393000e+06
2815.000000 8.37966000e+06
2825.000000 1.09606000e+07
2835.000000 1.03702000e+07
2845.000000 1.00293000e+07
2855.000000 8.96827000e+06
2865.000000 1.09404000e+07
2875.000000 1.04196000e+07
2885.000000 1.08720000e+07
2895.000000 1.00972000e+07
2910.000000 1.25301000e+07
2930.000000 1.16768000e+07
2950.000000 1.15566000e+07
2970.000000 1.26243000e+07
2990.000000 1.28428000e+07
3010.000000 1.35492000e+07
3030.000000 1.33451000e+07
3050.000000 1.32079000e+07
3070.000000 1.32634000e+07
3090.000000 1.39954000e+07
3110.000000 1.33318000e+07
3130.000000 1.31955000e+07
3150.000000 1.40475000e+07
3170.000000 1.38989000e+07
3190.000000 1.28304000e+07
3210.000000 1.37101000e+07
3230.000000 1.30060000e+07
3250.000000 1.38390000e+07
3270.000000 1.41128000e+07
3290.000000 1.43099000e+07
3310.000000 1.47702000e+07
3330.000000 1.43154000e+07
3350.000000 1.41051000e+07
3370.000000 1.38718000e+07
3390.000000 1.42331000e+07
3410.000000 1.47771000e+07
3430.000000 1.50181000e+07
3450.000000 1.49239000e+07
3470.000000 1.46166000e+07
3490.000000 1.43784000e+07
3510.000000 1.50761000e+07
3530.000000 1.52997000e+07
3550.000000 1.57660000e+07
3570.000000 1.49443000e+07
3590.000000 1.50486000e+07
3610.000000 1.51520000e+07
3630.000000 1.54118000e+07
3640.000000 1.50514000e+07
3650.000000 1.58047000e+07
3670.000000 1.56474000e+07
3690.000000 1.72377000e+07
3710.000000 2.33081000e+07
3730.000000 3.60973000e+07
3750.000000 5.19960000e+07
3770.000000 5.26836000e+07
3790.000000 6.10594000e+07
3810.000000 6.64073000e+07
3830.000000 5.42716000e+07
3850.000000 6.69916000e+07
3870.000000 6.92440000e+07
3890.000000 5.37954000e+07
3910.000000 6.54319000e+07
3930.000000 4.63542000e+07
3950.000000 6.39903000e+07
3970.000000 4.34027000e+07
3990.000000 6.62893000e+07
4010.000000 6.62248000e+07
4030.000000 6.49103000e+07
4050.000000 6.43971000e+07
4070.000000 6.32359000e+07
4090.000000 6.31662000e+07
4110.000000 5.14130000e+07
4130.000000 6.19508000e+07
4150.000000 6.29104000e+07
4170.000000 6.05318000e+07
4190.000000 6.03974000e+07
4210.000000 5.97356000e+07
4230.000000 5.87384000e+07
4250.000000 5.85351000e+07
4270.000000 5.69075000e+07
4290.000000 5.77045000e+07
4310.000000 5.45521000e+07
4330.000000 5.22790000e+07
4350.000000 4.57371000e+07
4370.000000 5.57650000e+07
4390.000000 5.41360000e+07
4410.000000 5.27182000e+07
4430.000000 5.32415000e+07
4450.000000 5.32967000e+07
4470.000000 5.28208000e+07
4490.000000 5.24559000e+07
4510.000000 5.28937000e+07
4530.000000 5.10747000e+07
4550.000000 4.96695000e+07
4570.000000 5.14057000e+07
4590.000000 4.92171000e+07
4610.000000 5.10476000e+07
4630.000000 4.90592000e+07
4650.000000 4.98403000e+07
4670.000000 4.92260000e+07
4690.000000 4.81357000e+07
4710.000000 4.65017000e+07
4730.000000 4.78133000e+07
4750.000000 4.79242000e+07
4770.000000 4.69055000e+07
4790.000000 4.65475000e+07
4810.000000 4.59300000e+07
4830.000000 4.52775000e+07
4850.000000 4.12757000e+07
4870.000000 3.37322000e+07
4890.000000 4.36234000e+07
4910.000000 4.34953000e+07
4930.000000 4.22859000e+07
4950.000000 4.27690000e+07
4970.000000 4.29456000e+07
4990.000000 4.13190000e+07
5010.000000 3.95579000e+07
5030.000000 4.03086000e+07
5050.000000 3.99397000e+07
5070.000000 4.01206000e+07
5090.000000 3.96562000e+07
5110.000000 3.92901000e+07
5130.000000 3.82944000e+07
5150.000000 3.75387000e+07
5170.000000 3.67217000e+07
5190.000000 3.64490000e+07
5210.000000 3.63724000e+07
5230.000000 3.57683000e+07
5250.000000 3.62357000e+07
5270.000000 3.44664000e+07
5290.000000 3.56239000e+07
5310.000000 3.45089000e+07
5330.000000 3.40250000e+07
5350.000000 3.48582000e+07
5370.000000 3.43535000e+07
5390.000000 3.37878000e+07
5410.000000 3.31767000e+07
5430.000000 3.29187000e+07
5450.000000 3.32293000e+07
5470.000000 3.27992000e+07
5490.000000 3.26294000e+07
5510.000000 3.21299000e+07
5530.000000 3.18523000e+07
5550.000000 3.18995000e+07
5570.000000 3.14232000e+07
5590.000000 3.12059000e+07
5610.000000 3.10569000e+07
5630.000000 3.07950000e+07
5650.000000 3.02080000e+07
5670.000000 2.98792000e+07
5690.000000 2.99290000e+07
5710.000000 2.96920000e+07
5730.000000 2.95436000e+07
5750.000000 2.91630000e+07
5770.000000 2.89408000e+07
5790.000000 2.85603000e+07
5810.000000 2.83394000e+07
5830.000000 2.80456000e+07
5850.000000 2.78718000e+07
5870.000000 2.76111000e+07
5890.000000 2.69287000e+07
5910.000000 2.70552000e+07
5930.000000 2.68066000e+07
5950.000000 2.64618000e+07
5970.000000 2.63313000e+07
5990.000000 2.59142000e+07
6010.000000 2.56993000e+07
6030.000000 2.55840000e+07
6050.000000 2.52875000e+07
6070.000000 2.51508000e+07
6090.000000 2.48406000e+07
6110.000000 2.45552000e+07
6130.000000 2.42348000e+07
6150.000000 2.35734000e+07
6170.000000 2.38147000e+07
6190.000000 2.37702000e+07
6210.000000 2.36046000e+07
6230.000000 2.32252000e+07
6250.000000 2.24731000e+07
6270.000000 2.30027000e+07
6290.000000 2.27795000e+07
6310.000000 2.23098000e+07
6330.000000 2.22922000e+07
6350.000000 2.19054000e+07
6370.000000 2.17467000e+07
6390.000000 2.16920000e+07
6410.000000 2.13652000e+07
6430.000000 2.12790000e+07
6450.000000 2.07940000e+07
6470.000000 2.10275000e+07
6490.000000 2.04643000e+07
6510.000000 2.04356000e+07
6530.000000 2.03221000e+07
6550.000000 1.88082000e+07
6570.000000 1.48405000e+07
6590.000000 1.95729000e+07
6610.000000 1.96219000e+07
6630.000000 1.96006000e+07
6650.000000 1.94615000e+07
6670.000000 1.92553000e+07
6690.000000 1.91251000e+07
6710.000000 1.89787000e+07
6730.000000 1.87754000e+07
6750.000000 1.86188000e+07
6770.000000 1.85394000e+07
6790.000000 1.83404000e+07
6810.000000 1.82256000e+07
6830.000000 1.79873000e+07
6850.000000 1.78784000e+07
6870.000000 1.77649000e+07
6890.000000 1.76254000e+07
6910.000000 1.74667000e+07
6930.000000 1.73080000e+07
6950.000000 1.71828000e+07
6970.000000 1.70200000e+07
6990.000000 1.69088000e+07
7010.000000 1.66216000e+07
7030.000000 1.66041000e+07
7050.000000 1.64752000e+07
7070.000000 1.63618000e+07
7090.000000 1.62404000e+07
7110.000000 1.58041000e+07
7130.000000 1.58808000e+07
7150.000000 1.57877000e+07
7170.000000 1.56763000e+07
7190.000000 1.55039000e+07
7210.000000 1.53985000e+07
7230.000000 1.52312000e+07
7250.000000 1.51401000e+07
7270.000000 1.50683000e+07
7290.000000 1.48858000e+07
7310.000000 1.47199000e+07
7330.000000 1.46586000e+07
7350.000000 1.45671000e+07
7370.000000 1.45159000e+07
7390.000000 1.43512000e+07
7410.000000 1.41832000e+07
7430.000000 1.40087000e+07
7450.000000 1.39485000e+07
7470.000000 1.37531000e+07
7490.000000 1.37207000e+07
7510.000000 1.36197000e+07
7530.000000 1.35833000e+07
7550.000000 1.35346000e+07
7570.000000 1.33849000e+07
7590.000000 1.33164000e+07
7610.000000 1.32257000e+07
7630.000000 1.31202000e+07
7650.000000 1.29577000e+07
7670.000000 1.28550000e+07
7690.000000 1.27933000e+07
7710.000000 1.26345000e+07
7730.000000 1.26209000e+07
7750.000000 1.25182000e+07
7770.000000 1.21238000e+07
7790.000000 1.23509000e+07
7810.000000 1.22525000e+07
7830.000000 1.21132000e+07
7850.000000 1.19672000e+07
7870.000000 1.18931000e+07
7890.000000 1.17687000e+07
7910.000000 1.17243000e+07
7930.000000 1.16640000e+07
7950.000000 1.15023000e+07
7970.000000 1.15467000e+07
7990.000000 1.12836000e+07
8010.000000 1.13559000e+07
8030.000000 1.12567000e+07
8050.000000 1.11980000e+07
8070.000000 1.10980000e+07
8090.000000 1.10230000e+07
8110.000000 1.09561000e+07
8130.000000 1.08937000e+07
8150.000000 1.08143000e+07
8170.000000 1.07354000e+07
8190.000000 1.05028000e+07
8210.000000 1.04606000e+07
8230.000000 1.03870000e+07
8250.000000 1.03417000e+07
8270.000000 1.03980000e+07
8290.000000 1.02893000e+07
8310.000000 1.01793000e+07
8330.000000 9.95289000e+06
8350.000000 1.00404000e+07
8370.000000 9.76819000e+06
8390.000000 9.81961000e+06
8410.000000 9.77989000e+06
8430.000000 1.00670000e+07
8450.000000 9.83314000e+06
8470.000000 9.56620000e+06
8490.000000 1.04646000e+07
8510.000000 9.28713000e+06
8530.000000 1.06897000e+07
8550.000000 8.67736000e+06
8570.000000 1.09831000e+07
8590.000000 1.03081000e+07
8610.000000 1.00077000e+07
8630.000000 1.12735000e+07
8650.000000 1.10915000e+07
8670.000000 8.62225000e+06
8690.000000 1.08714000e+07
8710.000000 1.11463000e+07
8730.000000 1.09698000e+07
8750.000000 8.91702000e+06
8770.000000 1.07308000e+07
8790.000000 1.09078000e+07
8810.000000 1.07763000e+07
8830.000000 1.05174000e+07
8850.000000 1.01625000e+07
8870.000000 8.62566000e+06
8890.000000 1.04316000e+07
8910.000000 1.03735000e+07
8930.000000 1.02817000e+07
8950.000000 1.03153000e+07
8970.000000 1.02221000e+07
8990.000000 1.00596000e+07
9010.000000 8.47199000e+06
9030.000000 9.36038000e+06
9050.000000 9.90552000e+06
9070.000000 9.58895000e+06
9090.000000 9.45698000e+06
9110.000000 9.61886000e+06
9130.000000 9.62377000e+06
9150.000000 9.62134000e+06
9170.000000 9.50953000e+06
9190.000000 9.35711000e+06
9210.000000 9.14198000e+06
9230.000000 7.41494000e+06
9250.000000 8.84954000e+06
9270.000000 8.88329000e+06
9290.000000 9.12663000e+06
9310.000000 9.08529000e+06
9330.000000 8.99618000e+06
9350.000000 8.96420000e+06
9370.000000 8.91567000e+06
9390.000000 8.76408000e+06
9410.000000 8.48904000e+06
9430.000000 8.64244000e+06
9450.000000 8.62446000e+06
9470.000000 8.57841000e+06
9490.000000 8.54438000e+06
9510.000000 8.45141000e+06
9530.000000 8.23470000e+06
9550.000000 6.76483000e+06
9570.000000 8.17547000e+06
9590.000000 8.23931000e+06
9610.000000 8.12061000e+06
9630.000000 7.95936000e+06
9650.000000 8.05707000e+06
9670.000000 7.91580000e+06
9690.000000 7.90402000e+06
9710.000000 7.93743000e+06
9730.000000 7.87140000e+06
9750.000000 7.77573000e+06
9770.000000 7.77590000e+06
9790.000000 7.71861000e+06
9810.000000 7.65194000e+06
9830.000000 7.58926000e+06
9850.000000 7.49091000e+06
9870.000000 7.46715000e+06
9890.000000 7.38075000e+06
9910.000000 7.37784000e+06
9930.000000 7.32485000e+06
9950.000000 7.28059000e+06
9970.000000 7.26770000e+06
9990.000000 7.21561000e+06
10025.000000 6.90029000e+06
10075.000000 6.55250000e+06
10125.000000 6.80582000e+06
10175.000000 6.76420000e+06
10225.000000 6.68164000e+06
10275.000000 6.58251000e+06
10325.000000 6.44152000e+06
10375.000000 6.35928000e+06
10425.000000 6.26481000e+06
10475.000000 6.09253000e+06
10525.000000 6.01709000e+06
10575.000000 5.95022000e+06
10625.000000 5.85965000e+06
10675.000000 5.66802000e+06
10725.000000 5.64739000e+06
10775.000000 5.57303000e+06
10825.000000 5.49338000e+06
10875.000000 5.40985000e+06
10925.000000 4.88352000e+06
10975.000000 5.18192000e+06
11025.000000 5.20414000e+06
11075.000000 5.13023000e+06
11125.000000 5.03947000e+06
11175.000000 4.97004000e+06
11225.000000 4.90224000e+06
11275.000000 4.73558000e+06
11325.000000 4.67506000e+06
11375.000000 4.66520000e+06
11425.000000 4.57742000e+06
11475.000000 4.55163000e+06
11525.000000 4.48897000e+06
11575.000000 4.41737000e+06
11625.000000 4.30418000e+06
11675.000000 4.21903000e+06
11725.000000 4.23327000e+06
11775.000000 4.09659000e+06
11825.000000 4.07414000e+06
11875.000000 3.99396000e+06
11925.000000 4.00266000e+06
11975.000000 3.90888000e+06
12025.000000 3.87540000e+06
12075.000000 3.81262000e+06
12125.000000 3.76203000e+06
12175.000000 3.72179000e+06
12225.000000 3.66494000e+06
12275.000000 3.60714000e+06
12325.000000 3.56206000e+06
12375.000000 3.51857000e+06
12425.000000 3.47884000e+06
12475.000000 3.41663000e+06
12525.000000 3.37716000e+06
12575.000000 3.30676000e+06
12625.000000 3.27755000e+06
12675.000000 3.24776000e+06
12725.000000 3.20809000e+06
12775.000000 3.15187000e+06
12825.000000 2.85638000e+06
12875.000000 3.07264000e+06
12925.000000 3.03741000e+06
12975.000000 2.99794000e+06
13025.000000 2.96164000e+06
13075.000000 2.92405000e+06
13125.000000 2.88344000e+06
13175.000000 2.83317000e+06
13225.000000 2.81071000e+06
13275.000000 2.77418000e+06
13325.000000 2.73961000e+06
13375.000000 2.70442000e+06
13425.000000 2.66738000e+06
13475.000000 2.63331000e+06
13525.000000 2.59225000e+06
13575.000000 2.56031000e+06
13625.000000 2.53384000e+06
13675.000000 2.49702000e+06
13725.000000 2.44766000e+06
13775.000000 2.43528000e+06
13825.000000 2.40686000e+06
13875.000000 2.38367000e+06
13925.000000 2.34541000e+06
13975.000000 2.32171000e+06
14025.000000 2.29446000e+06
14075.000000 2.26811000e+06
14125.000000 2.23754000e+06
14175.000000 2.21110000e+06
14225.000000 2.18366000e+06
14275.000000 2.15675000e+06
14325.000000 2.13162000e+06
14375.000000 2.10807000e+06
14425.000000 2.04677000e+06
14475.000000 2.05567000e+06
14525.000000 2.01315000e+06
14570.000000 2.00889000e+06
14620.000000 1.98002000e+06
14675.000000 1.96276000e+06
14725.000000 1.93572000e+06
14775.000000 1.90590000e+06
14825.000000 1.88930000e+06
14875.000000 1.85857000e+06
14925.000000 1.85003000e+06
14975.000000 1.82493000e+06
15025.000000 1.78911000e+06
15075.000000 1.77096000e+06
15125.000000 1.75499000e+06
15175.000000 1.73722000e+06
