# Kurucz ODFNEW /NOVER, alpha: 0.0 (2003)
# teff = 9500 K (value for the effective temperature for the model. Temperatures are given in K)
# logg = 4.5 log(cm/s2) (value for Log(G) for the model.)
# lh = 1.25  (l/Hp where l is the  mixing length of the convective element and Hp is the pressure scale height)
# meta = -1  (value for the Metallicity for the model.)
# vtur = 2 km/s (Microturbulence velocity)
# alpha = 0  (Alpha)
#
# column 1: WAVELENGTH (ANGSTROM), Wavelength in Angstrom
# column 2: FLUX (ERG/CM2/S/A), Flux in erg/cm2/s/A
268.500000 1.54079000e-23
273.500000 1.24171000e-22
278.500000 5.36226000e-22
284.000000 2.45190000e-21
290.000000 1.19752000e-20
296.000000 5.47448000e-20
301.000000 1.85473000e-19
308.000000 9.57113000e-19
318.000000 8.78715000e-18
328.000000 7.03146000e-17
338.000000 4.96155000e-16
348.000000 3.12199000e-15
357.000000 1.49324000e-14
366.000000 6.60196000e-14
375.000000 2.71165000e-13
385.000000 1.20309000e-12
395.000000 4.93702000e-12
405.000000 1.88508000e-11
414.000000 5.94605000e-11
422.000000 1.58167000e-10
430.000000 4.05091000e-10
441.000000 1.39303000e-09
451.000000 4.05343000e-09
460.000000 1.01710000e-08
470.000000 2.70771000e-08
480.000000 6.90671000e-08
490.000000 1.69238000e-07
500.000000 3.99273000e-07
506.000000 6.75031000e-07
512.000000 1.10869000e-06
520.000000 2.07452000e-06
530.000000 4.41923000e-06
540.000000 9.12729000e-06
550.000000 1.83570000e-05
560.000000 3.59383000e-05
570.000000 6.86160000e-05
580.000000 1.27869000e-04
590.000000 2.33364000e-04
600.000000 4.16642000e-04
610.000000 7.28927000e-04
620.000000 1.25083000e-03
630.000000 2.10765000e-03
640.000000 3.49063000e-03
650.000000 5.68563000e-03
658.000000 8.30379000e-03
665.000000 1.14742000e-02
675.000000 1.79846000e-02
685.000000 2.77964000e-02
695.000000 4.23865000e-02
705.000000 6.38020000e-02
716.000000 9.86253000e-02
726.000000 1.44730000e-01
735.000000 2.02436000e-01
745.000000 2.90890000e-01
755.000000 4.13637000e-01
765.000000 5.82303000e-01
775.000000 8.11885000e-01
785.000000 1.12152000e+00
795.000000 1.53565000e+00
805.000000 2.08472000e+00
815.000000 2.80682000e+00
825.000000 3.74922000e+00
835.000000 4.96993000e+00
845.000000 6.53977000e+00
855.000000 8.54492000e+00
865.000000 1.10885000e+01
875.000000 1.42947000e+01
885.000000 1.83106000e+01
895.000000 2.33113000e+01
905.000000 2.95022000e+01
915.000000 1.16264000e+02
925.000000 7.75011000e+02
935.000000 1.39966000e+03
945.000000 2.62509000e+03
955.000000 3.96608000e+03
965.000000 5.36801000e+03
975.000000 4.02835000e+03
985.000000 8.38902000e+03
995.000000 9.70301000e+03
1005.000000 1.17641000e+04
1015.000000 1.20575000e+04
1025.000000 7.21026000e+03
1035.000000 1.53748000e+04
1045.000000 2.04926000e+04
1055.000000 2.38448000e+04
1065.000000 2.66887000e+04
1075.000000 3.11982000e+04
1085.000000 3.54096000e+04
1095.000000 3.90106000e+04
1105.000000 1.19159000e+05
1115.000000 4.12055000e+06
1125.000000 6.05654000e+06
1135.000000 7.39495000e+06
1145.000000 5.39882000e+06
1155.000000 3.47550000e+06
1165.000000 1.59316000e+06
1175.000000 4.32797000e+05
1185.000000 2.46952000e+05
1195.000000 1.02776000e+05
1205.000000 7.40966000e+04
1215.000000 2.12820000e+04
1225.000000 7.96677000e+04
1235.000000 1.60105000e+05
1245.000000 2.54179000e+05
1255.000000 6.39258000e+05
1265.000000 2.14404000e+06
1275.000000 7.12475000e+06
1285.000000 1.88565000e+07
1295.000000 2.72962000e+07
1305.000000 2.66826000e+07
1315.000000 4.09773000e+07
1325.000000 5.01634000e+07
1335.000000 5.56018000e+07
1345.000000 6.62964000e+07
1355.000000 6.31239000e+07
1365.000000 6.24632000e+07
1375.000000 6.14225000e+07
1385.000000 5.29598000e+07
1395.000000 5.21297000e+07
1405.000000 6.91807000e+07
1415.000000 8.38308000e+07
1425.000000 9.04837000e+07
1435.000000 8.34495000e+07
1442.000000 9.45391000e+07
1447.000000 9.66469000e+07
1455.000000 9.96159000e+07
1465.000000 9.28542000e+07
1475.000000 9.25293000e+07
1485.000000 9.37354000e+07
1495.000000 9.80665000e+07
1505.000000 1.00078000e+08
1512.000000 9.57716000e+07
1517.000000 9.95073000e+07
1525.000000 9.61252000e+07
1535.000000 9.57003000e+07
1545.000000 9.89224000e+07
1555.000000 8.67217000e+07
1565.000000 7.33963000e+07
1575.000000 8.66518000e+07
1585.000000 9.15526000e+07
1595.000000 9.50018000e+07
1605.000000 9.10898000e+07
1615.000000 9.42493000e+07
1625.000000 8.94991000e+07
1635.000000 9.46127000e+07
1645.000000 1.03446000e+08
1655.000000 8.61876000e+07
1665.000000 1.03757000e+08
1672.000000 8.72415000e+07
1677.000000 9.82342000e+07
1685.000000 1.05272000e+08
1695.000000 9.69011000e+07
1705.000000 9.67138000e+07
1715.000000 1.00067000e+08
1725.000000 9.79886000e+07
1735.000000 1.01897000e+08
1745.000000 9.88310000e+07
1755.000000 1.03219000e+08
1765.000000 9.31198000e+07
1775.000000 1.00625000e+08
1785.000000 9.93509000e+07
1795.000000 1.04175000e+08
1805.000000 9.97377000e+07
1815.000000 9.87949000e+07
1825.000000 9.53003000e+07
1835.000000 9.51360000e+07
1845.000000 8.97371000e+07
1855.000000 9.25175000e+07
1865.000000 9.33791000e+07
1875.000000 9.48782000e+07
1885.000000 9.47129000e+07
1895.000000 9.37789000e+07
1905.000000 9.05691000e+07
1915.000000 9.21384000e+07
1925.000000 9.29201000e+07
1935.000000 8.97838000e+07
1945.000000 9.39905000e+07
1955.000000 9.30383000e+07
1967.000000 9.35395000e+07
1976.000000 9.10096000e+07
1984.000000 8.98627000e+07
1995.000000 8.87921000e+07
2005.000000 8.67756000e+07
2015.000000 8.47641000e+07
2025.000000 8.37029000e+07
2035.000000 8.63310000e+07
2045.000000 8.70427000e+07
2055.000000 8.40861000e+07
2065.000000 8.34424000e+07
2074.000000 8.56222000e+07
2078.000000 8.67080000e+07
2085.000000 8.61173000e+07
2095.000000 8.37203000e+07
2105.000000 8.29149000e+07
2115.000000 8.27180000e+07
2125.000000 8.27021000e+07
2135.000000 7.63017000e+07
2145.000000 8.13603000e+07
2155.000000 8.05681000e+07
2165.000000 7.76168000e+07
2175.000000 7.69844000e+07
2185.000000 7.71817000e+07
2195.000000 8.00917000e+07
2205.000000 7.72849000e+07
2215.000000 7.29843000e+07
2225.000000 7.31440000e+07
2235.000000 7.80123000e+07
2245.000000 7.33886000e+07
2255.000000 7.16849000e+07
2265.000000 7.09880000e+07
2275.000000 7.42741000e+07
2285.000000 7.52777000e+07
2295.000000 7.18121000e+07
2305.000000 7.18002000e+07
2315.000000 7.07313000e+07
2325.000000 7.08281000e+07
2335.000000 6.98703000e+07
2345.000000 6.51529000e+07
2355.000000 6.97551000e+07
2365.000000 6.55428000e+07
2375.000000 6.78238000e+07
2385.000000 6.21552000e+07
2395.000000 6.61638000e+07
2405.000000 6.42977000e+07
2415.000000 6.49756000e+07
2425.000000 6.66702000e+07
2435.000000 6.40905000e+07
2445.000000 6.65733000e+07
2455.000000 6.51070000e+07
2465.000000 6.42450000e+07
2475.000000 6.22324000e+07
2485.000000 6.44901000e+07
2495.000000 6.28788000e+07
2505.000000 6.63762000e+07
2513.000000 6.31922000e+07
2518.000000 6.30306000e+07
2525.000000 5.99399000e+07
2535.000000 5.95676000e+07
2545.000000 5.95134000e+07
2555.000000 6.24302000e+07
2565.000000 6.21620000e+07
2575.000000 6.44925000e+07
2585.000000 6.46710000e+07
2595.000000 6.44477000e+07
2605.000000 6.24272000e+07
2615.000000 6.19837000e+07
2625.000000 6.29721000e+07
2635.000000 6.32980000e+07
2645.000000 6.69452000e+07
2655.000000 6.63135000e+07
2665.000000 6.36951000e+07
2675.000000 6.47676000e+07
2685.000000 6.52476000e+07
2695.000000 6.32134000e+07
2705.000000 6.33853000e+07
2715.000000 6.15546000e+07
2725.000000 6.15248000e+07
2735.000000 6.36442000e+07
2745.000000 5.86066000e+07
2755.000000 5.88470000e+07
2765.000000 6.05509000e+07
2775.000000 6.23216000e+07
2785.000000 6.14912000e+07
2795.000000 5.38762000e+07
2805.000000 5.75147000e+07
2815.000000 6.28451000e+07
2825.000000 6.24010000e+07
2835.000000 6.09819000e+07
2845.000000 5.97022000e+07
2855.000000 5.84805000e+07
2865.000000 6.00465000e+07
2875.000000 5.92466000e+07
2885.000000 6.01402000e+07
2895.000000 5.97164000e+07
2910.000000 6.17316000e+07
2930.000000 5.99307000e+07
2950.000000 5.95797000e+07
2970.000000 5.95232000e+07
2990.000000 5.93490000e+07
3010.000000 5.96149000e+07
3030.000000 5.92737000e+07
3050.000000 5.87702000e+07
3070.000000 5.81708000e+07
3090.000000 5.81778000e+07
3110.000000 5.75605000e+07
3130.000000 5.70772000e+07
3150.000000 5.70305000e+07
3170.000000 5.66768000e+07
3190.000000 5.53168000e+07
3210.000000 5.56862000e+07
3230.000000 5.49193000e+07
3250.000000 5.50159000e+07
3270.000000 5.50742000e+07
3290.000000 5.49427000e+07
3310.000000 5.47621000e+07
3330.000000 5.39976000e+07
3350.000000 5.32507000e+07
3370.000000 5.31446000e+07
3390.000000 5.26866000e+07
3410.000000 5.28641000e+07
3430.000000 5.25248000e+07
3450.000000 5.22183000e+07
3470.000000 5.18027000e+07
3490.000000 5.15447000e+07
3510.000000 5.14268000e+07
3530.000000 5.11995000e+07
3550.000000 5.09261000e+07
3570.000000 5.03630000e+07
3590.000000 5.00840000e+07
3610.000000 4.97821000e+07
3630.000000 4.95238000e+07
3640.000000 4.93630000e+07
3650.000000 4.95849000e+07
3670.000000 4.94571000e+07
3690.000000 4.80564000e+07
3710.000000 4.76629000e+07
3730.000000 4.68932000e+07
3750.000000 5.62208000e+07
3770.000000 5.92227000e+07
3790.000000 7.21719000e+07
3810.000000 8.57783000e+07
3830.000000 6.82941000e+07
3850.000000 9.69597000e+07
3870.000000 1.12597000e+08
3890.000000 5.89439000e+07
3910.000000 1.13353000e+08
3930.000000 1.26101000e+08
3950.000000 1.13119000e+08
3970.000000 5.68289000e+07
3990.000000 1.06376000e+08
4010.000000 1.27684000e+08
4030.000000 1.29568000e+08
4050.000000 1.27258000e+08
4070.000000 1.18007000e+08
4090.000000 8.31038000e+07
4110.000000 6.26265000e+07
4130.000000 1.09417000e+08
4150.000000 1.18884000e+08
4170.000000 1.19720000e+08
4190.000000 1.18859000e+08
4210.000000 1.17497000e+08
4230.000000 1.15388000e+08
4250.000000 1.14004000e+08
4270.000000 1.11598000e+08
4290.000000 1.08603000e+08
4310.000000 9.94811000e+07
4330.000000 6.83035000e+07
4350.000000 5.79095000e+07
4370.000000 9.42075000e+07
4390.000000 1.00971000e+08
4410.000000 1.01973000e+08
4430.000000 1.01574000e+08
4450.000000 1.00869000e+08
4470.000000 9.96403000e+07
4490.000000 9.77249000e+07
4510.000000 9.73972000e+07
4530.000000 9.61169000e+07
4550.000000 9.45386000e+07
4570.000000 9.39420000e+07
4590.000000 9.25797000e+07
4610.000000 9.18207000e+07
4630.000000 9.03983000e+07
4650.000000 8.95596000e+07
4670.000000 8.84348000e+07
4690.000000 8.69594000e+07
4710.000000 8.49387000e+07
4730.000000 8.49544000e+07
4750.000000 8.37963000e+07
4770.000000 8.24775000e+07
4790.000000 8.08740000e+07
4810.000000 7.83189000e+07
4830.000000 7.23296000e+07
4850.000000 5.30136000e+07
4870.000000 4.30563000e+07
4890.000000 6.71515000e+07
4910.000000 7.31578000e+07
4930.000000 7.38783000e+07
4950.000000 7.39898000e+07
4970.000000 7.35145000e+07
4990.000000 7.27508000e+07
5010.000000 7.17209000e+07
5030.000000 7.12544000e+07
5050.000000 7.03721000e+07
5070.000000 6.97637000e+07
5090.000000 6.89694000e+07
5110.000000 6.81911000e+07
5130.000000 6.74027000e+07
5150.000000 6.66089000e+07
5170.000000 6.52954000e+07
5190.000000 6.47833000e+07
5210.000000 6.43924000e+07
5230.000000 6.35235000e+07
5250.000000 6.30199000e+07
5270.000000 6.20989000e+07
5290.000000 6.16208000e+07
5310.000000 6.08489000e+07
5330.000000 6.01756000e+07
5350.000000 5.96291000e+07
5370.000000 5.89350000e+07
5390.000000 5.83130000e+07
5410.000000 5.76291000e+07
5430.000000 5.70533000e+07
5450.000000 5.64628000e+07
5470.000000 5.58593000e+07
5490.000000 5.52768000e+07
5510.000000 5.46901000e+07
5530.000000 5.40747000e+07
5550.000000 5.35402000e+07
5570.000000 5.29596000e+07
5590.000000 5.23957000e+07
5610.000000 5.18564000e+07
5630.000000 5.13246000e+07
5650.000000 5.07837000e+07
5670.000000 5.02503000e+07
5690.000000 4.97347000e+07
5710.000000 4.92206000e+07
5730.000000 4.87227000e+07
5750.000000 4.82111000e+07
5770.000000 4.77202000e+07
5790.000000 4.72315000e+07
5810.000000 4.67506000e+07
5830.000000 4.62764000e+07
5850.000000 4.58042000e+07
5870.000000 4.53122000e+07
5890.000000 4.47357000e+07
5910.000000 4.44302000e+07
5930.000000 4.39864000e+07
5950.000000 4.35390000e+07
5970.000000 4.31093000e+07
5990.000000 4.26717000e+07
6010.000000 4.22464000e+07
6030.000000 4.18371000e+07
6050.000000 4.14240000e+07
6070.000000 4.10206000e+07
6090.000000 4.06176000e+07
6110.000000 4.02189000e+07
6130.000000 3.98175000e+07
6150.000000 3.93767000e+07
6170.000000 3.90426000e+07
6190.000000 3.86797000e+07
6210.000000 3.83068000e+07
6230.000000 3.79341000e+07
6250.000000 3.75345000e+07
6270.000000 3.72150000e+07
6290.000000 3.68597000e+07
6310.000000 3.64977000e+07
6330.000000 3.61555000e+07
6350.000000 3.57310000e+07
6370.000000 3.54272000e+07
6390.000000 3.51209000e+07
6410.000000 3.47187000e+07
6430.000000 3.43682000e+07
6450.000000 3.39570000e+07
6470.000000 3.35818000e+07
6490.000000 3.30720000e+07
6510.000000 3.23322000e+07
6530.000000 3.07464000e+07
6550.000000 2.58629000e+07
6570.000000 2.10032000e+07
6590.000000 2.85817000e+07
6610.000000 3.05128000e+07
6630.000000 3.08887000e+07
6650.000000 3.08522000e+07
6670.000000 3.06802000e+07
6690.000000 3.04634000e+07
6710.000000 3.02226000e+07
6730.000000 2.99975000e+07
6750.000000 2.97423000e+07
6770.000000 2.94887000e+07
6790.000000 2.92246000e+07
6810.000000 2.89630000e+07
6830.000000 2.86999000e+07
6850.000000 2.84467000e+07
6870.000000 2.81951000e+07
6890.000000 2.79452000e+07
6910.000000 2.76992000e+07
6930.000000 2.74533000e+07
6950.000000 2.72128000e+07
6970.000000 2.69731000e+07
6990.000000 2.67380000e+07
7010.000000 2.64967000e+07
7030.000000 2.62700000e+07
7050.000000 2.60430000e+07
7070.000000 2.58183000e+07
7090.000000 2.55964000e+07
7110.000000 2.53304000e+07
7130.000000 2.51492000e+07
7150.000000 2.49350000e+07
7170.000000 2.47243000e+07
7190.000000 2.45119000e+07
7210.000000 2.43036000e+07
7230.000000 2.40965000e+07
7250.000000 2.38878000e+07
7270.000000 2.36902000e+07
7290.000000 2.34867000e+07
7310.000000 2.32893000e+07
7330.000000 2.30936000e+07
7350.000000 2.29019000e+07
7370.000000 2.27098000e+07
7390.000000 2.25180000e+07
7410.000000 2.23260000e+07
7430.000000 2.21336000e+07
7450.000000 2.19552000e+07
7470.000000 2.17608000e+07
7490.000000 2.15870000e+07
7510.000000 2.14161000e+07
7530.000000 2.12420000e+07
7550.000000 2.10695000e+07
7570.000000 2.08965000e+07
7590.000000 2.07257000e+07
7610.000000 2.05564000e+07
7630.000000 2.03886000e+07
7650.000000 2.02210000e+07
7670.000000 2.00542000e+07
7690.000000 1.98946000e+07
7710.000000 1.97319000e+07
7730.000000 1.95764000e+07
7750.000000 1.94178000e+07
7770.000000 1.90696000e+07
7790.000000 1.91084000e+07
7810.000000 1.89556000e+07
7830.000000 1.88018000e+07
7850.000000 1.86486000e+07
7870.000000 1.84858000e+07
7890.000000 1.83293000e+07
7910.000000 1.82084000e+07
7930.000000 1.80658000e+07
7950.000000 1.79142000e+07
7970.000000 1.77870000e+07
7990.000000 1.76149000e+07
8010.000000 1.75077000e+07
8030.000000 1.73703000e+07
8050.000000 1.72353000e+07
8070.000000 1.71008000e+07
8090.000000 1.69680000e+07
8110.000000 1.68374000e+07
8130.000000 1.67074000e+07
8150.000000 1.65784000e+07
8170.000000 1.64511000e+07
8190.000000 1.63034000e+07
8210.000000 1.62297000e+07
8230.000000 1.61103000e+07
8250.000000 1.59930000e+07
8270.000000 1.59069000e+07
8290.000000 1.57941000e+07
8310.000000 1.56849000e+07
8330.000000 1.55445000e+07
8350.000000 1.54631000e+07
8370.000000 1.53484000e+07
8390.000000 1.52261000e+07
8410.000000 1.51026000e+07
8430.000000 1.49759000e+07
8450.000000 1.47964000e+07
8470.000000 1.46342000e+07
8490.000000 1.46416000e+07
8510.000000 1.42025000e+07
8530.000000 1.44694000e+07
8550.000000 1.35876000e+07
8570.000000 1.44290000e+07
8590.000000 1.36089000e+07
8610.000000 1.33506000e+07
8630.000000 1.43804000e+07
8650.000000 1.37364000e+07
8670.000000 1.18814000e+07
8690.000000 1.39640000e+07
8710.000000 1.44263000e+07
8730.000000 1.37231000e+07
8750.000000 1.10540000e+07
8770.000000 1.29810000e+07
8790.000000 1.42585000e+07
8810.000000 1.44423000e+07
8830.000000 1.39663000e+07
8850.000000 1.21798000e+07
8870.000000 1.04553000e+07
8890.000000 1.30734000e+07
8910.000000 1.39738000e+07
8930.000000 1.41914000e+07
8950.000000 1.41450000e+07
8970.000000 1.37519000e+07
8990.000000 1.27543000e+07
9010.000000 1.01310000e+07
9030.000000 1.09760000e+07
9050.000000 1.28259000e+07
9070.000000 1.33427000e+07
9090.000000 1.34286000e+07
9110.000000 1.35427000e+07
9130.000000 1.35001000e+07
9150.000000 1.33489000e+07
9170.000000 1.30771000e+07
9190.000000 1.25389000e+07
9210.000000 1.13018000e+07
9230.000000 8.90341000e+06
9250.000000 1.08441000e+07
9270.000000 1.20073000e+07
9290.000000 1.25031000e+07
9310.000000 1.26159000e+07
9330.000000 1.26138000e+07
9350.000000 1.25668000e+07
9370.000000 1.24960000e+07
9390.000000 1.24001000e+07
9410.000000 1.22258000e+07
9430.000000 1.22002000e+07
9450.000000 1.20740000e+07
9470.000000 1.19008000e+07
9490.000000 1.16235000e+07
9510.000000 1.10865000e+07
9530.000000 9.85576000e+06
9550.000000 8.01974000e+06
9570.000000 9.96317000e+06
9590.000000 1.08790000e+07
9610.000000 1.11764000e+07
9630.000000 1.12291000e+07
9650.000000 1.12684000e+07
9670.000000 1.11876000e+07
9690.000000 1.11699000e+07
9710.000000 1.11116000e+07
9730.000000 1.10413000e+07
9750.000000 1.09675000e+07
9770.000000 1.08966000e+07
9790.000000 1.08219000e+07
9810.000000 1.07465000e+07
9830.000000 1.06692000e+07
9850.000000 1.05895000e+07
9870.000000 1.05118000e+07
9890.000000 1.04142000e+07
9910.000000 1.03473000e+07
9930.000000 1.02522000e+07
9950.000000 1.01478000e+07
9970.000000 1.00105000e+07
9990.000000 9.79797000e+06
10025.000000 8.62911000e+06
10075.000000 8.19777000e+06
10125.000000 9.41937000e+06
10175.000000 9.44129000e+06
10225.000000 9.32359000e+06
10275.000000 9.19346000e+06
10325.000000 9.04350000e+06
10375.000000 8.89600000e+06
10425.000000 8.75055000e+06
10475.000000 8.59752000e+06
10525.000000 8.46399000e+06
10575.000000 8.32890000e+06
10625.000000 8.19496000e+06
10675.000000 8.00961000e+06
10725.000000 7.89940000e+06
10775.000000 7.77304000e+06
10825.000000 7.60271000e+06
10875.000000 7.29118000e+06
10925.000000 6.00908000e+06
10975.000000 6.56591000e+06
11025.000000 7.06345000e+06
11075.000000 7.05602000e+06
11125.000000 6.97326000e+06
11175.000000 6.88384000e+06
11225.000000 6.78259000e+06
11275.000000 6.65915000e+06
11325.000000 6.55642000e+06
11375.000000 6.47474000e+06
11425.000000 6.37577000e+06
11475.000000 6.28371000e+06
11525.000000 6.18988000e+06
11575.000000 6.09715000e+06
11625.000000 5.99910000e+06
11675.000000 5.89863000e+06
11725.000000 5.83007000e+06
11775.000000 5.71382000e+06
11825.000000 5.64943000e+06
11875.000000 5.56536000e+06
11925.000000 5.49627000e+06
11975.000000 5.40843000e+06
12025.000000 5.33672000e+06
12075.000000 5.25747000e+06
12125.000000 5.18319000e+06
12175.000000 5.11097000e+06
12225.000000 5.03749000e+06
12275.000000 4.96453000e+06
12325.000000 4.89482000e+06
12375.000000 4.82656000e+06
12425.000000 4.75973000e+06
12475.000000 4.69091000e+06
12525.000000 4.62616000e+06
12575.000000 4.55395000e+06
12625.000000 4.48155000e+06
12675.000000 4.40827000e+06
12725.000000 4.30250000e+06
12775.000000 4.04152000e+06
12825.000000 3.44250000e+06
12875.000000 3.98511000e+06
12925.000000 4.08356000e+06
12975.000000 4.06311000e+06
13025.000000 4.01976000e+06
13075.000000 3.97564000e+06
13125.000000 3.92332000e+06
13175.000000 3.86929000e+06
13225.000000 3.81984000e+06
13275.000000 3.76910000e+06
13325.000000 3.71922000e+06
13375.000000 3.67020000e+06
13425.000000 3.62201000e+06
13475.000000 3.57422000e+06
13525.000000 3.52663000e+06
13575.000000 3.48128000e+06
13625.000000 3.43650000e+06
13675.000000 3.39167000e+06
13725.000000 3.34501000e+06
13775.000000 3.30488000e+06
13825.000000 3.26249000e+06
13875.000000 3.22141000e+06
13925.000000 3.17967000e+06
13975.000000 3.13979000e+06
14025.000000 3.10001000e+06
14075.000000 3.06110000e+06
14125.000000 3.02247000e+06
14175.000000 2.98469000e+06
14225.000000 2.94717000e+06
14275.000000 2.91048000e+06
14325.000000 2.87441000e+06
14375.000000 2.83877000e+06
14425.000000 2.79505000e+06
14475.000000 2.76912000e+06
