# Kurucz ODFNEW /NOVER, alpha: 0.0 (2003)
# teff = 34000 K (value for the effective temperature for the model. Temperatures are given in K)
# logg = 5 log(cm/s2) (value for Log(G) for the model.)
# lh = 1.25  (l/Hp where l is the  mixing length of the convective element and Hp is the pressure scale height)
# meta = -0.5  (value for the Metallicity for the model.)
# vtur = 2 km/s (Microturbulence velocity)
# alpha = 0  (Alpha)
#
# column 1: WAVELENGTH (ANGSTROM), Wavelength in Angstrom
# column 2: FLUX (ERG/CM2/S/A), Flux in erg/cm2/s/A
147.200000 5.32829000e-05
151.000000 1.34493000e-04
155.200000 3.55693000e-04
158.800000 7.87328000e-04
162.000000 1.55133000e-03
166.000000 3.49660000e-03
170.300000 8.03116000e-03
173.400000 1.42836000e-02
176.800000 2.62725000e-02
180.200000 4.72338000e-02
181.700000 6.08326000e-02
186.100000 1.24735000e-01
191.000000 2.67431000e-01
193.900000 4.12640000e-01
198.400000 7.90085000e-01
201.800000 1.26646000e+00
205.000000 1.94761000e+00
210.500000 3.96631000e+00
216.200000 7.97885000e+00
219.800000 1.22099000e+01
223.000000 1.76081000e+01
226.800000 2.68143000e+01
230.000000 1.34782000e+04
234.000000 4.18065000e+04
240.000000 6.74319000e+04
246.500000 1.09797000e+05
252.400000 1.70583000e+05
256.800000 2.07342000e+05
260.000000 3.37959000e+05
264.000000 4.94047000e+05
268.500000 6.93393000e+05
273.500000 9.13138000e+05
278.500000 1.11840000e+06
284.000000 2.00252000e+06
290.000000 2.72199000e+06
296.000000 3.43359000e+06
301.000000 4.44503000e+06
308.000000 7.80233000e+06
318.000000 1.59895000e+07
328.000000 2.15479000e+07
338.000000 3.36255000e+07
348.000000 4.75858000e+07
357.000000 7.22368000e+07
366.000000 1.07848000e+08
375.000000 1.27382000e+08
385.000000 1.66658000e+08
395.000000 2.19832000e+08
405.000000 2.63533000e+08
414.000000 3.18491000e+08
422.000000 3.53514000e+08
430.000000 4.01933000e+08
441.000000 4.86329000e+08
451.000000 5.61498000e+08
460.000000 6.17046000e+08
470.000000 7.15632000e+08
480.000000 8.20024000e+08
490.000000 9.08889000e+08
500.000000 1.05385000e+09
506.000000 2.51299000e+09
512.000000 1.21939000e+10
520.000000 1.14823000e+10
530.000000 1.09380000e+10
540.000000 9.81874000e+09
550.000000 1.12476000e+10
560.000000 1.27771000e+10
570.000000 1.31513000e+10
580.000000 1.21384000e+10
590.000000 1.28203000e+10
600.000000 1.18052000e+10
610.000000 1.27365000e+10
620.000000 1.40137000e+10
630.000000 1.37849000e+10
640.000000 1.35737000e+10
650.000000 1.38654000e+10
658.000000 1.30439000e+10
665.000000 1.37547000e+10
675.000000 1.41167000e+10
685.000000 1.27007000e+10
695.000000 1.44850000e+10
705.000000 1.34077000e+10
716.000000 1.49544000e+10
726.000000 1.47089000e+10
735.000000 1.48453000e+10
745.000000 1.47468000e+10
755.000000 1.46667000e+10
765.000000 1.47422000e+10
775.000000 1.48653000e+10
785.000000 1.52294000e+10
795.000000 1.51270000e+10
805.000000 1.48919000e+10
815.000000 1.49041000e+10
825.000000 1.52385000e+10
835.000000 1.38756000e+10
845.000000 1.49425000e+10
855.000000 1.48873000e+10
865.000000 1.51361000e+10
875.000000 1.51789000e+10
885.000000 1.52673000e+10
895.000000 1.53330000e+10
905.000000 1.50393000e+10
915.000000 1.48721000e+10
925.000000 3.65359000e+10
935.000000 5.96148000e+10
945.000000 9.53567000e+10
955.000000 1.08844000e+11
965.000000 1.34943000e+11
975.000000 6.43744000e+10
985.000000 1.25247000e+11
995.000000 1.12076000e+11
1005.000000 1.17585000e+11
1015.000000 1.16450000e+11
1025.000000 7.22675000e+10
1035.000000 1.09890000e+11
1045.000000 1.22583000e+11
1055.000000 1.18425000e+11
1065.000000 1.05769000e+11
1075.000000 1.07872000e+11
1085.000000 9.74573000e+10
1095.000000 1.04929000e+11
1105.000000 1.00015000e+11
1115.000000 9.80743000e+10
1125.000000 8.64472000e+10
1135.000000 9.37214000e+10
1145.000000 8.85312000e+10
1155.000000 8.63666000e+10
1165.000000 8.36523000e+10
1175.000000 6.39168000e+10
1185.000000 7.68791000e+10
1195.000000 7.47589000e+10
1205.000000 6.99869000e+10
1215.000000 4.54711000e+10
1225.000000 6.70073000e+10
1235.000000 7.10469000e+10
1245.000000 6.88140000e+10
1255.000000 6.82288000e+10
1265.000000 6.84021000e+10
1275.000000 6.79312000e+10
1285.000000 6.70377000e+10
1295.000000 6.24054000e+10
1305.000000 6.22866000e+10
1315.000000 6.33451000e+10
1325.000000 6.07981000e+10
1335.000000 5.90219000e+10
1345.000000 5.85307000e+10
1355.000000 5.73253000e+10
1365.000000 5.52632000e+10
1375.000000 5.41614000e+10
1385.000000 5.26083000e+10
1395.000000 4.63027000e+10
1405.000000 4.62509000e+10
1415.000000 4.90747000e+10
1425.000000 4.54088000e+10
1435.000000 4.67009000e+10
1442.000000 4.65457000e+10
1447.000000 4.59152000e+10
1455.000000 4.43955000e+10
1465.000000 4.35001000e+10
1475.000000 4.26647000e+10
1485.000000 4.24149000e+10
1495.000000 4.10892000e+10
1505.000000 3.99711000e+10
1512.000000 3.92344000e+10
1517.000000 3.89713000e+10
1525.000000 3.80160000e+10
1535.000000 3.44940000e+10
1545.000000 3.18031000e+10
1555.000000 3.13393000e+10
1565.000000 3.26043000e+10
1575.000000 3.32031000e+10
1585.000000 3.31783000e+10
1595.000000 3.27073000e+10
1605.000000 3.09029000e+10
1615.000000 2.97212000e+10
1625.000000 2.99472000e+10
1635.000000 2.97046000e+10
1645.000000 2.87473000e+10
1655.000000 2.95315000e+10
1665.000000 2.89536000e+10
1672.000000 2.75487000e+10
1677.000000 2.96445000e+10
1685.000000 2.86804000e+10
1695.000000 2.79247000e+10
1705.000000 2.72469000e+10
1715.000000 2.64062000e+10
1725.000000 2.55692000e+10
1735.000000 2.60750000e+10
1745.000000 2.56174000e+10
1755.000000 2.50584000e+10
1765.000000 2.46108000e+10
1775.000000 2.41023000e+10
1785.000000 2.39867000e+10
1795.000000 2.34922000e+10
1805.000000 2.32904000e+10
1815.000000 2.26674000e+10
1825.000000 2.22930000e+10
1835.000000 2.21044000e+10
1845.000000 2.10940000e+10
1855.000000 2.08617000e+10
1865.000000 2.07350000e+10
1875.000000 2.04126000e+10
1885.000000 1.95743000e+10
1895.000000 1.91143000e+10
1905.000000 1.93450000e+10
1915.000000 1.87572000e+10
1925.000000 1.79203000e+10
1935.000000 1.83584000e+10
1945.000000 1.83653000e+10
1955.000000 1.72829000e+10
1967.000000 1.75478000e+10
1976.000000 1.76469000e+10
1984.000000 1.70838000e+10
1995.000000 1.65836000e+10
2005.000000 1.66941000e+10
2015.000000 1.65538000e+10
2025.000000 1.63797000e+10
2035.000000 1.58998000e+10
2045.000000 1.56510000e+10
2055.000000 1.32903000e+10
2065.000000 1.28518000e+10
2074.000000 1.29953000e+10
2078.000000 1.28232000e+10
2085.000000 1.30700000e+10
2095.000000 1.34460000e+10
2105.000000 1.41441000e+10
2115.000000 1.42060000e+10
2125.000000 1.39633000e+10
2135.000000 1.37833000e+10
2145.000000 1.35379000e+10
2155.000000 1.34304000e+10
2165.000000 1.30221000e+10
2175.000000 1.30715000e+10
2185.000000 1.26988000e+10
2195.000000 1.27406000e+10
2205.000000 1.25540000e+10
2215.000000 1.21260000e+10
2225.000000 1.21642000e+10
2235.000000 1.19756000e+10
2245.000000 1.17937000e+10
2255.000000 1.13930000e+10
2265.000000 1.14615000e+10
2275.000000 1.13005000e+10
2285.000000 1.10792000e+10
2295.000000 1.05015000e+10
2305.000000 1.05644000e+10
2315.000000 1.05985000e+10
2325.000000 1.04726000e+10
2335.000000 1.03106000e+10
2345.000000 1.01783000e+10
2355.000000 1.00214000e+10
2365.000000 9.87823000e+09
2375.000000 9.71307000e+09
2385.000000 9.36223000e+09
2395.000000 9.38995000e+09
2405.000000 9.31333000e+09
2415.000000 9.17823000e+09
2425.000000 9.06297000e+09
2435.000000 8.91244000e+09
2445.000000 8.80187000e+09
2455.000000 8.67593000e+09
2465.000000 8.56600000e+09
2475.000000 8.44403000e+09
2485.000000 8.30910000e+09
2495.000000 7.44620000e+09
2505.000000 8.03406000e+09
2513.000000 7.62804000e+09
2518.000000 7.80396000e+09
2525.000000 7.87657000e+09
2535.000000 7.78113000e+09
2545.000000 7.63576000e+09
2555.000000 7.54264000e+09
2565.000000 7.45875000e+09
2575.000000 7.35945000e+09
2585.000000 7.26710000e+09
2595.000000 7.16309000e+09
2605.000000 7.09710000e+09
2615.000000 6.99334000e+09
2625.000000 6.91009000e+09
2635.000000 6.81976000e+09
2645.000000 6.72306000e+09
2655.000000 6.63670000e+09
2665.000000 6.52227000e+09
2675.000000 6.42042000e+09
2685.000000 6.38210000e+09
2695.000000 6.24924000e+09
2705.000000 6.19848000e+09
2715.000000 6.11866000e+09
2725.000000 6.02006000e+09
2735.000000 5.88244000e+09
2745.000000 5.90066000e+09
2755.000000 5.83060000e+09
2765.000000 5.71902000e+09
2775.000000 5.69402000e+09
2785.000000 5.61629000e+09
2795.000000 5.47924000e+09
2805.000000 5.45701000e+09
2815.000000 5.41498000e+09
2825.000000 5.31109000e+09
2835.000000 5.23150000e+09
2845.000000 5.21946000e+09
2855.000000 5.14783000e+09
2865.000000 5.08167000e+09
2875.000000 5.02313000e+09
2885.000000 4.96348000e+09
2895.000000 4.90183000e+09
2910.000000 4.80560000e+09
2930.000000 4.70248000e+09
2950.000000 4.55842000e+09
2970.000000 4.47801000e+09
2990.000000 4.36310000e+09
3010.000000 4.25708000e+09
3030.000000 4.15880000e+09
3050.000000 4.07163000e+09
3070.000000 3.98806000e+09
3090.000000 3.87540000e+09
3110.000000 3.80695000e+09
3130.000000 3.71750000e+09
3150.000000 3.63422000e+09
3170.000000 3.55252000e+09
3190.000000 3.45758000e+09
3210.000000 3.38190000e+09
3230.000000 3.32661000e+09
3250.000000 3.25904000e+09
3270.000000 3.18213000e+09
3290.000000 3.11669000e+09
3310.000000 3.05304000e+09
3330.000000 2.98397000e+09
3350.000000 2.91736000e+09
3370.000000 2.86014000e+09
3390.000000 2.80627000e+09
3410.000000 2.74763000e+09
3430.000000 2.68535000e+09
3450.000000 2.62136000e+09
3470.000000 2.57355000e+09
3490.000000 2.52128000e+09
3510.000000 2.47239000e+09
3530.000000 2.42610000e+09
3550.000000 2.37657000e+09
3570.000000 2.34000000e+09
3590.000000 2.27737000e+09
3610.000000 2.24035000e+09
3630.000000 2.18949000e+09
3640.000000 2.17728000e+09
3650.000000 2.10779000e+09
3670.000000 2.07442000e+09
3690.000000 2.03619000e+09
3710.000000 1.97478000e+09
3730.000000 1.93237000e+09
3750.000000 1.89834000e+09
3770.000000 1.83924000e+09
3790.000000 1.86774000e+09
3810.000000 1.91029000e+09
3830.000000 1.71791000e+09
3850.000000 1.91884000e+09
3870.000000 1.92194000e+09
3890.000000 1.60515000e+09
3910.000000 1.88620000e+09
3930.000000 1.86168000e+09
3950.000000 1.81209000e+09
3970.000000 1.48310000e+09
3990.000000 1.74456000e+09
4010.000000 1.73578000e+09
4030.000000 1.64617000e+09
4050.000000 1.69059000e+09
4070.000000 1.63629000e+09
4090.000000 1.51065000e+09
4110.000000 1.36034000e+09
4130.000000 1.54503000e+09
4150.000000 1.53043000e+09
4170.000000 1.51878000e+09
4190.000000 1.48966000e+09
4210.000000 1.46406000e+09
4230.000000 1.44435000e+09
4250.000000 1.41335000e+09
4270.000000 1.38182000e+09
4290.000000 1.36123000e+09
4310.000000 1.32658000e+09
4330.000000 1.21173000e+09
4350.000000 1.12313000e+09
4370.000000 1.25913000e+09
4390.000000 1.22386000e+09
4410.000000 1.22741000e+09
4430.000000 1.21159000e+09
4450.000000 1.19220000e+09
4470.000000 1.12821000e+09
4490.000000 1.15218000e+09
4510.000000 1.13455000e+09
4530.000000 1.11703000e+09
4550.000000 1.09242000e+09
4570.000000 1.08117000e+09
4590.000000 1.06179000e+09
4610.000000 1.04391000e+09
4630.000000 1.02424000e+09
4650.000000 9.89942000e+08
4670.000000 9.93002000e+08
4690.000000 9.66893000e+08
4710.000000 9.51380000e+08
4730.000000 9.50996000e+08
4750.000000 9.35324000e+08
4770.000000 9.22795000e+08
4790.000000 9.08160000e+08
4810.000000 8.91537000e+08
4830.000000 8.71525000e+08
4850.000000 8.08377000e+08
4870.000000 7.36116000e+08
4890.000000 8.29677000e+08
4910.000000 8.23057000e+08
4930.000000 7.95405000e+08
4950.000000 8.00261000e+08
4970.000000 7.90600000e+08
4990.000000 7.78616000e+08
5010.000000 7.56803000e+08
5030.000000 7.54817000e+08
5050.000000 7.40814000e+08
5070.000000 7.33383000e+08
5090.000000 7.22367000e+08
5110.000000 7.11617000e+08
5130.000000 7.00825000e+08
5150.000000 6.90648000e+08
5170.000000 6.80777000e+08
5190.000000 6.71204000e+08
5210.000000 6.61633000e+08
5230.000000 6.52093000e+08
5250.000000 6.42446000e+08
5270.000000 6.33238000e+08
5290.000000 6.24582000e+08
5310.000000 6.15704000e+08
5330.000000 6.07034000e+08
5350.000000 5.98450000e+08
5370.000000 5.90147000e+08
5390.000000 5.81781000e+08
5410.000000 5.70344000e+08
5430.000000 5.65844000e+08
5450.000000 5.57957000e+08
5470.000000 5.50258000e+08
5490.000000 5.42706000e+08
5510.000000 5.35324000e+08
5530.000000 5.27960000e+08
5550.000000 5.20908000e+08
5570.000000 5.13799000e+08
5590.000000 5.06644000e+08
5610.000000 5.00082000e+08
5630.000000 4.93397000e+08
5650.000000 4.86701000e+08
5670.000000 4.79910000e+08
5690.000000 4.71259000e+08
5710.000000 4.63550000e+08
5730.000000 4.57635000e+08
5750.000000 4.51369000e+08
5770.000000 4.45948000e+08
5790.000000 4.40119000e+08
5810.000000 4.34371000e+08
5830.000000 4.28503000e+08
5850.000000 4.23344000e+08
5870.000000 4.06983000e+08
5890.000000 4.11576000e+08
5910.000000 4.07705000e+08
5930.000000 4.02764000e+08
5950.000000 3.97911000e+08
5970.000000 3.93463000e+08
5990.000000 3.88593000e+08
6010.000000 3.84353000e+08
6030.000000 3.79839000e+08
6050.000000 3.75263000e+08
6070.000000 3.70718000e+08
6090.000000 3.66103000e+08
6110.000000 3.61561000e+08
6130.000000 3.57110000e+08
6150.000000 3.52471000e+08
6170.000000 3.48210000e+08
6190.000000 3.44086000e+08
6210.000000 3.39900000e+08
6230.000000 3.35770000e+08
6250.000000 3.31618000e+08
6270.000000 3.27657000e+08
6290.000000 3.23729000e+08
6310.000000 3.19778000e+08
6330.000000 3.15993000e+08
6350.000000 3.12156000e+08
6370.000000 3.08500000e+08
6390.000000 3.04809000e+08
6410.000000 3.01196000e+08
6430.000000 2.97658000e+08
6450.000000 2.94130000e+08
6470.000000 2.90461000e+08
6490.000000 2.87144000e+08
6510.000000 2.83515000e+08
6530.000000 2.78866000e+08
6550.000000 2.66865000e+08
6570.000000 2.40919000e+08
6590.000000 2.67600000e+08
6610.000000 2.67121000e+08
6630.000000 2.64749000e+08
6650.000000 2.61779000e+08
6670.000000 2.56198000e+08
6690.000000 2.53246000e+08
6710.000000 2.52859000e+08
6730.000000 2.49936000e+08
6750.000000 2.47259000e+08
6770.000000 2.44542000e+08
6790.000000 2.41535000e+08
6810.000000 2.39078000e+08
6830.000000 2.36388000e+08
6850.000000 2.33797000e+08
6870.000000 2.31193000e+08
6890.000000 2.28472000e+08
6910.000000 2.25968000e+08
6930.000000 2.23646000e+08
6950.000000 2.21198000e+08
6970.000000 2.18775000e+08
6990.000000 2.16392000e+08
7010.000000 2.14016000e+08
7030.000000 2.11611000e+08
7050.000000 2.09389000e+08
7070.000000 2.04422000e+08
7090.000000 2.04927000e+08
7110.000000 2.02703000e+08
7130.000000 2.00544000e+08
7150.000000 1.98422000e+08
7170.000000 1.96210000e+08
7190.000000 1.94187000e+08
7210.000000 1.92162000e+08
7230.000000 1.89471000e+08
7250.000000 1.88055000e+08
7270.000000 1.86152000e+08
7290.000000 1.82970000e+08
7310.000000 1.82259000e+08
7330.000000 1.80368000e+08
7350.000000 1.78495000e+08
7370.000000 1.76647000e+08
7390.000000 1.74823000e+08
7410.000000 1.73016000e+08
7430.000000 1.71233000e+08
7450.000000 1.69487000e+08
7470.000000 1.67642000e+08
7490.000000 1.65962000e+08
7510.000000 1.64311000e+08
7530.000000 1.62669000e+08
7550.000000 1.61028000e+08
7570.000000 1.59396000e+08
7590.000000 1.57635000e+08
7610.000000 1.56138000e+08
7630.000000 1.54634000e+08
7650.000000 1.53080000e+08
7670.000000 1.51566000e+08
7690.000000 1.50020000e+08
7710.000000 1.48546000e+08
7730.000000 1.47034000e+08
7750.000000 1.45636000e+08
7770.000000 1.44195000e+08
7790.000000 1.42785000e+08
7810.000000 1.41338000e+08
7830.000000 1.39996000e+08
7850.000000 1.38715000e+08
7870.000000 1.37306000e+08
7890.000000 1.35939000e+08
7910.000000 1.34704000e+08
7930.000000 1.33385000e+08
7950.000000 1.32124000e+08
7970.000000 1.30798000e+08
7990.000000 1.29583000e+08
8010.000000 1.28344000e+08
8030.000000 1.27104000e+08
8050.000000 1.25909000e+08
8070.000000 1.24695000e+08
8090.000000 1.23412000e+08
8110.000000 1.22094000e+08
8130.000000 1.21169000e+08
8150.000000 1.19940000e+08
8170.000000 1.18896000e+08
8190.000000 1.17535000e+08
8210.000000 1.16041000e+08
8230.000000 1.14922000e+08
8250.000000 1.14039000e+08
8270.000000 1.12656000e+08
8290.000000 1.11965000e+08
8310.000000 1.10990000e+08
8330.000000 1.09893000e+08
8350.000000 1.08584000e+08
8370.000000 1.07824000e+08
8390.000000 1.06962000e+08
8410.000000 1.05975000e+08
8430.000000 1.04990000e+08
8450.000000 1.03602000e+08
8470.000000 1.03114000e+08
8490.000000 1.02059000e+08
8510.000000 1.01137000e+08
8530.000000 1.00151000e+08
8550.000000 9.92707000e+07
8570.000000 9.86387000e+07
8590.000000 9.66584000e+07
8610.000000 9.64538000e+07
8630.000000 9.62855000e+07
8650.000000 9.45266000e+07
8670.000000 9.27428000e+07
8690.000000 9.37133000e+07
8710.000000 9.34175000e+07
8730.000000 9.13291000e+07
8750.000000 8.78465000e+07
8770.000000 8.91019000e+07
8790.000000 9.03791000e+07
8810.000000 8.99837000e+07
8830.000000 8.87117000e+07
8850.000000 8.46748000e+07
8870.000000 8.15880000e+07
8890.000000 8.56354000e+07
8910.000000 8.62621000e+07
8930.000000 8.58195000e+07
8950.000000 8.52153000e+07
8970.000000 8.41943000e+07
8990.000000 8.17411000e+07
9010.000000 7.57310000e+07
9030.000000 7.73825000e+07
9050.000000 8.05827000e+07
9070.000000 8.01819000e+07
9090.000000 8.02398000e+07
9110.000000 7.98334000e+07
9130.000000 7.91948000e+07
9150.000000 7.84800000e+07
9170.000000 7.75197000e+07
9190.000000 7.64333000e+07
9210.000000 7.31083000e+07
9230.000000 6.70961000e+07
9250.000000 7.17861000e+07
9270.000000 7.37739000e+07
9290.000000 7.37839000e+07
9310.000000 7.31456000e+07
9330.000000 7.28757000e+07
9350.000000 7.20644000e+07
9370.000000 7.17356000e+07
9390.000000 7.11612000e+07
9410.000000 7.05569000e+07
9430.000000 6.99783000e+07
9450.000000 6.93661000e+07
9470.000000 6.83508000e+07
9490.000000 6.79083000e+07
9510.000000 6.63566000e+07
9530.000000 6.33282000e+07
9550.000000 5.82304000e+07
9570.000000 6.33964000e+07
9590.000000 6.47790000e+07
9610.000000 6.46116000e+07
9630.000000 6.40876000e+07
9650.000000 6.39881000e+07
9670.000000 6.34860000e+07
9690.000000 6.29353000e+07
9710.000000 6.21009000e+07
9730.000000 6.19493000e+07
9750.000000 6.14814000e+07
9770.000000 6.09932000e+07
9790.000000 6.05084000e+07
9810.000000 6.00192000e+07
9830.000000 5.95569000e+07
9850.000000 5.90823000e+07
9870.000000 5.86111000e+07
9890.000000 5.81316000e+07
9910.000000 5.75750000e+07
9930.000000 5.72516000e+07
9950.000000 5.67972000e+07
9970.000000 5.62247000e+07
9990.000000 5.56525000e+07
10025.000000 5.26481000e+07
10075.000000 5.10357000e+07
10125.000000 5.25981000e+07
10175.000000 5.20679000e+07
10225.000000 5.10627000e+07
10275.000000 5.01173000e+07
10325.000000 4.90005000e+07
10375.000000 4.82634000e+07
10425.000000 4.73648000e+07
10475.000000 4.64914000e+07
10525.000000 4.56324000e+07
10575.000000 4.47976000e+07
10625.000000 4.39799000e+07
10675.000000 4.31226000e+07
10725.000000 4.24005000e+07
10775.000000 4.16379000e+07
10825.000000 4.05437000e+07
10875.000000 3.99264000e+07
10925.000000 3.64181000e+07
10975.000000 3.76540000e+07
11025.000000 3.78153000e+07
11075.000000 3.73641000e+07
11125.000000 3.67520000e+07
11175.000000 3.61161000e+07
11225.000000 3.54752000e+07
11275.000000 3.48797000e+07
11325.000000 3.42728000e+07
11375.000000 3.36926000e+07
11425.000000 3.31184000e+07
11475.000000 3.25615000e+07
11525.000000 3.20130000e+07
11575.000000 3.14727000e+07
11625.000000 3.09182000e+07
11675.000000 3.04218000e+07
11725.000000 2.99300000e+07
11775.000000 2.94372000e+07
11825.000000 2.89517000e+07
11875.000000 2.84787000e+07
11925.000000 2.80125000e+07
11975.000000 2.72668000e+07
12025.000000 2.71135000e+07
12075.000000 2.66749000e+07
12125.000000 2.62478000e+07
12175.000000 2.58294000e+07
12225.000000 2.54168000e+07
12275.000000 2.50152000e+07
12325.000000 2.46192000e+07
12375.000000 2.42317000e+07
12425.000000 2.38524000e+07
12475.000000 2.34783000e+07
12525.000000 2.30729000e+07
12575.000000 2.27547000e+07
12625.000000 2.24040000e+07
12675.000000 2.20611000e+07
12725.000000 2.16819000e+07
12775.000000 2.09594000e+07
12825.000000 1.94266000e+07
12875.000000 2.05367000e+07
12925.000000 2.04097000e+07
12975.000000 1.99980000e+07
13025.000000 1.98239000e+07
13075.000000 1.95315000e+07
