# Kurucz ODFNEW /NOVER, alpha: 0.0 (2003)
# teff = 23000 K (value for the effective temperature for the model. Temperatures are given in K)
# logg = 3.5 log(cm/s2) (value for Log(G) for the model.)
# lh = 1.25  (l/Hp where l is the  mixing length of the convective element and Hp is the pressure scale height)
# meta = -1  (value for the Metallicity for the model.)
# vtur = 2 km/s (Microturbulence velocity)
# alpha = 0  (Alpha)
#
# column 1: WAVELENGTH (ANGSTROM), Wavelength in Angstrom
# column 2: FLUX (ERG/CM2/S/A), Flux in erg/cm2/s/A
147.200000 2.61285000e-16
151.000000 1.37978000e-15
155.200000 7.93747000e-15
158.800000 3.31427000e-14
162.000000 1.12202000e-13
166.000000 4.83366000e-13
170.300000 2.15578000e-12
173.400000 6.05623000e-12
176.800000 1.80373000e-11
180.200000 5.15554000e-11
181.700000 8.09192000e-11
186.100000 2.91272000e-10
191.000000 1.13129000e-09
193.900000 2.44401000e-09
198.400000 7.71719000e-09
201.800000 1.77730000e-08
205.000000 3.79813000e-08
210.500000 1.32547000e-07
216.200000 4.51850000e-07
219.800000 9.47671000e-07
223.000000 1.79293000e-06
226.800000 3.73110000e-06
230.000000 1.21315000e-04
234.000000 2.91113000e-04
240.000000 7.38350000e-04
246.500000 1.92543000e-03
252.400000 4.45216000e-03
256.800000 7.60414000e-03
260.000000 1.22119000e-02
264.000000 2.01467000e-02
268.500000 3.48097000e-02
273.500000 6.24254000e-02
278.500000 1.09990000e-01
284.000000 2.01223000e-01
290.000000 3.74960000e-01
296.000000 6.80268000e-01
301.000000 1.09080000e+00
308.000000 1.99258000e+00
318.000000 5.00473000e+00
328.000000 1.11439000e+01
338.000000 2.41542000e+01
348.000000 4.93745000e+01
357.000000 9.37885000e+01
366.000000 1.68920000e+02
375.000000 2.87346000e+02
385.000000 5.11930000e+02
395.000000 8.79715000e+02
405.000000 1.46668000e+03
414.000000 2.28527000e+03
422.000000 3.29017000e+03
430.000000 4.70351000e+03
441.000000 7.53591000e+03
451.000000 1.13192000e+04
460.000000 1.59510000e+04
470.000000 2.31683000e+04
480.000000 3.28657000e+04
490.000000 4.61144000e+04
500.000000 6.37034000e+04
506.000000 4.91666000e+05
512.000000 1.71605000e+06
520.000000 2.07870000e+06
530.000000 2.72817000e+06
540.000000 3.00531000e+06
550.000000 4.21339000e+06
560.000000 4.94638000e+06
570.000000 6.07266000e+06
580.000000 6.09240000e+06
590.000000 7.98188000e+06
600.000000 9.51545000e+06
610.000000 1.12887000e+07
620.000000 1.27984000e+07
630.000000 1.46762000e+07
640.000000 1.57930000e+07
650.000000 1.66911000e+07
658.000000 2.03842000e+07
665.000000 2.22370000e+07
675.000000 2.39751000e+07
685.000000 2.63030000e+07
695.000000 3.10095000e+07
705.000000 3.34181000e+07
716.000000 3.78033000e+07
726.000000 4.08253000e+07
735.000000 4.40660000e+07
745.000000 4.94057000e+07
755.000000 5.38911000e+07
765.000000 5.85882000e+07
775.000000 6.39648000e+07
785.000000 6.95411000e+07
795.000000 7.41329000e+07
805.000000 7.94182000e+07
815.000000 8.41002000e+07
825.000000 9.14446000e+07
835.000000 9.31253000e+07
845.000000 1.01655000e+08
855.000000 1.07707000e+08
865.000000 1.15392000e+08
875.000000 1.24032000e+08
885.000000 1.32803000e+08
895.000000 1.40326000e+08
905.000000 1.44984000e+08
915.000000 2.44354000e+08
925.000000 2.37272000e+09
935.000000 6.44800000e+09
945.000000 1.33872000e+10
955.000000 1.61527000e+10
965.000000 1.92389000e+10
975.000000 5.77880000e+09
985.000000 1.87024000e+10
995.000000 1.76750000e+10
1005.000000 1.90729000e+10
1015.000000 1.84842000e+10
1025.000000 9.19498000e+09
1035.000000 1.53681000e+10
1045.000000 2.05547000e+10
1055.000000 1.94291000e+10
1065.000000 1.71561000e+10
1075.000000 1.88057000e+10
1085.000000 1.70914000e+10
1095.000000 1.87205000e+10
1105.000000 1.74427000e+10
1115.000000 1.73776000e+10
1125.000000 1.56038000e+10
1135.000000 1.74081000e+10
1145.000000 1.61522000e+10
1155.000000 1.66410000e+10
1165.000000 1.66250000e+10
1175.000000 1.27154000e+10
1185.000000 1.59526000e+10
1195.000000 1.48064000e+10
1205.000000 1.15674000e+10
1215.000000 6.80306000e+09
1225.000000 1.34499000e+10
1235.000000 1.46767000e+10
1245.000000 1.45566000e+10
1255.000000 1.42342000e+10
1265.000000 1.40580000e+10
1275.000000 1.42759000e+10
1285.000000 1.39699000e+10
1295.000000 1.17517000e+10
1305.000000 1.21394000e+10
1315.000000 1.33548000e+10
1325.000000 1.27448000e+10
1335.000000 1.22403000e+10
1345.000000 1.23638000e+10
1355.000000 1.23837000e+10
1365.000000 1.17815000e+10
1375.000000 1.15693000e+10
1385.000000 1.14863000e+10
1395.000000 1.00339000e+10
1405.000000 1.03607000e+10
1415.000000 1.06961000e+10
1425.000000 1.04476000e+10
1435.000000 1.05143000e+10
1442.000000 1.06047000e+10
1447.000000 1.04083000e+10
1455.000000 1.02132000e+10
1465.000000 9.81781000e+09
1475.000000 9.73224000e+09
1485.000000 9.55787000e+09
1495.000000 9.39099000e+09
1505.000000 8.91201000e+09
1512.000000 8.32180000e+09
1517.000000 8.49491000e+09
1525.000000 8.52573000e+09
1535.000000 7.77370000e+09
1545.000000 7.83927000e+09
1555.000000 7.48138000e+09
1565.000000 7.78354000e+09
1575.000000 7.95656000e+09
1585.000000 7.83818000e+09
1595.000000 7.80595000e+09
1605.000000 7.57722000e+09
1615.000000 7.43326000e+09
1625.000000 7.38800000e+09
1635.000000 7.52014000e+09
1645.000000 7.35882000e+09
1655.000000 7.28915000e+09
1665.000000 7.29209000e+09
1672.000000 7.08871000e+09
1677.000000 7.32661000e+09
1685.000000 7.16910000e+09
1695.000000 6.92597000e+09
1705.000000 6.70954000e+09
1715.000000 6.46424000e+09
1725.000000 6.39090000e+09
1735.000000 6.44147000e+09
1745.000000 6.31304000e+09
1755.000000 6.33597000e+09
1765.000000 6.11552000e+09
1775.000000 5.95760000e+09
1785.000000 5.96718000e+09
1795.000000 6.00354000e+09
1805.000000 5.98392000e+09
1815.000000 5.62357000e+09
1825.000000 5.69614000e+09
1835.000000 5.57158000e+09
1845.000000 5.17888000e+09
1855.000000 5.13513000e+09
1865.000000 5.19989000e+09
1875.000000 5.29792000e+09
1885.000000 4.85487000e+09
1895.000000 4.56845000e+09
1905.000000 4.83060000e+09
1915.000000 4.62896000e+09
1925.000000 4.46530000e+09
1935.000000 4.62271000e+09
1945.000000 4.68344000e+09
1955.000000 4.32408000e+09
1967.000000 4.53818000e+09
1976.000000 4.68372000e+09
1984.000000 4.40178000e+09
1995.000000 4.29630000e+09
2005.000000 4.36104000e+09
2015.000000 4.35701000e+09
2025.000000 4.41515000e+09
2035.000000 4.14298000e+09
2045.000000 4.13814000e+09
2055.000000 4.02152000e+09
2065.000000 4.03593000e+09
2074.000000 4.17168000e+09
2078.000000 3.92034000e+09
2085.000000 3.98548000e+09
2095.000000 3.82341000e+09
2105.000000 3.89761000e+09
2115.000000 3.86901000e+09
2125.000000 3.90868000e+09
2135.000000 3.83281000e+09
2145.000000 3.68048000e+09
2155.000000 3.75235000e+09
2165.000000 3.71889000e+09
2175.000000 3.65961000e+09
2185.000000 3.60117000e+09
2195.000000 3.59189000e+09
2205.000000 3.54799000e+09
2215.000000 3.50582000e+09
2225.000000 3.43435000e+09
2235.000000 3.38513000e+09
2245.000000 3.38068000e+09
2255.000000 3.30950000e+09
2265.000000 3.30178000e+09
2275.000000 3.25957000e+09
2285.000000 3.23709000e+09
2295.000000 3.11460000e+09
2305.000000 3.14911000e+09
2315.000000 3.08344000e+09
2325.000000 3.04980000e+09
2335.000000 2.98497000e+09
2345.000000 2.96785000e+09
2355.000000 2.95588000e+09
2365.000000 2.91470000e+09
2375.000000 2.87338000e+09
2385.000000 2.83814000e+09
2395.000000 2.80720000e+09
2405.000000 2.77133000e+09
2415.000000 2.73151000e+09
2425.000000 2.72414000e+09
2435.000000 2.67386000e+09
2445.000000 2.65348000e+09
2455.000000 2.63516000e+09
2465.000000 2.59764000e+09
2475.000000 2.56660000e+09
2485.000000 2.53373000e+09
2495.000000 2.41402000e+09
2505.000000 2.47188000e+09
2513.000000 2.39609000e+09
2518.000000 2.43459000e+09
2525.000000 2.41373000e+09
2535.000000 2.38300000e+09
2545.000000 2.33301000e+09
2555.000000 2.33297000e+09
2565.000000 2.30342000e+09
2575.000000 2.29056000e+09
2585.000000 2.26312000e+09
2595.000000 2.23805000e+09
2605.000000 2.22451000e+09
2615.000000 2.20053000e+09
2625.000000 2.17882000e+09
2635.000000 2.15092000e+09
2645.000000 2.13382000e+09
2655.000000 2.11142000e+09
2665.000000 2.07630000e+09
2675.000000 2.05864000e+09
2685.000000 2.04935000e+09
2695.000000 2.00273000e+09
2705.000000 1.99629000e+09
2715.000000 1.97696000e+09
2725.000000 1.94356000e+09
2735.000000 1.93788000e+09
2745.000000 1.89849000e+09
2755.000000 1.88558000e+09
2765.000000 1.85925000e+09
2775.000000 1.85850000e+09
2785.000000 1.83546000e+09
2795.000000 1.78401000e+09
2805.000000 1.78673000e+09
2815.000000 1.78105000e+09
2825.000000 1.74764000e+09
2835.000000 1.71452000e+09
2845.000000 1.72353000e+09
2855.000000 1.70394000e+09
2865.000000 1.68968000e+09
2875.000000 1.67175000e+09
2885.000000 1.65507000e+09
2895.000000 1.63659000e+09
2910.000000 1.61002000e+09
2930.000000 1.57697000e+09
2950.000000 1.53558000e+09
2970.000000 1.51505000e+09
2990.000000 1.48246000e+09
3010.000000 1.45018000e+09
3030.000000 1.42720000e+09
3050.000000 1.39932000e+09
3070.000000 1.37219000e+09
3090.000000 1.33898000e+09
3110.000000 1.31846000e+09
3130.000000 1.29344000e+09
3150.000000 1.26894000e+09
3170.000000 1.24312000e+09
3190.000000 1.21122000e+09
3210.000000 1.19723000e+09
3230.000000 1.17389000e+09
3250.000000 1.15225000e+09
3270.000000 1.13154000e+09
3290.000000 1.10888000e+09
3310.000000 1.09043000e+09
3330.000000 1.07020000e+09
3350.000000 1.04883000e+09
3370.000000 1.03141000e+09
3390.000000 1.01302000e+09
3410.000000 9.94819000e+08
3430.000000 9.71916000e+08
3450.000000 9.51153000e+08
3470.000000 9.36997000e+08
3490.000000 9.20567000e+08
3510.000000 9.08791000e+08
3530.000000 8.94229000e+08
3550.000000 8.78951000e+08
3570.000000 8.67416000e+08
3590.000000 8.47138000e+08
3610.000000 8.33094000e+08
3630.000000 8.18764000e+08
3640.000000 8.16888000e+08
3650.000000 8.01192000e+08
3670.000000 7.91085000e+08
3690.000000 7.69113000e+08
3710.000000 7.50662000e+08
3730.000000 7.35187000e+08
3750.000000 7.97153000e+08
3770.000000 8.00195000e+08
3790.000000 8.28752000e+08
3810.000000 8.58224000e+08
3830.000000 7.61220000e+08
3850.000000 8.70500000e+08
3870.000000 8.62808000e+08
3890.000000 7.26168000e+08
3910.000000 8.47956000e+08
3930.000000 8.26322000e+08
3950.000000 8.19400000e+08
3970.000000 6.74250000e+08
3990.000000 7.89163000e+08
4010.000000 7.79061000e+08
4030.000000 7.42840000e+08
4050.000000 7.59155000e+08
4070.000000 7.40477000e+08
4090.000000 7.01116000e+08
4110.000000 6.23656000e+08
4130.000000 6.98733000e+08
4150.000000 6.91533000e+08
4170.000000 6.84829000e+08
4190.000000 6.75667000e+08
4210.000000 6.65883000e+08
4230.000000 6.54464000e+08
4250.000000 6.42792000e+08
4270.000000 6.28375000e+08
4290.000000 6.22079000e+08
4310.000000 6.09769000e+08
4330.000000 5.68563000e+08
4350.000000 5.21478000e+08
4370.000000 5.80474000e+08
4390.000000 5.63781000e+08
4410.000000 5.64956000e+08
4430.000000 5.55336000e+08
4450.000000 5.48947000e+08
4470.000000 5.23438000e+08
4490.000000 5.31231000e+08
4510.000000 5.24622000e+08
4530.000000 5.16273000e+08
4550.000000 5.08068000e+08
4570.000000 5.00060000e+08
4590.000000 4.92886000e+08
4610.000000 4.85215000e+08
4630.000000 4.77904000e+08
4650.000000 4.68383000e+08
4670.000000 4.63758000e+08
4690.000000 4.57653000e+08
4710.000000 4.44673000e+08
4730.000000 4.42840000e+08
4750.000000 4.35846000e+08
4770.000000 4.31818000e+08
4790.000000 4.25379000e+08
4810.000000 4.18738000e+08
4830.000000 4.11418000e+08
4850.000000 3.89166000e+08
4870.000000 3.50998000e+08
4890.000000 3.93727000e+08
4910.000000 3.89776000e+08
4930.000000 3.77149000e+08
4950.000000 3.78767000e+08
4970.000000 3.73894000e+08
4990.000000 3.68528000e+08
5010.000000 3.58147000e+08
5030.000000 3.58252000e+08
5050.000000 3.50738000e+08
5070.000000 3.48474000e+08
5090.000000 3.43647000e+08
5110.000000 3.38856000e+08
5130.000000 3.33771000e+08
5150.000000 3.29266000e+08
5170.000000 3.25244000e+08
5190.000000 3.20868000e+08
5210.000000 3.16272000e+08
5230.000000 3.12260000e+08
5250.000000 3.08095000e+08
5270.000000 3.03916000e+08
5290.000000 2.99926000e+08
5310.000000 2.95907000e+08
5330.000000 2.91993000e+08
5350.000000 2.88037000e+08
5370.000000 2.84433000e+08
5390.000000 2.80666000e+08
5410.000000 2.77024000e+08
5430.000000 2.73313000e+08
5450.000000 2.69789000e+08
5470.000000 2.66309000e+08
5490.000000 2.62910000e+08
5510.000000 2.59565000e+08
5530.000000 2.56213000e+08
5550.000000 2.52988000e+08
5570.000000 2.49741000e+08
5590.000000 2.46607000e+08
5610.000000 2.43439000e+08
5630.000000 2.40429000e+08
5650.000000 2.37184000e+08
5670.000000 2.34026000e+08
5690.000000 2.30929000e+08
5710.000000 2.28528000e+08
5730.000000 2.25719000e+08
5750.000000 2.22796000e+08
5770.000000 2.20236000e+08
5790.000000 2.17526000e+08
5810.000000 2.14859000e+08
5830.000000 2.12190000e+08
5850.000000 2.09652000e+08
5870.000000 2.01797000e+08
5890.000000 2.04099000e+08
5910.000000 2.02084000e+08
5930.000000 1.99577000e+08
5950.000000 1.97141000e+08
5970.000000 1.94966000e+08
5990.000000 1.92543000e+08
6010.000000 1.90325000e+08
6030.000000 1.88039000e+08
6050.000000 1.85851000e+08
6070.000000 1.83687000e+08
6090.000000 1.81518000e+08
6110.000000 1.79403000e+08
6130.000000 1.77312000e+08
6150.000000 1.75125000e+08
6170.000000 1.73170000e+08
6190.000000 1.71207000e+08
6210.000000 1.69237000e+08
6230.000000 1.67298000e+08
6250.000000 1.65332000e+08
6270.000000 1.63474000e+08
6290.000000 1.61617000e+08
6310.000000 1.59761000e+08
6330.000000 1.57973000e+08
6350.000000 1.56055000e+08
6370.000000 1.54371000e+08
6390.000000 1.52668000e+08
6410.000000 1.50965000e+08
6430.000000 1.49289000e+08
6450.000000 1.47622000e+08
6470.000000 1.45901000e+08
6490.000000 1.44305000e+08
6510.000000 1.42753000e+08
6530.000000 1.40891000e+08
6550.000000 1.36300000e+08
6570.000000 1.22196000e+08
6590.000000 1.35361000e+08
6610.000000 1.35061000e+08
6630.000000 1.33639000e+08
6650.000000 1.32265000e+08
6670.000000 1.29763000e+08
6690.000000 1.28390000e+08
6710.000000 1.28053000e+08
6730.000000 1.26644000e+08
6750.000000 1.25324000e+08
6770.000000 1.23993000e+08
6790.000000 1.22504000e+08
6810.000000 1.21347000e+08
6830.000000 1.20072000e+08
6850.000000 1.18818000e+08
6870.000000 1.17568000e+08
6890.000000 1.16323000e+08
6910.000000 1.15098000e+08
6930.000000 1.13902000e+08
6950.000000 1.12724000e+08
6970.000000 1.11559000e+08
6990.000000 1.10389000e+08
7010.000000 1.09262000e+08
7030.000000 1.08131000e+08
7050.000000 1.07018000e+08
7070.000000 1.04310000e+08
7090.000000 1.04847000e+08
7110.000000 1.03766000e+08
7130.000000 1.02718000e+08
7150.000000 1.01672000e+08
7170.000000 1.00622000e+08
7190.000000 9.96331000e+07
7210.000000 9.86318000e+07
7230.000000 9.70275000e+07
7250.000000 9.66434000e+07
7270.000000 9.56919000e+07
7290.000000 9.39908000e+07
7310.000000 9.37803000e+07
7330.000000 9.28696000e+07
7350.000000 9.19465000e+07
7370.000000 9.10389000e+07
7390.000000 9.01467000e+07
7410.000000 8.92628000e+07
7430.000000 8.83802000e+07
7450.000000 8.75330000e+07
7470.000000 8.66531000e+07
7490.000000 8.58351000e+07
7510.000000 8.49710000e+07
7530.000000 8.41814000e+07
7550.000000 8.33725000e+07
7570.000000 8.25710000e+07
7590.000000 8.17767000e+07
7610.000000 8.09832000e+07
7630.000000 8.02162000e+07
7650.000000 7.94497000e+07
7670.000000 7.86965000e+07
7690.000000 7.79500000e+07
7710.000000 7.72039000e+07
7730.000000 7.64834000e+07
7750.000000 7.57504000e+07
7770.000000 7.49741000e+07
7790.000000 7.43475000e+07
7810.000000 7.35905000e+07
7830.000000 7.29631000e+07
7850.000000 7.23411000e+07
7870.000000 7.16637000e+07
7890.000000 7.09377000e+07
7910.000000 7.03567000e+07
7930.000000 6.96008000e+07
7950.000000 6.88935000e+07
7970.000000 6.82219000e+07
7990.000000 6.76153000e+07
8010.000000 6.69845000e+07
8030.000000 6.63941000e+07
8050.000000 6.58321000e+07
8070.000000 6.52748000e+07
8090.000000 6.45495000e+07
8110.000000 6.40311000e+07
8130.000000 6.35625000e+07
8150.000000 6.28596000e+07
8170.000000 6.24337000e+07
8190.000000 6.17809000e+07
8210.000000 6.10164000e+07
8230.000000 6.06535000e+07
8250.000000 6.01494000e+07
8270.000000 5.92749000e+07
8290.000000 5.90057000e+07
8310.000000 5.85038000e+07
8330.000000 5.79789000e+07
8350.000000 5.71828000e+07
8370.000000 5.68184000e+07
8390.000000 5.64034000e+07
8410.000000 5.58797000e+07
8430.000000 5.53074000e+07
8450.000000 5.45025000e+07
8470.000000 5.41194000e+07
8490.000000 5.39327000e+07
8510.000000 5.29304000e+07
8530.000000 5.32054000e+07
8550.000000 5.12505000e+07
8570.000000 5.30946000e+07
8590.000000 5.05317000e+07
8610.000000 5.02322000e+07
8630.000000 5.22881000e+07
8650.000000 5.07677000e+07
8670.000000 4.69583000e+07
8690.000000 5.11095000e+07
8710.000000 5.12525000e+07
8730.000000 4.97179000e+07
8750.000000 4.48198000e+07
8770.000000 4.83979000e+07
8790.000000 4.96948000e+07
8810.000000 4.93190000e+07
8830.000000 4.88108000e+07
8850.000000 4.60801000e+07
8870.000000 4.26638000e+07
8890.000000 4.72532000e+07
8910.000000 4.73099000e+07
8930.000000 4.69258000e+07
8950.000000 4.67172000e+07
8970.000000 4.62394000e+07
8990.000000 4.51310000e+07
9010.000000 4.05306000e+07
9030.000000 4.25976000e+07
9050.000000 4.45350000e+07
9070.000000 4.40256000e+07
9090.000000 4.39411000e+07
9110.000000 4.37375000e+07
9130.000000 4.34114000e+07
9150.000000 4.30585000e+07
9170.000000 4.25662000e+07
9190.000000 4.21844000e+07
9210.000000 4.06059000e+07
9230.000000 3.62915000e+07
9250.000000 4.01300000e+07
9270.000000 4.07562000e+07
9290.000000 4.06412000e+07
9310.000000 4.01630000e+07
9330.000000 4.00035000e+07
9350.000000 3.96735000e+07
9370.000000 3.93881000e+07
9390.000000 3.90748000e+07
9410.000000 3.87459000e+07
9430.000000 3.84563000e+07
9450.000000 3.81511000e+07
9470.000000 3.76230000e+07
9490.000000 3.75098000e+07
9510.000000 3.67731000e+07
9530.000000 3.54695000e+07
9550.000000 3.20042000e+07
9570.000000 3.56282000e+07
9590.000000 3.59504000e+07
9610.000000 3.56728000e+07
9630.000000 3.53505000e+07
9650.000000 3.52648000e+07
9670.000000 3.49910000e+07
9690.000000 3.46854000e+07
9710.000000 3.43453000e+07
9730.000000 3.41867000e+07
9750.000000 3.39234000e+07
9770.000000 3.36631000e+07
9790.000000 3.34050000e+07
9810.000000 3.31472000e+07
9830.000000 3.28963000e+07
9850.000000 3.26455000e+07
9870.000000 3.23954000e+07
9890.000000 3.21478000e+07
9910.000000 3.18471000e+07
9930.000000 3.16662000e+07
9950.000000 3.14272000e+07
9970.000000 3.11875000e+07
9990.000000 3.09367000e+07
10025.000000 2.95440000e+07
10075.000000 2.86135000e+07
10125.000000 2.93481000e+07
10175.000000 2.88879000e+07
10225.000000 2.83452000e+07
10275.000000 2.78420000e+07
10325.000000 2.72401000e+07
10375.000000 2.68427000e+07
10425.000000 2.63602000e+07
10475.000000 2.58883000e+07
10525.000000 2.54263000e+07
10575.000000 2.49756000e+07
10625.000000 2.45345000e+07
10675.000000 2.40559000e+07
10725.000000 2.36808000e+07
10775.000000 2.32682000e+07
10825.000000 2.26184000e+07
10875.000000 2.24364000e+07
10925.000000 2.06341000e+07
10975.000000 2.13810000e+07
11025.000000 2.12092000e+07
11075.000000 2.09620000e+07
11125.000000 2.06172000e+07
11175.000000 2.02699000e+07
11225.000000 1.99181000e+07
11275.000000 1.95940000e+07
11325.000000 1.92692000e+07
11375.000000 1.89523000e+07
11425.000000 1.86384000e+07
11475.000000 1.83338000e+07
11525.000000 1.80339000e+07
11575.000000 1.77386000e+07
11625.000000 1.74517000e+07
11675.000000 1.71696000e+07
11725.000000 1.68936000e+07
11775.000000 1.66222000e+07
11825.000000 1.63575000e+07
11875.000000 1.60974000e+07
11925.000000 1.58427000e+07
11975.000000 1.54705000e+07
12025.000000 1.53476000e+07
12075.000000 1.51074000e+07
12125.000000 1.48718000e+07
12175.000000 1.46409000e+07
12225.000000 1.44145000e+07
12275.000000 1.41923000e+07
12325.000000 1.39744000e+07
12375.000000 1.37609000e+07
12425.000000 1.35513000e+07
12475.000000 1.33446000e+07
12525.000000 1.31179000e+07
12575.000000 1.29452000e+07
12625.000000 1.27516000e+07
12675.000000 1.25612000e+07
12725.000000 1.23738000e+07
12775.000000 1.20225000e+07
12825.000000 1.12501000e+07
12875.000000 1.17878000e+07
12925.000000 1.16598000e+07
12975.000000 1.14198000e+07
13025.000000 1.13220000e+07
13075.000000 1.11581000e+07
