# Kurucz ODFNEW /NOVER, alpha: 0.0 (2003)
# teff = 26000 K (value for the effective temperature for the model. Temperatures are given in K)
# logg = 4.5 log(cm/s2) (value for Log(G) for the model.)
# lh = 1.25  (l/Hp where l is the  mixing length of the convective element and Hp is the pressure scale height)
# meta = -2  (value for the Metallicity for the model.)
# vtur = 2 km/s (Microturbulence velocity)
# alpha = 0  (Alpha)
#
# column 1: WAVELENGTH (ANGSTROM), Wavelength in Angstrom
# column 2: FLUX (ERG/CM2/S/A), Flux in erg/cm2/s/A
147.200000 7.00870000e-13
151.000000 3.19314000e-12
155.200000 1.56419000e-11
158.800000 5.70978000e-11
162.000000 1.71943000e-10
166.000000 6.41968000e-10
170.300000 2.46766000e-09
173.400000 6.24454000e-09
176.800000 1.66079000e-08
180.200000 4.25351000e-08
181.700000 6.36876000e-08
186.100000 2.00117000e-07
191.000000 6.71382000e-07
193.900000 1.33398000e-06
198.400000 3.71250000e-06
201.800000 7.79117000e-06
205.000000 1.52915000e-05
210.500000 4.63959000e-05
216.200000 1.37611000e-04
219.800000 2.65009000e-04
223.000000 4.65774000e-04
226.800000 8.90588000e-04
230.000000 7.82444000e-03
234.000000 1.75299000e-02
240.000000 4.08895000e-02
246.500000 9.75951000e-02
252.400000 2.08649000e-01
256.800000 3.41052000e-01
260.000000 5.17914000e-01
264.000000 8.16961000e-01
268.500000 1.34054000e+00
273.500000 2.27698000e+00
278.500000 3.79730000e+00
284.000000 6.51859000e+00
290.000000 1.14546000e+01
296.000000 1.96233000e+01
301.000000 3.01172000e+01
308.000000 5.20195000e+01
318.000000 1.18018000e+02
328.000000 2.44585000e+02
338.000000 4.85273000e+02
348.000000 9.21883000e+02
357.000000 1.58899000e+03
366.000000 2.66621000e+03
375.000000 4.33296000e+03
385.000000 7.24739000e+03
395.000000 1.17552000e+04
405.000000 1.85823000e+04
414.000000 2.75080000e+04
422.000000 3.82940000e+04
430.000000 5.25363000e+04
441.000000 7.98764000e+04
451.000000 1.14481000e+05
460.000000 1.55675000e+05
470.000000 2.16010000e+05
480.000000 2.94778000e+05
490.000000 3.96829000e+05
500.000000 5.26818000e+05
506.000000 2.97707000e+06
512.000000 9.72132000e+06
520.000000 1.13929000e+07
530.000000 1.45569000e+07
540.000000 1.53198000e+07
550.000000 1.99349000e+07
560.000000 2.25545000e+07
570.000000 2.61554000e+07
580.000000 2.61684000e+07
590.000000 3.24089000e+07
600.000000 3.73130000e+07
610.000000 4.21864000e+07
620.000000 4.67031000e+07
630.000000 5.22191000e+07
640.000000 5.66455000e+07
650.000000 6.32995000e+07
658.000000 6.88271000e+07
665.000000 7.33576000e+07
675.000000 7.87434000e+07
685.000000 8.51289000e+07
695.000000 9.55892000e+07
705.000000 1.02561000e+08
716.000000 1.12264000e+08
726.000000 1.20750000e+08
735.000000 1.29918000e+08
745.000000 1.40259000e+08
755.000000 1.50533000e+08
765.000000 1.60689000e+08
775.000000 1.72218000e+08
785.000000 1.83796000e+08
795.000000 1.94676000e+08
805.000000 2.06769000e+08
815.000000 2.18446000e+08
825.000000 2.31836000e+08
835.000000 2.40354000e+08
845.000000 2.56647000e+08
855.000000 2.69061000e+08
865.000000 2.84028000e+08
875.000000 2.99120000e+08
885.000000 3.13788000e+08
895.000000 3.28130000e+08
905.000000 3.39451000e+08
915.000000 4.65498000e+08
925.000000 2.68150000e+09
935.000000 7.42621000e+09
945.000000 2.16949000e+10
955.000000 3.05283000e+10
965.000000 4.08800000e+10
975.000000 1.61491000e+10
985.000000 4.59387000e+10
995.000000 4.37832000e+10
1005.000000 4.57659000e+10
1015.000000 4.07071000e+10
1025.000000 1.32175000e+10
1035.000000 3.63075000e+10
1045.000000 4.38059000e+10
1055.000000 4.27424000e+10
1065.000000 3.94092000e+10
1075.000000 4.01986000e+10
1085.000000 3.68177000e+10
1095.000000 3.88881000e+10
1105.000000 3.72556000e+10
1115.000000 3.65146000e+10
1125.000000 3.42431000e+10
1135.000000 3.49525000e+10
1145.000000 3.31981000e+10
1155.000000 3.33685000e+10
1165.000000 3.26732000e+10
1175.000000 2.83320000e+10
1185.000000 3.07452000e+10
1195.000000 2.89401000e+10
1205.000000 2.49978000e+10
1215.000000 9.00619000e+09
1225.000000 2.40688000e+10
1235.000000 2.71279000e+10
1245.000000 2.66550000e+10
1255.000000 2.63635000e+10
1265.000000 2.56705000e+10
1275.000000 2.54316000e+10
1285.000000 2.48525000e+10
1295.000000 2.31156000e+10
1305.000000 2.30790000e+10
1315.000000 2.32087000e+10
1325.000000 2.23768000e+10
1335.000000 2.15482000e+10
1345.000000 2.15789000e+10
1355.000000 2.12903000e+10
1365.000000 2.06802000e+10
1375.000000 2.02868000e+10
1385.000000 1.98752000e+10
1395.000000 1.88109000e+10
1405.000000 1.86221000e+10
1415.000000 1.85416000e+10
1425.000000 1.81658000e+10
1435.000000 1.78734000e+10
1442.000000 1.76918000e+10
1447.000000 1.74878000e+10
1455.000000 1.71934000e+10
1465.000000 1.68064000e+10
1475.000000 1.64757000e+10
1485.000000 1.61432000e+10
1495.000000 1.58147000e+10
1505.000000 1.53464000e+10
1512.000000 1.51111000e+10
1517.000000 1.50111000e+10
1525.000000 1.47570000e+10
1535.000000 1.41645000e+10
1545.000000 1.39475000e+10
1555.000000 1.35766000e+10
1565.000000 1.35879000e+10
1575.000000 1.34214000e+10
1585.000000 1.31905000e+10
1595.000000 1.29651000e+10
1605.000000 1.25482000e+10
1615.000000 1.23036000e+10
1625.000000 1.21949000e+10
1635.000000 1.20073000e+10
1645.000000 1.15812000e+10
1655.000000 1.16070000e+10
1665.000000 1.14321000e+10
1672.000000 1.12296000e+10
1677.000000 1.12431000e+10
1685.000000 1.10596000e+10
1695.000000 1.08265000e+10
1705.000000 1.06004000e+10
1715.000000 1.03541000e+10
1725.000000 1.01974000e+10
1735.000000 1.00717000e+10
1745.000000 9.88136000e+09
1755.000000 9.74914000e+09
1765.000000 9.44839000e+09
1775.000000 9.34809000e+09
1785.000000 9.24057000e+09
1795.000000 9.11112000e+09
1805.000000 8.98397000e+09
1815.000000 8.78506000e+09
1825.000000 8.65863000e+09
1835.000000 8.51439000e+09
1845.000000 8.23055000e+09
1855.000000 8.01757000e+09
1865.000000 7.96745000e+09
1875.000000 7.94077000e+09
1885.000000 7.64194000e+09
1895.000000 7.42071000e+09
1905.000000 7.48429000e+09
1915.000000 7.24792000e+09
1925.000000 7.11344000e+09
1935.000000 7.09927000e+09
1945.000000 7.06311000e+09
1955.000000 6.78158000e+09
1967.000000 6.81203000e+09
1976.000000 6.79200000e+09
1984.000000 6.61330000e+09
1995.000000 6.41818000e+09
2005.000000 6.44859000e+09
2015.000000 6.39569000e+09
2025.000000 6.32800000e+09
2035.000000 6.18008000e+09
2045.000000 6.08700000e+09
2055.000000 5.89578000e+09
2065.000000 5.80631000e+09
2074.000000 5.83485000e+09
2078.000000 5.70763000e+09
2085.000000 5.70117000e+09
2095.000000 5.58825000e+09
2105.000000 5.58774000e+09
2115.000000 5.53292000e+09
2125.000000 5.47363000e+09
2135.000000 5.38817000e+09
2145.000000 5.29564000e+09
2155.000000 5.23606000e+09
2165.000000 5.16578000e+09
2175.000000 5.08924000e+09
2185.000000 5.02130000e+09
2195.000000 4.95673000e+09
2205.000000 4.88653000e+09
2215.000000 4.81832000e+09
2225.000000 4.75000000e+09
2235.000000 4.68225000e+09
2245.000000 4.62396000e+09
2255.000000 4.55563000e+09
2265.000000 4.49941000e+09
2275.000000 4.43854000e+09
2285.000000 4.38008000e+09
2295.000000 4.27690000e+09
2305.000000 4.26050000e+09
2315.000000 4.20248000e+09
2325.000000 4.14745000e+09
2335.000000 4.08892000e+09
2345.000000 4.03782000e+09
2355.000000 3.98716000e+09
2365.000000 3.93432000e+09
2375.000000 3.88215000e+09
2385.000000 3.82967000e+09
2395.000000 3.78166000e+09
2405.000000 3.73334000e+09
2415.000000 3.68414000e+09
2425.000000 3.64031000e+09
2435.000000 3.59172000e+09
2445.000000 3.54690000e+09
2455.000000 3.50356000e+09
2465.000000 3.45864000e+09
2475.000000 3.41513000e+09
2485.000000 3.37220000e+09
2495.000000 3.28228000e+09
2505.000000 3.28723000e+09
2513.000000 3.23770000e+09
2518.000000 3.23460000e+09
2525.000000 3.20694000e+09
2535.000000 3.16727000e+09
2545.000000 3.12154000e+09
2555.000000 3.08954000e+09
2565.000000 3.05267000e+09
2575.000000 3.01679000e+09
2585.000000 2.98047000e+09
2595.000000 2.94457000e+09
2605.000000 2.92950000e+09
2615.000000 2.89479000e+09
2625.000000 2.86010000e+09
2635.000000 2.82248000e+09
2645.000000 2.78836000e+09
2655.000000 2.75147000e+09
2665.000000 2.71234000e+09
2675.000000 2.67694000e+09
2685.000000 2.66409000e+09
2695.000000 2.61018000e+09
2705.000000 2.60157000e+09
2715.000000 2.57135000e+09
2725.000000 2.51918000e+09
2735.000000 2.51157000e+09
2745.000000 2.48126000e+09
2755.000000 2.45385000e+09
2765.000000 2.40390000e+09
2775.000000 2.39952000e+09
2785.000000 2.37188000e+09
2795.000000 2.33082000e+09
2805.000000 2.31447000e+09
2815.000000 2.29278000e+09
2825.000000 2.23995000e+09
2835.000000 2.22178000e+09
2845.000000 2.21662000e+09
2855.000000 2.19187000e+09
2865.000000 2.16770000e+09
2875.000000 2.14375000e+09
2885.000000 2.12027000e+09
2895.000000 2.09689000e+09
2910.000000 2.06242000e+09
2930.000000 2.01764000e+09
2950.000000 1.95791000e+09
2970.000000 1.93214000e+09
2990.000000 1.89075000e+09
3010.000000 1.85061000e+09
3030.000000 1.81231000e+09
3050.000000 1.77440000e+09
3070.000000 1.73757000e+09
3090.000000 1.70059000e+09
3110.000000 1.66664000e+09
3130.000000 1.63422000e+09
3150.000000 1.60115000e+09
3170.000000 1.56823000e+09
3190.000000 1.52223000e+09
3210.000000 1.50537000e+09
3230.000000 1.47519000e+09
3250.000000 1.44578000e+09
3270.000000 1.41917000e+09
3290.000000 1.38923000e+09
3310.000000 1.36448000e+09
3330.000000 1.33808000e+09
3350.000000 1.30967000e+09
3370.000000 1.28723000e+09
3390.000000 1.26271000e+09
3410.000000 1.23884000e+09
3430.000000 1.20935000e+09
3450.000000 1.18202000e+09
3470.000000 1.16371000e+09
3490.000000 1.14206000e+09
3510.000000 1.12357000e+09
3530.000000 1.10550000e+09
3550.000000 1.08563000e+09
3570.000000 1.07282000e+09
3590.000000 1.04544000e+09
3610.000000 1.03016000e+09
3630.000000 1.00843000e+09
3640.000000 1.00748000e+09
3650.000000 9.88757000e+08
3670.000000 9.75717000e+08
3690.000000 9.57200000e+08
3710.000000 9.24135000e+08
3730.000000 8.85360000e+08
3750.000000 9.02918000e+08
3770.000000 8.94397000e+08
3790.000000 9.42971000e+08
3810.000000 9.85599000e+08
3830.000000 8.54703000e+08
3850.000000 1.01669000e+09
3870.000000 1.03277000e+09
3890.000000 8.05337000e+08
3910.000000 1.01572000e+09
3930.000000 1.00753000e+09
3950.000000 9.83517000e+08
3970.000000 7.48420000e+08
3990.000000 9.40989000e+08
4010.000000 9.41068000e+08
4030.000000 8.79907000e+08
4050.000000 9.20871000e+08
4070.000000 8.99699000e+08
4090.000000 8.14936000e+08
4110.000000 7.06375000e+08
4130.000000 8.41523000e+08
4150.000000 8.35881000e+08
4170.000000 8.30460000e+08
4190.000000 8.18753000e+08
4210.000000 8.05190000e+08
4230.000000 7.91593000e+08
4250.000000 7.78133000e+08
4270.000000 7.63608000e+08
4290.000000 7.50548000e+08
4310.000000 7.32809000e+08
4330.000000 6.52594000e+08
4350.000000 5.93191000e+08
4370.000000 6.94893000e+08
4390.000000 6.68246000e+08
4410.000000 6.80620000e+08
4430.000000 6.67290000e+08
4450.000000 6.59612000e+08
4470.000000 6.14920000e+08
4490.000000 6.38026000e+08
4510.000000 6.29009000e+08
4530.000000 6.19043000e+08
4550.000000 6.09209000e+08
4570.000000 5.99613000e+08
4590.000000 5.90322000e+08
4610.000000 5.81170000e+08
4630.000000 5.72153000e+08
4650.000000 5.62712000e+08
4670.000000 5.54655000e+08
4690.000000 5.45909000e+08
4710.000000 5.30313000e+08
4730.000000 5.29609000e+08
4750.000000 5.21419000e+08
4770.000000 5.13976000e+08
4790.000000 5.06212000e+08
4810.000000 4.97126000e+08
4830.000000 4.86251000e+08
4850.000000 4.42098000e+08
4870.000000 3.93219000e+08
4890.000000 4.62591000e+08
4910.000000 4.60362000e+08
4930.000000 4.42343000e+08
4950.000000 4.49385000e+08
4970.000000 4.42999000e+08
4990.000000 4.36581000e+08
5010.000000 4.24277000e+08
5030.000000 4.24096000e+08
5050.000000 4.15233000e+08
5070.000000 4.12125000e+08
5090.000000 4.06275000e+08
5110.000000 4.00533000e+08
5130.000000 3.94854000e+08
5150.000000 3.89307000e+08
5170.000000 3.83891000e+08
5190.000000 3.78546000e+08
5210.000000 3.73272000e+08
5230.000000 3.68136000e+08
5250.000000 3.63054000e+08
5270.000000 3.58066000e+08
5290.000000 3.53169000e+08
5310.000000 3.48349000e+08
5330.000000 3.43618000e+08
5350.000000 3.38948000e+08
5370.000000 3.34390000e+08
5390.000000 3.29890000e+08
5410.000000 3.25460000e+08
5430.000000 3.21112000e+08
5450.000000 3.16832000e+08
5470.000000 3.12631000e+08
5490.000000 3.08495000e+08
5510.000000 3.04435000e+08
5530.000000 3.00426000e+08
5550.000000 2.96491000e+08
5570.000000 2.92617000e+08
5590.000000 2.88815000e+08
5610.000000 2.85072000e+08
5630.000000 2.81386000e+08
5650.000000 2.77745000e+08
5670.000000 2.74161000e+08
5690.000000 2.70631000e+08
5710.000000 2.67236000e+08
5730.000000 2.63836000e+08
5750.000000 2.60477000e+08
5770.000000 2.57204000e+08
5790.000000 2.53969000e+08
5810.000000 2.50784000e+08
5830.000000 2.47636000e+08
5850.000000 2.44559000e+08
5870.000000 2.33197000e+08
5890.000000 2.38002000e+08
5910.000000 2.35574000e+08
5930.000000 2.32670000e+08
5950.000000 2.29810000e+08
5970.000000 2.27004000e+08
5990.000000 2.24231000e+08
6010.000000 2.21510000e+08
6030.000000 2.18821000e+08
6050.000000 2.16183000e+08
6070.000000 2.13585000e+08
6090.000000 2.11016000e+08
6110.000000 2.08496000e+08
6130.000000 2.06005000e+08
6150.000000 2.03542000e+08
6170.000000 2.01136000e+08
6190.000000 1.98767000e+08
6210.000000 1.96424000e+08
6230.000000 1.94106000e+08
6250.000000 1.91834000e+08
6270.000000 1.89597000e+08
6290.000000 1.87383000e+08
6310.000000 1.85204000e+08
6330.000000 1.83058000e+08
6350.000000 1.80935000e+08
6370.000000 1.78863000e+08
6390.000000 1.76813000e+08
6410.000000 1.74785000e+08
6430.000000 1.72788000e+08
6450.000000 1.70822000e+08
6470.000000 1.68868000e+08
6490.000000 1.66961000e+08
6510.000000 1.64799000e+08
6530.000000 1.62130000e+08
6550.000000 1.53660000e+08
6570.000000 1.35846000e+08
6590.000000 1.55513000e+08
6610.000000 1.55522000e+08
6630.000000 1.54311000e+08
6650.000000 1.52719000e+08
6670.000000 1.49222000e+08
6690.000000 1.47616000e+08
6710.000000 1.47741000e+08
6730.000000 1.46116000e+08
6750.000000 1.44532000e+08
6770.000000 1.42956000e+08
6790.000000 1.41388000e+08
6810.000000 1.39876000e+08
6830.000000 1.38364000e+08
6850.000000 1.36874000e+08
6870.000000 1.35408000e+08
6890.000000 1.33956000e+08
6910.000000 1.32527000e+08
6930.000000 1.31112000e+08
6950.000000 1.29727000e+08
6970.000000 1.28355000e+08
6990.000000 1.26997000e+08
7010.000000 1.25661000e+08
7030.000000 1.24337000e+08
7050.000000 1.23041000e+08
7070.000000 1.19618000e+08
7090.000000 1.20488000e+08
7110.000000 1.19229000e+08
7130.000000 1.17998000e+08
7150.000000 1.16779000e+08
7170.000000 1.15549000e+08
7190.000000 1.14383000e+08
7210.000000 1.13213000e+08
7230.000000 1.11939000e+08
7250.000000 1.10913000e+08
7270.000000 1.09784000e+08
7290.000000 1.07693000e+08
7310.000000 1.07549000e+08
7330.000000 1.06479000e+08
7350.000000 1.05412000e+08
7370.000000 1.04349000e+08
7390.000000 1.03302000e+08
7410.000000 1.02271000e+08
7430.000000 1.01251000e+08
7450.000000 1.00260000e+08
7470.000000 9.92646000e+07
7490.000000 9.82852000e+07
7510.000000 9.72748000e+07
7530.000000 9.63535000e+07
7550.000000 9.54075000e+07
7570.000000 9.44701000e+07
7590.000000 9.35479000e+07
7610.000000 9.26340000e+07
7630.000000 9.17348000e+07
7650.000000 9.08438000e+07
7670.000000 8.99672000e+07
7690.000000 8.90985000e+07
7710.000000 8.82376000e+07
7730.000000 8.73907000e+07
7750.000000 8.65513000e+07
7770.000000 8.57195000e+07
7790.000000 8.49074000e+07
7810.000000 8.40469000e+07
7830.000000 8.33047000e+07
7850.000000 8.25996000e+07
7870.000000 8.18214000e+07
7890.000000 8.09956000e+07
7910.000000 8.02915000e+07
7930.000000 7.95395000e+07
7950.000000 7.87464000e+07
7970.000000 7.78476000e+07
7990.000000 7.71456000e+07
8010.000000 7.64027000e+07
8030.000000 7.56895000e+07
8050.000000 7.49884000e+07
8070.000000 7.43163000e+07
8090.000000 7.35406000e+07
8110.000000 7.29607000e+07
8130.000000 7.23514000e+07
8150.000000 7.16111000e+07
8170.000000 7.10577000e+07
8190.000000 7.03179000e+07
8210.000000 6.94951000e+07
8230.000000 6.90632000e+07
8250.000000 6.84630000e+07
8270.000000 6.74989000e+07
8290.000000 6.71845000e+07
8310.000000 6.66160000e+07
8330.000000 6.59816000e+07
8350.000000 6.50500000e+07
8370.000000 6.47072000e+07
8390.000000 6.42385000e+07
8410.000000 6.36670000e+07
8430.000000 6.30472000e+07
8450.000000 6.20316000e+07
8470.000000 6.19122000e+07
8490.000000 6.12132000e+07
8510.000000 6.07073000e+07
8530.000000 6.01382000e+07
8550.000000 5.91924000e+07
8570.000000 5.96243000e+07
8590.000000 5.74477000e+07
8610.000000 5.74403000e+07
8630.000000 5.84997000e+07
8650.000000 5.67844000e+07
8670.000000 5.40470000e+07
8690.000000 5.69813000e+07
8710.000000 5.72661000e+07
8730.000000 5.53382000e+07
8750.000000 5.06767000e+07
8770.000000 5.36198000e+07
8790.000000 5.56093000e+07
8810.000000 5.54493000e+07
8830.000000 5.45847000e+07
8850.000000 5.08174000e+07
8870.000000 4.73837000e+07
8890.000000 5.24347000e+07
8910.000000 5.31961000e+07
8930.000000 5.29345000e+07
8950.000000 5.26605000e+07
8970.000000 5.20139000e+07
8990.000000 5.01513000e+07
9010.000000 4.45295000e+07
9030.000000 4.66079000e+07
9050.000000 4.97093000e+07
9070.000000 4.94262000e+07
9090.000000 4.95554000e+07
9110.000000 4.93926000e+07
9130.000000 4.90227000e+07
9150.000000 4.85837000e+07
9170.000000 4.79374000e+07
9190.000000 4.73008000e+07
9210.000000 4.47506000e+07
9230.000000 3.95024000e+07
9250.000000 4.40196000e+07
9270.000000 4.56768000e+07
9290.000000 4.57379000e+07
9310.000000 4.52548000e+07
9330.000000 4.52297000e+07
9350.000000 4.48296000e+07
9370.000000 4.45183000e+07
9390.000000 4.41579000e+07
9410.000000 4.38003000e+07
9430.000000 4.34494000e+07
9450.000000 4.30759000e+07
9470.000000 4.23144000e+07
9490.000000 4.21697000e+07
9510.000000 4.10753000e+07
9530.000000 3.88444000e+07
9550.000000 3.46040000e+07
9570.000000 3.91625000e+07
9590.000000 4.02323000e+07
9610.000000 4.01066000e+07
9630.000000 3.97716000e+07
9650.000000 3.97962000e+07
9670.000000 3.94839000e+07
9690.000000 3.91289000e+07
9710.000000 3.87334000e+07
9730.000000 3.85647000e+07
9750.000000 3.82640000e+07
9770.000000 3.79662000e+07
9790.000000 3.76713000e+07
9810.000000 3.73789000e+07
9830.000000 3.70901000e+07
9850.000000 3.68038000e+07
9870.000000 3.65202000e+07
9890.000000 3.62390000e+07
9910.000000 3.59471000e+07
9930.000000 3.56851000e+07
9950.000000 3.54117000e+07
9970.000000 3.50511000e+07
9990.000000 3.46961000e+07
10025.000000 3.25582000e+07
10075.000000 3.14520000e+07
10125.000000 3.29204000e+07
10175.000000 3.25150000e+07
10225.000000 3.18952000e+07
10275.000000 3.13239000e+07
10325.000000 3.06064000e+07
10375.000000 3.01861000e+07
10425.000000 2.96366000e+07
10475.000000 2.90996000e+07
10525.000000 2.85748000e+07
10575.000000 2.80617000e+07
10625.000000 2.75599000e+07
10675.000000 2.70045000e+07
10725.000000 2.65899000e+07
10775.000000 2.61204000e+07
10825.000000 2.53447000e+07
10875.000000 2.50577000e+07
10925.000000 2.24701000e+07
10975.000000 2.35807000e+07
11025.000000 2.36900000e+07
11075.000000 2.34805000e+07
11125.000000 2.31114000e+07
11175.000000 2.27177000e+07
11225.000000 2.23178000e+07
11275.000000 2.19550000e+07
11325.000000 2.15856000e+07
11375.000000 2.12242000e+07
11425.000000 2.08700000e+07
11475.000000 2.05234000e+07
11525.000000 2.01840000e+07
11575.000000 1.98515000e+07
11625.000000 1.95258000e+07
11675.000000 1.92069000e+07
11725.000000 1.88943000e+07
11775.000000 1.85883000e+07
11825.000000 1.82881000e+07
11875.000000 1.79942000e+07
11925.000000 1.77061000e+07
11975.000000 1.72007000e+07
12025.000000 1.71471000e+07
12075.000000 1.68759000e+07
12125.000000 1.66102000e+07
12175.000000 1.63495000e+07
12225.000000 1.60941000e+07
12275.000000 1.58434000e+07
12325.000000 1.55976000e+07
12375.000000 1.53567000e+07
12425.000000 1.51204000e+07
12475.000000 1.48885000e+07
12525.000000 1.46244000e+07
12575.000000 1.44380000e+07
12625.000000 1.42192000e+07
12675.000000 1.40043000e+07
12725.000000 1.37660000e+07
12775.000000 1.32693000e+07
12825.000000 1.21461000e+07
12875.000000 1.30405000e+07
12925.000000 1.29705000e+07
12975.000000 1.26810000e+07
13025.000000 1.26100000e+07
13075.000000 1.24252000e+07
