# Kurucz ODFNEW /NOVER, alpha: 0.0 (2003)
# teff = 9500 K (value for the effective temperature for the model. Temperatures are given in K)
# logg = 5 log(cm/s2) (value for Log(G) for the model.)
# lh = 1.25  (l/Hp where l is the  mixing length of the convective element and Hp is the pressure scale height)
# meta = -1  (value for the Metallicity for the model.)
# vtur = 2 km/s (Microturbulence velocity)
# alpha = 0  (Alpha)
#
# column 1: WAVELENGTH (ANGSTROM), Wavelength in Angstrom
# column 2: FLUX (ERG/CM2/S/A), Flux in erg/cm2/s/A
268.500000 6.34552000e-23
273.500000 2.97496000e-22
278.500000 1.24498000e-21
284.000000 5.59190000e-21
290.000000 2.69140000e-20
296.000000 1.21340000e-19
301.000000 4.06576000e-19
308.000000 2.06640000e-18
318.000000 1.85858000e-17
328.000000 1.45892000e-16
338.000000 1.01088000e-15
348.000000 6.24896000e-15
357.000000 2.94463000e-14
366.000000 1.28347000e-13
375.000000 5.19987000e-13
385.000000 2.27303000e-12
395.000000 9.20159000e-12
405.000000 3.46768000e-11
414.000000 1.08100000e-10
422.000000 2.84656000e-10
430.000000 7.22204000e-10
441.000000 2.45256000e-09
451.000000 7.05929000e-09
460.000000 1.75441000e-08
470.000000 4.62325000e-08
480.000000 1.16758000e-07
490.000000 2.83371000e-07
500.000000 6.62531000e-07
506.000000 1.09985000e-06
512.000000 1.78719000e-06
520.000000 3.32397000e-06
530.000000 7.02683000e-06
540.000000 1.44155000e-05
550.000000 2.87809000e-05
560.000000 5.59664000e-05
570.000000 1.06192000e-04
580.000000 1.96753000e-04
590.000000 3.56675000e-04
600.000000 6.32947000e-04
610.000000 1.10103000e-03
620.000000 1.87884000e-03
630.000000 3.14843000e-03
640.000000 5.18592000e-03
650.000000 8.40218000e-03
658.000000 1.22208000e-02
665.000000 1.68275000e-02
675.000000 2.62456000e-02
685.000000 4.03686000e-02
695.000000 6.12633000e-02
705.000000 9.17900000e-02
716.000000 1.41181000e-01
726.000000 2.06278000e-01
735.000000 2.87395000e-01
745.000000 4.11200000e-01
755.000000 5.82279000e-01
765.000000 8.16384000e-01
775.000000 1.13378000e+00
785.000000 1.56011000e+00
795.000000 2.12790000e+00
805.000000 2.87786000e+00
815.000000 3.86051000e+00
825.000000 5.13819000e+00
835.000000 6.78705000e+00
845.000000 8.90032000e+00
855.000000 1.15896000e+01
865.000000 1.49891000e+01
875.000000 1.92600000e+01
885.000000 2.45925000e+01
895.000000 3.12102000e+01
905.000000 3.93765000e+01
915.000000 1.16129000e+02
925.000000 7.28208000e+02
935.000000 1.33761000e+03
945.000000 2.56291000e+03
955.000000 3.88413000e+03
965.000000 5.30490000e+03
975.000000 3.93356000e+03
985.000000 8.34087000e+03
995.000000 9.73155000e+03
1005.000000 1.17798000e+04
1015.000000 1.20981000e+04
1025.000000 7.02810000e+03
1035.000000 1.53097000e+04
1045.000000 2.04143000e+04
1055.000000 2.36975000e+04
1065.000000 2.66056000e+04
1075.000000 3.10143000e+04
1085.000000 3.52336000e+04
1095.000000 3.88912000e+04
1105.000000 6.34472000e+04
1115.000000 1.32934000e+06
1125.000000 2.08572000e+06
1135.000000 2.58711000e+06
1145.000000 1.63083000e+06
1155.000000 9.05037000e+05
1165.000000 4.06256000e+05
1175.000000 2.22584000e+05
1185.000000 1.87819000e+05
1195.000000 1.09848000e+05
1205.000000 8.11200000e+04
1215.000000 2.42731000e+04
1225.000000 8.74652000e+04
1235.000000 1.70442000e+05
1245.000000 2.51967000e+05
1255.000000 4.15640000e+05
1265.000000 7.38333000e+05
1275.000000 2.17573000e+06
1285.000000 7.93328000e+06
1295.000000 1.33920000e+07
1305.000000 1.54377000e+07
1315.000000 2.43459000e+07
1325.000000 3.17134000e+07
1335.000000 3.76365000e+07
1345.000000 4.65939000e+07
1355.000000 4.51023000e+07
1365.000000 4.64577000e+07
1375.000000 4.32777000e+07
1385.000000 3.38447000e+07
1395.000000 3.24049000e+07
1405.000000 5.06517000e+07
1415.000000 7.20541000e+07
1425.000000 7.95211000e+07
1435.000000 7.34259000e+07
1442.000000 8.54314000e+07
1447.000000 8.52145000e+07
1455.000000 8.97164000e+07
1465.000000 8.26559000e+07
1475.000000 8.38783000e+07
1485.000000 8.48144000e+07
1495.000000 8.86088000e+07
1505.000000 9.11708000e+07
1512.000000 8.73344000e+07
1517.000000 8.95688000e+07
1525.000000 8.68545000e+07
1535.000000 8.65388000e+07
1545.000000 8.83245000e+07
1555.000000 7.37419000e+07
1565.000000 5.91960000e+07
1575.000000 7.30823000e+07
1585.000000 7.67952000e+07
1595.000000 7.84860000e+07
1605.000000 7.65502000e+07
1615.000000 8.34626000e+07
1625.000000 8.24657000e+07
1635.000000 9.05174000e+07
1645.000000 1.05394000e+08
1655.000000 8.59675000e+07
1665.000000 1.08051000e+08
1672.000000 9.14163000e+07
1677.000000 1.03359000e+08
1685.000000 1.11148000e+08
1695.000000 1.00064000e+08
1705.000000 1.01983000e+08
1715.000000 1.06899000e+08
1725.000000 1.04633000e+08
1735.000000 1.09048000e+08
1745.000000 1.05612000e+08
1755.000000 1.10233000e+08
1765.000000 9.89874000e+07
1775.000000 1.07508000e+08
1785.000000 1.06336000e+08
1795.000000 1.11482000e+08
1805.000000 1.06408000e+08
1815.000000 1.05482000e+08
1825.000000 1.01734000e+08
1835.000000 1.01885000e+08
1845.000000 9.57388000e+07
1855.000000 9.90470000e+07
1865.000000 1.00454000e+08
1875.000000 1.01599000e+08
1885.000000 1.01298000e+08
1895.000000 1.00716000e+08
1905.000000 9.72981000e+07
1915.000000 9.91764000e+07
1925.000000 1.00022000e+08
1935.000000 9.57946000e+07
1945.000000 1.00948000e+08
1955.000000 9.99874000e+07
1967.000000 1.00602000e+08
1976.000000 9.75743000e+07
1984.000000 9.64254000e+07
1995.000000 9.54312000e+07
2005.000000 9.29888000e+07
2015.000000 9.13732000e+07
2025.000000 8.95974000e+07
2035.000000 9.29446000e+07
2045.000000 9.37404000e+07
2055.000000 9.06001000e+07
2065.000000 8.99191000e+07
2074.000000 9.22670000e+07
2078.000000 9.33604000e+07
2085.000000 9.25959000e+07
2095.000000 9.00918000e+07
2105.000000 8.90508000e+07
2115.000000 8.90024000e+07
2125.000000 8.90176000e+07
2135.000000 8.25541000e+07
2145.000000 8.77502000e+07
2155.000000 8.66862000e+07
2165.000000 8.34520000e+07
2175.000000 8.28616000e+07
2185.000000 8.32569000e+07
2195.000000 8.61985000e+07
2205.000000 8.31714000e+07
2215.000000 7.86135000e+07
2225.000000 7.91032000e+07
2235.000000 8.41890000e+07
2245.000000 7.94716000e+07
2255.000000 7.73607000e+07
2265.000000 7.63927000e+07
2275.000000 7.98133000e+07
2285.000000 8.09345000e+07
2295.000000 7.72481000e+07
2305.000000 7.73806000e+07
2315.000000 7.62987000e+07
2325.000000 7.62920000e+07
2335.000000 7.55086000e+07
2345.000000 7.03787000e+07
2355.000000 7.52708000e+07
2365.000000 7.08032000e+07
2375.000000 7.31402000e+07
2385.000000 6.72430000e+07
2395.000000 7.14837000e+07
2405.000000 6.95553000e+07
2415.000000 7.01754000e+07
2425.000000 7.19425000e+07
2435.000000 6.90846000e+07
2445.000000 7.15959000e+07
2455.000000 7.01513000e+07
2465.000000 6.91616000e+07
2475.000000 6.70233000e+07
2485.000000 6.91571000e+07
2495.000000 6.74479000e+07
2505.000000 7.12631000e+07
2513.000000 6.78393000e+07
2518.000000 6.74691000e+07
2525.000000 6.42948000e+07
2535.000000 6.39351000e+07
2545.000000 6.37244000e+07
2555.000000 6.69893000e+07
2565.000000 6.67371000e+07
2575.000000 6.91912000e+07
2585.000000 6.94519000e+07
2595.000000 6.92421000e+07
2605.000000 6.70960000e+07
2615.000000 6.65508000e+07
2625.000000 6.76029000e+07
2635.000000 6.78937000e+07
2645.000000 7.17593000e+07
2655.000000 7.11342000e+07
2665.000000 6.83576000e+07
2675.000000 6.94585000e+07
2685.000000 7.00499000e+07
2695.000000 6.78557000e+07
2705.000000 6.79418000e+07
2715.000000 6.59397000e+07
2725.000000 6.58574000e+07
2735.000000 6.79402000e+07
2745.000000 6.27464000e+07
2755.000000 6.30362000e+07
2765.000000 6.49217000e+07
2775.000000 6.65974000e+07
2785.000000 6.55615000e+07
2795.000000 5.68323000e+07
2805.000000 6.09717000e+07
2815.000000 6.71856000e+07
2825.000000 6.67250000e+07
2835.000000 6.52333000e+07
2845.000000 6.38539000e+07
2855.000000 6.24229000e+07
2865.000000 6.41955000e+07
2875.000000 6.33806000e+07
2885.000000 6.42455000e+07
2895.000000 6.39283000e+07
2910.000000 6.58824000e+07
2930.000000 6.39285000e+07
2950.000000 6.35061000e+07
2970.000000 6.33840000e+07
2990.000000 6.31499000e+07
3010.000000 6.33364000e+07
3030.000000 6.29421000e+07
3050.000000 6.24433000e+07
3070.000000 6.18602000e+07
3090.000000 6.17407000e+07
3110.000000 6.11400000e+07
3130.000000 6.06380000e+07
3150.000000 6.05273000e+07
3170.000000 6.01483000e+07
3190.000000 5.86524000e+07
3210.000000 5.89914000e+07
3230.000000 5.81728000e+07
3250.000000 5.82829000e+07
3270.000000 5.83402000e+07
3290.000000 5.81586000e+07
3310.000000 5.79325000e+07
3330.000000 5.71231000e+07
3350.000000 5.63256000e+07
3370.000000 5.61566000e+07
3390.000000 5.56632000e+07
3410.000000 5.57864000e+07
3430.000000 5.54036000e+07
3450.000000 5.50416000e+07
3470.000000 5.46154000e+07
3490.000000 5.43346000e+07
3510.000000 5.41819000e+07
3530.000000 5.38962000e+07
3550.000000 5.35986000e+07
3570.000000 5.29583000e+07
3590.000000 5.26447000e+07
3610.000000 5.23087000e+07
3630.000000 5.20426000e+07
3640.000000 5.18822000e+07
3650.000000 5.20564000e+07
3670.000000 5.19772000e+07
3690.000000 5.09422000e+07
3710.000000 4.98032000e+07
3730.000000 4.74131000e+07
3750.000000 5.35659000e+07
3770.000000 5.53184000e+07
3790.000000 6.58249000e+07
3810.000000 7.72555000e+07
3830.000000 6.24411000e+07
3850.000000 8.70805000e+07
3870.000000 1.00767000e+08
3890.000000 5.47588000e+07
3910.000000 1.02319000e+08
3930.000000 1.16022000e+08
3950.000000 1.02439000e+08
3970.000000 5.29853000e+07
3990.000000 9.64819000e+07
4010.000000 1.20325000e+08
4030.000000 1.24358000e+08
4050.000000 1.21642000e+08
4070.000000 1.10020000e+08
4090.000000 7.58972000e+07
4110.000000 5.80457000e+07
4130.000000 1.01298000e+08
4150.000000 1.13831000e+08
4170.000000 1.16382000e+08
4190.000000 1.16074000e+08
4210.000000 1.14967000e+08
4230.000000 1.12874000e+08
4250.000000 1.11464000e+08
4270.000000 1.08530000e+08
4290.000000 1.04513000e+08
4310.000000 9.31962000e+07
4330.000000 6.32762000e+07
4350.000000 5.41387000e+07
4370.000000 8.79402000e+07
4390.000000 9.71981000e+07
4410.000000 9.94488000e+07
4430.000000 9.95876000e+07
4450.000000 9.92328000e+07
4470.000000 9.82149000e+07
4490.000000 9.64131000e+07
4510.000000 9.61100000e+07
4530.000000 9.48887000e+07
4550.000000 9.34322000e+07
4570.000000 9.28056000e+07
4590.000000 9.15122000e+07
4610.000000 9.07146000e+07
4630.000000 8.93632000e+07
4650.000000 8.84759000e+07
4670.000000 8.73794000e+07
4690.000000 8.59147000e+07
4710.000000 8.37975000e+07
4730.000000 8.39205000e+07
4750.000000 8.26709000e+07
4770.000000 8.11645000e+07
4790.000000 7.91861000e+07
4810.000000 7.58503000e+07
4830.000000 6.86009000e+07
4850.000000 5.00074000e+07
4870.000000 4.10883000e+07
4890.000000 6.34161000e+07
4910.000000 7.06748000e+07
4930.000000 7.23454000e+07
4950.000000 7.28966000e+07
4970.000000 7.26817000e+07
4990.000000 7.20458000e+07
5010.000000 7.11175000e+07
5030.000000 7.06752000e+07
5050.000000 6.98211000e+07
5070.000000 6.92625000e+07
5090.000000 6.85491000e+07
5110.000000 6.78232000e+07
5130.000000 6.70362000e+07
5150.000000 6.62609000e+07
5170.000000 6.49318000e+07
5190.000000 6.44449000e+07
5210.000000 6.40912000e+07
5230.000000 6.32453000e+07
5250.000000 6.27630000e+07
5270.000000 6.18398000e+07
5290.000000 6.13879000e+07
5310.000000 6.06498000e+07
5330.000000 5.99502000e+07
5350.000000 5.94278000e+07
5370.000000 5.87325000e+07
5390.000000 5.81288000e+07
5410.000000 5.74437000e+07
5430.000000 5.68961000e+07
5450.000000 5.63119000e+07
5470.000000 5.57233000e+07
5490.000000 5.51493000e+07
5510.000000 5.45809000e+07
5530.000000 5.39712000e+07
5550.000000 5.34484000e+07
5570.000000 5.28710000e+07
5590.000000 5.23101000e+07
5610.000000 5.17846000e+07
5630.000000 5.12664000e+07
5650.000000 5.07353000e+07
5670.000000 5.02022000e+07
5690.000000 4.96998000e+07
5710.000000 4.91917000e+07
5730.000000 4.87043000e+07
5750.000000 4.81986000e+07
5770.000000 4.77157000e+07
5790.000000 4.72338000e+07
5810.000000 4.67607000e+07
5830.000000 4.62919000e+07
5850.000000 4.58251000e+07
5870.000000 4.53428000e+07
5890.000000 4.47368000e+07
5910.000000 4.44690000e+07
5930.000000 4.40303000e+07
5950.000000 4.35890000e+07
5970.000000 4.31632000e+07
5990.000000 4.27295000e+07
6010.000000 4.23048000e+07
6030.000000 4.19044000e+07
6050.000000 4.14961000e+07
6070.000000 4.10983000e+07
6090.000000 4.06988000e+07
6110.000000 4.03016000e+07
6130.000000 3.99027000e+07
6150.000000 3.94733000e+07
6170.000000 3.91278000e+07
6190.000000 3.87809000e+07
6210.000000 3.84114000e+07
6230.000000 3.80380000e+07
6250.000000 3.76455000e+07
6270.000000 3.73290000e+07
6290.000000 3.69768000e+07
6310.000000 3.66169000e+07
6330.000000 3.62712000e+07
6350.000000 3.58375000e+07
6370.000000 3.54866000e+07
6390.000000 3.51679000e+07
6410.000000 3.47957000e+07
6430.000000 3.44283000e+07
6450.000000 3.39851000e+07
6470.000000 3.35557000e+07
6490.000000 3.29459000e+07
6510.000000 3.20175000e+07
6530.000000 3.01130000e+07
6550.000000 2.51612000e+07
6570.000000 2.06287000e+07
6590.000000 2.78573000e+07
6610.000000 3.01119000e+07
6630.000000 3.07387000e+07
6650.000000 3.08326000e+07
6670.000000 3.07293000e+07
6690.000000 3.05526000e+07
6710.000000 3.03348000e+07
6730.000000 3.00948000e+07
6750.000000 2.98465000e+07
6770.000000 2.96457000e+07
6790.000000 2.93913000e+07
6810.000000 2.91312000e+07
6830.000000 2.88703000e+07
6850.000000 2.86185000e+07
6870.000000 2.83675000e+07
6890.000000 2.81197000e+07
6910.000000 2.78736000e+07
6930.000000 2.76290000e+07
6950.000000 2.73891000e+07
6970.000000 2.71507000e+07
6990.000000 2.69169000e+07
7010.000000 2.66761000e+07
7030.000000 2.64483000e+07
7050.000000 2.62234000e+07
7070.000000 2.59992000e+07
7090.000000 2.57777000e+07
7110.000000 2.55040000e+07
7130.000000 2.53300000e+07
7150.000000 2.51163000e+07
7170.000000 2.49060000e+07
7190.000000 2.46948000e+07
7210.000000 2.44862000e+07
7230.000000 2.42803000e+07
7250.000000 2.40713000e+07
7270.000000 2.38741000e+07
7290.000000 2.36703000e+07
7310.000000 2.34740000e+07
7330.000000 2.32780000e+07
7350.000000 2.30874000e+07
7370.000000 2.28957000e+07
7390.000000 2.27036000e+07
7410.000000 2.25099000e+07
7430.000000 2.23186000e+07
7450.000000 2.21405000e+07
7470.000000 2.19451000e+07
7490.000000 2.17704000e+07
7510.000000 2.16018000e+07
7530.000000 2.14267000e+07
7550.000000 2.12545000e+07
7570.000000 2.10812000e+07
7590.000000 2.09101000e+07
7610.000000 2.07405000e+07
7630.000000 2.05724000e+07
7650.000000 2.04051000e+07
7670.000000 2.02373000e+07
7690.000000 2.00768000e+07
7710.000000 1.99151000e+07
7730.000000 1.97592000e+07
7750.000000 1.96003000e+07
7770.000000 1.92580000e+07
7790.000000 1.92902000e+07
7810.000000 1.91372000e+07
7830.000000 1.89824000e+07
7850.000000 1.88284000e+07
7870.000000 1.86665000e+07
7890.000000 1.85103000e+07
7910.000000 1.83873000e+07
7930.000000 1.82443000e+07
7950.000000 1.80930000e+07
7970.000000 1.79656000e+07
7990.000000 1.77949000e+07
8010.000000 1.76850000e+07
8030.000000 1.75462000e+07
8050.000000 1.74120000e+07
8070.000000 1.72766000e+07
8090.000000 1.71436000e+07
8110.000000 1.70133000e+07
8130.000000 1.68824000e+07
8150.000000 1.67531000e+07
8170.000000 1.66249000e+07
8190.000000 1.64736000e+07
8210.000000 1.63906000e+07
8230.000000 1.62694000e+07
8250.000000 1.61507000e+07
8270.000000 1.60639000e+07
8290.000000 1.59503000e+07
8310.000000 1.58398000e+07
8330.000000 1.56954000e+07
8350.000000 1.56192000e+07
8370.000000 1.55097000e+07
8390.000000 1.53931000e+07
8410.000000 1.52789000e+07
8430.000000 1.51567000e+07
8450.000000 1.49774000e+07
8470.000000 1.48799000e+07
8490.000000 1.48131000e+07
8510.000000 1.44943000e+07
8530.000000 1.46046000e+07
8550.000000 1.39952000e+07
8570.000000 1.44819000e+07
8590.000000 1.39147000e+07
8610.000000 1.37226000e+07
8630.000000 1.43116000e+07
8650.000000 1.37873000e+07
8670.000000 1.24422000e+07
8690.000000 1.38796000e+07
8710.000000 1.42023000e+07
8730.000000 1.35827000e+07
8750.000000 1.14339000e+07
8770.000000 1.29306000e+07
8790.000000 1.39708000e+07
8810.000000 1.41079000e+07
8830.000000 1.36556000e+07
8850.000000 1.20466000e+07
8870.000000 1.05673000e+07
8890.000000 1.28141000e+07
8910.000000 1.36601000e+07
8930.000000 1.38967000e+07
8950.000000 1.38520000e+07
8970.000000 1.34340000e+07
8990.000000 1.24406000e+07
9010.000000 1.00925000e+07
9030.000000 1.08185000e+07
9050.000000 1.25126000e+07
9070.000000 1.30661000e+07
9090.000000 1.32070000e+07
9110.000000 1.33570000e+07
9130.000000 1.33252000e+07
9150.000000 1.31541000e+07
9170.000000 1.28360000e+07
9190.000000 1.22432000e+07
9210.000000 1.10286000e+07
9230.000000 8.86317000e+06
9250.000000 1.06024000e+07
9270.000000 1.17408000e+07
9290.000000 1.22787000e+07
9310.000000 1.24524000e+07
9330.000000 1.24926000e+07
9350.000000 1.24698000e+07
9370.000000 1.24123000e+07
9390.000000 1.23228000e+07
9410.000000 1.21381000e+07
9430.000000 1.21083000e+07
9450.000000 1.19622000e+07
9470.000000 1.17542000e+07
9490.000000 1.14236000e+07
9510.000000 1.08332000e+07
9530.000000 9.63094000e+06
9550.000000 7.95323000e+06
9570.000000 9.72871000e+06
9590.000000 1.06447000e+07
9610.000000 1.10030000e+07
9630.000000 1.11121000e+07
9650.000000 1.11859000e+07
9670.000000 1.11264000e+07
9690.000000 1.11246000e+07
9710.000000 1.10776000e+07
9730.000000 1.10134000e+07
9750.000000 1.09437000e+07
9770.000000 1.08765000e+07
9790.000000 1.08038000e+07
9810.000000 1.07292000e+07
9830.000000 1.06521000e+07
9850.000000 1.05704000e+07
9870.000000 1.04897000e+07
9890.000000 1.03873000e+07
9910.000000 1.03136000e+07
9930.000000 1.02075000e+07
9950.000000 1.00843000e+07
9970.000000 9.91691000e+06
9990.000000 9.66170000e+06
10025.000000 8.46305000e+06
10075.000000 8.05191000e+06
10125.000000 9.31942000e+06
10175.000000 9.41108000e+06
10225.000000 9.31855000e+06
10275.000000 9.18740000e+06
10325.000000 9.05516000e+06
10375.000000 8.91420000e+06
10425.000000 8.77031000e+06
10475.000000 8.61640000e+06
10525.000000 8.48576000e+06
10575.000000 8.35046000e+06
10625.000000 8.21665000e+06
10675.000000 8.01457000e+06
10725.000000 7.90890000e+06
10775.000000 7.77629000e+06
10825.000000 7.58149000e+06
10875.000000 7.21314000e+06
10925.000000 5.92449000e+06
10975.000000 6.46051000e+06
11025.000000 7.01882000e+06
11075.000000 7.05571000e+06
11125.000000 6.98969000e+06
11175.000000 6.90014000e+06
11225.000000 6.81040000e+06
11275.000000 6.69086000e+06
11325.000000 6.58844000e+06
11375.000000 6.50822000e+06
11425.000000 6.40867000e+06
11475.000000 6.31861000e+06
11525.000000 6.22533000e+06
11575.000000 6.13258000e+06
11625.000000 6.03366000e+06
11675.000000 5.93179000e+06
11725.000000 5.86624000e+06
11775.000000 5.74615000e+06
11825.000000 5.68446000e+06
11875.000000 5.59982000e+06
11925.000000 5.53309000e+06
11975.000000 5.44364000e+06
12025.000000 5.37293000e+06
12075.000000 5.29339000e+06
12125.000000 5.21984000e+06
12175.000000 5.14783000e+06
12225.000000 5.07455000e+06
12275.000000 5.00129000e+06
12325.000000 4.93153000e+06
12375.000000 4.86322000e+06
12425.000000 4.79658000e+06
12475.000000 4.72771000e+06
12525.000000 4.65642000e+06
12575.000000 4.58039000e+06
12625.000000 4.50755000e+06
12675.000000 4.42609000e+06
12725.000000 4.30041000e+06
12775.000000 4.00366000e+06
12825.000000 3.40929000e+06
12875.000000 3.95398000e+06
12925.000000 4.08717000e+06
12975.000000 4.08370000e+06
13025.000000 4.04752000e+06
13075.000000 4.00164000e+06
13125.000000 3.95656000e+06
13175.000000 3.90423000e+06
13225.000000 3.85473000e+06
13275.000000 3.80394000e+06
13325.000000 3.75402000e+06
13375.000000 3.70474000e+06
13425.000000 3.65629000e+06
13475.000000 3.60846000e+06
13525.000000 3.56061000e+06
13575.000000 3.51481000e+06
13625.000000 3.46998000e+06
13675.000000 3.42511000e+06
13725.000000 3.37760000e+06
13775.000000 3.33764000e+06
13825.000000 3.29521000e+06
13875.000000 3.25390000e+06
13925.000000 3.21172000e+06
13975.000000 3.17181000e+06
14025.000000 3.13200000e+06
14075.000000 3.09267000e+06
14125.000000 3.05382000e+06
14175.000000 3.01563000e+06
14225.000000 2.97808000e+06
14275.000000 2.94099000e+06
14325.000000 2.90470000e+06
14375.000000 2.86903000e+06
14425.000000 2.82365000e+06
14475.000000 2.79878000e+06
