# Kurucz ODFNEW /NOVER, alpha: 0.0 (2003)
# teff = 32000 K (value for the effective temperature for the model. Temperatures are given in K)
# logg = 4 log(cm/s2) (value for Log(G) for the model.)
# lh = 1.25  (l/Hp where l is the  mixing length of the convective element and Hp is the pressure scale height)
# meta = -0.5  (value for the Metallicity for the model.)
# vtur = 2 km/s (Microturbulence velocity)
# alpha = 0  (Alpha)
#
# column 1: WAVELENGTH (ANGSTROM), Wavelength in Angstrom
# column 2: FLUX (ERG/CM2/S/A), Flux in erg/cm2/s/A
147.200000 8.16925000e-07
151.000000 2.27482000e-06
155.200000 6.67749000e-06
158.800000 1.61150000e-05
162.000000 3.42550000e-05
166.000000 8.45905000e-05
170.300000 2.13512000e-04
173.400000 4.05603000e-04
176.800000 8.00300000e-04
180.200000 1.54024000e-03
181.700000 2.04312000e-03
186.100000 4.55558000e-03
191.000000 1.06830000e-02
193.900000 1.73499000e-02
198.400000 3.58693000e-02
201.800000 6.08038000e-02
205.000000 9.83934000e-02
210.500000 2.17968000e-01
216.200000 4.76279000e-01
219.800000 7.66309000e-01
223.000000 1.15377000e+00
226.800000 1.84585000e+00
230.000000 2.33473000e+03
234.000000 6.12801000e+03
240.000000 9.79431000e+03
246.500000 1.67309000e+04
252.400000 2.71853000e+04
256.800000 3.35728000e+04
260.000000 6.04049000e+04
264.000000 9.65175000e+04
268.500000 1.41035000e+05
273.500000 1.90857000e+05
278.500000 2.37567000e+05
284.000000 4.59454000e+05
290.000000 6.47966000e+05
296.000000 8.36135000e+05
301.000000 1.12847000e+06
308.000000 2.18745000e+06
318.000000 5.11463000e+06
328.000000 7.21425000e+06
338.000000 1.21763000e+07
348.000000 1.81281000e+07
357.000000 2.88983000e+07
366.000000 4.60661000e+07
375.000000 5.55162000e+07
385.000000 7.53332000e+07
395.000000 1.03318000e+08
405.000000 1.27262000e+08
414.000000 1.56738000e+08
422.000000 1.76262000e+08
430.000000 2.02774000e+08
441.000000 2.51320000e+08
451.000000 2.92195000e+08
460.000000 3.22802000e+08
470.000000 3.79526000e+08
480.000000 4.42395000e+08
490.000000 4.92525000e+08
500.000000 5.84594000e+08
506.000000 1.63001000e+09
512.000000 7.85380000e+09
520.000000 7.38133000e+09
530.000000 6.74157000e+09
540.000000 6.19213000e+09
550.000000 7.12075000e+09
560.000000 8.50260000e+09
570.000000 8.87338000e+09
580.000000 8.16240000e+09
590.000000 8.66629000e+09
600.000000 7.62867000e+09
610.000000 8.66468000e+09
620.000000 9.83769000e+09
630.000000 9.63892000e+09
640.000000 9.61230000e+09
650.000000 9.63536000e+09
658.000000 8.82299000e+09
665.000000 9.70053000e+09
675.000000 1.03124000e+10
685.000000 8.94243000e+09
695.000000 1.06469000e+10
705.000000 9.39805000e+09
716.000000 1.11867000e+10
726.000000 1.10158000e+10
735.000000 1.11354000e+10
745.000000 1.09314000e+10
755.000000 1.09108000e+10
765.000000 1.10368000e+10
775.000000 1.12563000e+10
785.000000 1.15784000e+10
795.000000 1.15726000e+10
805.000000 1.13334000e+10
815.000000 1.13446000e+10
825.000000 1.17321000e+10
835.000000 1.03554000e+10
845.000000 1.14756000e+10
855.000000 1.14638000e+10
865.000000 1.17199000e+10
875.000000 1.17872000e+10
885.000000 1.19129000e+10
895.000000 1.20018000e+10
905.000000 1.17670000e+10
915.000000 1.33593000e+10
925.000000 4.20744000e+10
935.000000 6.31312000e+10
945.000000 8.12413000e+10
955.000000 8.67074000e+10
965.000000 9.59518000e+10
975.000000 5.09875000e+10
985.000000 8.32728000e+10
995.000000 7.68585000e+10
1005.000000 7.89396000e+10
1015.000000 8.03831000e+10
1025.000000 6.44828000e+10
1035.000000 7.73804000e+10
1045.000000 8.44931000e+10
1055.000000 8.15924000e+10
1065.000000 7.38628000e+10
1075.000000 7.50606000e+10
1085.000000 6.99168000e+10
1095.000000 7.34089000e+10
1105.000000 7.04633000e+10
1115.000000 6.91414000e+10
1125.000000 6.09286000e+10
1135.000000 6.66151000e+10
1145.000000 6.37094000e+10
1155.000000 6.18598000e+10
1165.000000 6.03278000e+10
1175.000000 4.49742000e+10
1185.000000 5.54192000e+10
1195.000000 5.42027000e+10
1205.000000 5.18357000e+10
1215.000000 4.10817000e+10
1225.000000 5.02197000e+10
1235.000000 5.23836000e+10
1245.000000 5.05757000e+10
1255.000000 5.02776000e+10
1265.000000 5.06983000e+10
1275.000000 5.06802000e+10
1285.000000 5.01751000e+10
1295.000000 4.71770000e+10
1305.000000 4.68859000e+10
1315.000000 4.79009000e+10
1325.000000 4.62429000e+10
1335.000000 4.48953000e+10
1345.000000 4.48758000e+10
1355.000000 4.37275000e+10
1365.000000 4.24240000e+10
1375.000000 4.15202000e+10
1385.000000 4.04986000e+10
1395.000000 3.51190000e+10
1405.000000 3.52125000e+10
1415.000000 3.80620000e+10
1425.000000 3.50789000e+10
1435.000000 3.62821000e+10
1442.000000 3.61155000e+10
1447.000000 3.57332000e+10
1455.000000 3.44694000e+10
1465.000000 3.38775000e+10
1475.000000 3.34959000e+10
1485.000000 3.33299000e+10
1495.000000 3.22939000e+10
1505.000000 3.16915000e+10
1512.000000 3.11202000e+10
1517.000000 3.10169000e+10
1525.000000 3.01821000e+10
1535.000000 2.73263000e+10
1545.000000 2.47578000e+10
1555.000000 2.45059000e+10
1565.000000 2.59226000e+10
1575.000000 2.66833000e+10
1585.000000 2.66626000e+10
1595.000000 2.62834000e+10
1605.000000 2.47475000e+10
1615.000000 2.38960000e+10
1625.000000 2.41078000e+10
1635.000000 2.40844000e+10
1645.000000 2.34681000e+10
1655.000000 2.39583000e+10
1665.000000 2.34893000e+10
1672.000000 2.22096000e+10
1677.000000 2.43412000e+10
1685.000000 2.34644000e+10
1695.000000 2.28304000e+10
1705.000000 2.23859000e+10
1715.000000 2.16401000e+10
1725.000000 2.10228000e+10
1735.000000 2.15070000e+10
1745.000000 2.11437000e+10
1755.000000 2.07163000e+10
1765.000000 2.04399000e+10
1775.000000 2.00057000e+10
1785.000000 1.99655000e+10
1795.000000 1.95250000e+10
1805.000000 1.94226000e+10
1815.000000 1.89232000e+10
1825.000000 1.86316000e+10
1835.000000 1.85488000e+10
1845.000000 1.77318000e+10
1855.000000 1.76058000e+10
1865.000000 1.75052000e+10
1875.000000 1.72182000e+10
1885.000000 1.65367000e+10
1895.000000 1.62094000e+10
1905.000000 1.64196000e+10
1915.000000 1.59682000e+10
1925.000000 1.52486000e+10
1935.000000 1.56750000e+10
1945.000000 1.56895000e+10
1955.000000 1.47192000e+10
1967.000000 1.50124000e+10
1976.000000 1.51055000e+10
1984.000000 1.46605000e+10
1995.000000 1.42323000e+10
2005.000000 1.43662000e+10
2015.000000 1.42667000e+10
2025.000000 1.41298000e+10
2035.000000 1.37229000e+10
2045.000000 1.35161000e+10
2055.000000 1.13205000e+10
2065.000000 1.09612000e+10
2074.000000 1.13164000e+10
2078.000000 1.12711000e+10
2085.000000 1.18516000e+10
2095.000000 1.22855000e+10
2105.000000 1.23816000e+10
2115.000000 1.23793000e+10
2125.000000 1.21696000e+10
2135.000000 1.20369000e+10
2145.000000 1.18332000e+10
2155.000000 1.18015000e+10
2165.000000 1.14050000e+10
2175.000000 1.14875000e+10
2185.000000 1.11712000e+10
2195.000000 1.12213000e+10
2205.000000 1.10554000e+10
2215.000000 1.07178000e+10
2225.000000 1.07244000e+10
2235.000000 1.05608000e+10
2245.000000 1.04108000e+10
2255.000000 1.01150000e+10
2265.000000 1.01301000e+10
2275.000000 9.99905000e+09
2285.000000 9.80782000e+09
2295.000000 9.21828000e+09
2305.000000 9.41287000e+09
2315.000000 9.39781000e+09
2325.000000 9.29414000e+09
2335.000000 9.15390000e+09
2345.000000 9.04105000e+09
2355.000000 8.90466000e+09
2365.000000 8.77967000e+09
2375.000000 8.63977000e+09
2385.000000 8.36017000e+09
2395.000000 8.35553000e+09
2405.000000 8.29465000e+09
2415.000000 8.17895000e+09
2425.000000 8.08729000e+09
2435.000000 7.95873000e+09
2445.000000 7.86163000e+09
2455.000000 7.75271000e+09
2465.000000 7.65583000e+09
2475.000000 7.55288000e+09
2485.000000 7.41413000e+09
2495.000000 6.35929000e+09
2505.000000 7.17854000e+09
2513.000000 6.88654000e+09
2518.000000 7.00717000e+09
2525.000000 7.06291000e+09
2535.000000 6.98502000e+09
2545.000000 6.86044000e+09
2555.000000 6.77972000e+09
2565.000000 6.70692000e+09
2575.000000 6.62084000e+09
2585.000000 6.53927000e+09
2595.000000 6.44421000e+09
2605.000000 6.38928000e+09
2615.000000 6.29368000e+09
2625.000000 6.22504000e+09
2635.000000 6.14587000e+09
2645.000000 6.06017000e+09
2655.000000 5.98521000e+09
2665.000000 5.88681000e+09
2675.000000 5.79339000e+09
2685.000000 5.76547000e+09
2695.000000 5.65481000e+09
2705.000000 5.60896000e+09
2715.000000 5.53450000e+09
2725.000000 5.45793000e+09
2735.000000 5.34053000e+09
2745.000000 5.34869000e+09
2755.000000 5.28462000e+09
2765.000000 5.19324000e+09
2775.000000 5.16469000e+09
2785.000000 5.09415000e+09
2795.000000 4.97482000e+09
2805.000000 4.95713000e+09
2815.000000 4.91769000e+09
2825.000000 4.83620000e+09
2835.000000 4.76980000e+09
2845.000000 4.74564000e+09
2855.000000 4.68380000e+09
2865.000000 4.62362000e+09
2875.000000 4.57237000e+09
2885.000000 4.51991000e+09
2895.000000 4.46554000e+09
2910.000000 4.37954000e+09
2930.000000 4.28845000e+09
2950.000000 4.16902000e+09
2970.000000 4.08791000e+09
2990.000000 3.98385000e+09
3010.000000 3.89029000e+09
3030.000000 3.79996000e+09
3050.000000 3.72388000e+09
3070.000000 3.65030000e+09
3090.000000 3.55052000e+09
3110.000000 3.48884000e+09
3130.000000 3.40936000e+09
3150.000000 3.33485000e+09
3170.000000 3.26205000e+09
3190.000000 3.18332000e+09
3210.000000 3.10883000e+09
3230.000000 3.05886000e+09
3250.000000 2.99875000e+09
3270.000000 2.92642000e+09
3290.000000 2.86986000e+09
3310.000000 2.81145000e+09
3330.000000 2.74914000e+09
3350.000000 2.68795000e+09
3370.000000 2.63696000e+09
3390.000000 2.58939000e+09
3410.000000 2.53626000e+09
3430.000000 2.48096000e+09
3450.000000 2.42322000e+09
3470.000000 2.38013000e+09
3490.000000 2.33215000e+09
3510.000000 2.29045000e+09
3530.000000 2.24745000e+09
3550.000000 2.20226000e+09
3570.000000 2.16566000e+09
3590.000000 2.11368000e+09
3610.000000 2.07489000e+09
3630.000000 2.03282000e+09
3640.000000 2.01390000e+09
3650.000000 1.93479000e+09
3670.000000 1.90397000e+09
3690.000000 1.86662000e+09
3710.000000 1.81578000e+09
3730.000000 1.76882000e+09
3750.000000 1.78923000e+09
3770.000000 1.76701000e+09
3790.000000 1.80304000e+09
3810.000000 1.83513000e+09
3830.000000 1.67697000e+09
3850.000000 1.82040000e+09
3870.000000 1.79258000e+09
3890.000000 1.58804000e+09
3910.000000 1.75461000e+09
3930.000000 1.71033000e+09
3950.000000 1.68316000e+09
3970.000000 1.46773000e+09
3990.000000 1.62878000e+09
4010.000000 1.60102000e+09
4030.000000 1.54119000e+09
4050.000000 1.55324000e+09
4070.000000 1.50947000e+09
4090.000000 1.44095000e+09
4110.000000 1.32459000e+09
4130.000000 1.43073000e+09
4150.000000 1.41043000e+09
4170.000000 1.39540000e+09
4190.000000 1.36981000e+09
4210.000000 1.34382000e+09
4230.000000 1.32779000e+09
4250.000000 1.30056000e+09
4270.000000 1.27357000e+09
4290.000000 1.25568000e+09
4310.000000 1.22931000e+09
4330.000000 1.16652000e+09
4350.000000 1.08946000e+09
4370.000000 1.17014000e+09
4390.000000 1.14150000e+09
4410.000000 1.13311000e+09
4430.000000 1.11854000e+09
4450.000000 1.10079000e+09
4470.000000 1.06105000e+09
4490.000000 1.06525000e+09
4510.000000 1.04695000e+09
4530.000000 1.03179000e+09
4550.000000 1.00937000e+09
4570.000000 9.99434000e+08
4590.000000 9.81784000e+08
4610.000000 9.66229000e+08
4630.000000 9.48181000e+08
4650.000000 9.14692000e+08
4670.000000 9.19156000e+08
4690.000000 8.95165000e+08
4710.000000 8.84318000e+08
4730.000000 8.81722000e+08
4750.000000 8.67484000e+08
4770.000000 8.55754000e+08
4790.000000 8.42531000e+08
4810.000000 8.29026000e+08
4830.000000 8.14439000e+08
4850.000000 7.80509000e+08
4870.000000 7.18818000e+08
4890.000000 7.77844000e+08
4910.000000 7.67754000e+08
4930.000000 7.46533000e+08
4950.000000 7.44111000e+08
4970.000000 7.35114000e+08
4990.000000 7.24180000e+08
5010.000000 7.05967000e+08
5030.000000 7.02389000e+08
5050.000000 6.90101000e+08
5070.000000 6.82703000e+08
5090.000000 6.72652000e+08
5110.000000 6.62895000e+08
5130.000000 6.53013000e+08
5150.000000 6.43632000e+08
5170.000000 6.34504000e+08
5190.000000 6.25694000e+08
5210.000000 6.16916000e+08
5230.000000 6.08143000e+08
5250.000000 5.99131000e+08
5270.000000 5.90672000e+08
5290.000000 5.82862000e+08
5310.000000 5.74672000e+08
5330.000000 5.66707000e+08
5350.000000 5.58859000e+08
5370.000000 5.51163000e+08
5390.000000 5.43463000e+08
5410.000000 5.32990000e+08
5430.000000 5.28790000e+08
5450.000000 5.21530000e+08
5470.000000 5.14412000e+08
5490.000000 5.07458000e+08
5510.000000 5.00617000e+08
5530.000000 4.93861000e+08
5550.000000 4.87348000e+08
5570.000000 4.80758000e+08
5590.000000 4.73997000e+08
5610.000000 4.68109000e+08
5630.000000 4.61937000e+08
5650.000000 4.55757000e+08
5670.000000 4.49501000e+08
5690.000000 4.40726000e+08
5710.000000 4.31717000e+08
5730.000000 4.26287000e+08
5750.000000 4.20558000e+08
5770.000000 4.15588000e+08
5790.000000 4.10261000e+08
5810.000000 4.04975000e+08
5830.000000 3.99852000e+08
5850.000000 3.95625000e+08
5870.000000 3.83608000e+08
5890.000000 3.86111000e+08
5910.000000 3.82175000e+08
5930.000000 3.77866000e+08
5950.000000 3.73702000e+08
5970.000000 3.69849000e+08
5990.000000 3.65798000e+08
6010.000000 3.61532000e+08
6030.000000 3.56931000e+08
6050.000000 3.52568000e+08
6070.000000 3.48326000e+08
6090.000000 3.44041000e+08
6110.000000 3.39784000e+08
6130.000000 3.35666000e+08
6150.000000 3.31374000e+08
6170.000000 3.27359000e+08
6190.000000 3.23556000e+08
6210.000000 3.19668000e+08
6230.000000 3.15775000e+08
6250.000000 3.11963000e+08
6270.000000 3.08271000e+08
6290.000000 3.04609000e+08
6310.000000 3.00836000e+08
6330.000000 2.97415000e+08
6350.000000 2.93834000e+08
6370.000000 2.90423000e+08
6390.000000 2.86984000e+08
6410.000000 2.83445000e+08
6430.000000 2.80318000e+08
6450.000000 2.77015000e+08
6470.000000 2.73649000e+08
6490.000000 2.70525000e+08
6510.000000 2.67461000e+08
6530.000000 2.63581000e+08
6550.000000 2.57118000e+08
6570.000000 2.35124000e+08
6590.000000 2.54206000e+08
6610.000000 2.52446000e+08
6630.000000 2.49639000e+08
6650.000000 2.46820000e+08
6670.000000 2.42268000e+08
6690.000000 2.39323000e+08
6710.000000 2.38442000e+08
6730.000000 2.35713000e+08
6750.000000 2.33210000e+08
6770.000000 2.30700000e+08
6790.000000 2.27946000e+08
6810.000000 2.25602000e+08
6830.000000 2.23095000e+08
6850.000000 2.20654000e+08
6870.000000 2.18214000e+08
6890.000000 2.15417000e+08
6910.000000 2.13344000e+08
6930.000000 2.11165000e+08
6950.000000 2.08867000e+08
6970.000000 2.06600000e+08
6990.000000 2.04363000e+08
7010.000000 2.02133000e+08
7030.000000 1.99849000e+08
7050.000000 1.97792000e+08
7070.000000 1.93426000e+08
7090.000000 1.93633000e+08
7110.000000 1.91539000e+08
7130.000000 1.89517000e+08
7150.000000 1.87530000e+08
7170.000000 1.85298000e+08
7190.000000 1.83504000e+08
7210.000000 1.81668000e+08
7230.000000 1.79187000e+08
7250.000000 1.77806000e+08
7270.000000 1.76030000e+08
7290.000000 1.73173000e+08
7310.000000 1.72368000e+08
7330.000000 1.70601000e+08
7350.000000 1.68844000e+08
7370.000000 1.67110000e+08
7390.000000 1.65393000e+08
7410.000000 1.63699000e+08
7430.000000 1.62027000e+08
7450.000000 1.60378000e+08
7470.000000 1.58669000e+08
7490.000000 1.57044000e+08
7510.000000 1.55521000e+08
7530.000000 1.53978000e+08
7550.000000 1.52443000e+08
7570.000000 1.50902000e+08
7590.000000 1.49108000e+08
7610.000000 1.47837000e+08
7630.000000 1.46422000e+08
7650.000000 1.44969000e+08
7670.000000 1.43542000e+08
7690.000000 1.42070000e+08
7710.000000 1.40700000e+08
7730.000000 1.39260000e+08
7750.000000 1.37965000e+08
7770.000000 1.36613000e+08
7790.000000 1.35286000e+08
7810.000000 1.33920000e+08
7830.000000 1.32666000e+08
7850.000000 1.31453000e+08
7870.000000 1.30122000e+08
7890.000000 1.28828000e+08
7910.000000 1.27672000e+08
7930.000000 1.26429000e+08
7950.000000 1.25246000e+08
7970.000000 1.23977000e+08
7990.000000 1.22844000e+08
8010.000000 1.21644000e+08
8030.000000 1.20455000e+08
8050.000000 1.19345000e+08
8070.000000 1.18222000e+08
8090.000000 1.17005000e+08
8110.000000 1.15782000e+08
8130.000000 1.14922000e+08
8150.000000 1.13724000e+08
8170.000000 1.12801000e+08
8190.000000 1.11537000e+08
8210.000000 1.09837000e+08
8230.000000 1.08759000e+08
8250.000000 1.08005000e+08
8270.000000 1.06663000e+08
8290.000000 1.06006000e+08
8310.000000 1.05077000e+08
8330.000000 1.04046000e+08
8350.000000 1.02797000e+08
8370.000000 1.02086000e+08
8390.000000 1.01268000e+08
8410.000000 1.00350000e+08
8430.000000 9.93975000e+07
8450.000000 9.81256000e+07
8470.000000 9.75682000e+07
8490.000000 9.66596000e+07
8510.000000 9.55451000e+07
8530.000000 9.50096000e+07
8550.000000 9.34473000e+07
8570.000000 9.39555000e+07
8590.000000 9.13486000e+07
8610.000000 9.08943000e+07
8630.000000 9.19707000e+07
8650.000000 9.00707000e+07
8670.000000 8.63428000e+07
8690.000000 8.96525000e+07
8710.000000 8.94895000e+07
8730.000000 8.75575000e+07
8750.000000 8.18730000e+07
8770.000000 8.53793000e+07
8790.000000 8.66880000e+07
8810.000000 8.60862000e+07
8830.000000 8.51458000e+07
8850.000000 8.15387000e+07
8870.000000 7.71014000e+07
8890.000000 8.24941000e+07
8910.000000 8.24706000e+07
8930.000000 8.18653000e+07
8950.000000 8.12929000e+07
8970.000000 8.04673000e+07
8990.000000 7.88231000e+07
9010.000000 7.25985000e+07
9030.000000 7.50032000e+07
9050.000000 7.74779000e+07
9070.000000 7.66923000e+07
9090.000000 7.64510000e+07
9110.000000 7.59749000e+07
9130.000000 7.53668000e+07
9150.000000 7.47362000e+07
9170.000000 7.39625000e+07
9190.000000 7.32216000e+07
9210.000000 7.09587000e+07
9230.000000 6.48099000e+07
9250.000000 6.99148000e+07
9270.000000 7.07621000e+07
9290.000000 7.04272000e+07
9310.000000 6.96859000e+07
9330.000000 6.92706000e+07
9350.000000 6.84790000e+07
9370.000000 6.81613000e+07
9390.000000 6.76191000e+07
9410.000000 6.70512000e+07
9430.000000 6.65087000e+07
9450.000000 6.59659000e+07
9470.000000 6.51834000e+07
9490.000000 6.48588000e+07
9510.000000 6.37115000e+07
9530.000000 6.17976000e+07
9550.000000 5.67185000e+07
9570.000000 6.17264000e+07
9590.000000 6.21082000e+07
9610.000000 6.16745000e+07
9630.000000 6.11018000e+07
9650.000000 6.08447000e+07
9670.000000 6.03596000e+07
9690.000000 5.98499000e+07
9710.000000 5.89643000e+07
9730.000000 5.88933000e+07
9750.000000 5.84656000e+07
9770.000000 5.80015000e+07
9790.000000 5.75447000e+07
9810.000000 5.70832000e+07
9830.000000 5.66446000e+07
9850.000000 5.61973000e+07
9870.000000 5.57532000e+07
9890.000000 5.53007000e+07
9910.000000 5.47939000e+07
9930.000000 5.44664000e+07
9950.000000 5.40460000e+07
9970.000000 5.36133000e+07
9990.000000 5.32026000e+07
10025.000000 5.10437000e+07
10075.000000 4.95288000e+07
10125.000000 5.02131000e+07
10175.000000 4.95607000e+07
10225.000000 4.86124000e+07
10275.000000 4.77158000e+07
10325.000000 4.66929000e+07
10375.000000 4.59569000e+07
10425.000000 4.51047000e+07
10475.000000 4.42768000e+07
10525.000000 4.34660000e+07
10575.000000 4.26753000e+07
10625.000000 4.19009000e+07
10675.000000 4.10960000e+07
10725.000000 4.04026000e+07
10775.000000 3.96813000e+07
10825.000000 3.86662000e+07
10875.000000 3.82382000e+07
10925.000000 3.55059000e+07
10975.000000 3.64717000e+07
11025.000000 3.61603000e+07
11075.000000 3.56533000e+07
11125.000000 3.50413000e+07
11175.000000 3.44388000e+07
11225.000000 3.38337000e+07
11275.000000 3.32646000e+07
11325.000000 3.26896000e+07
11375.000000 3.21379000e+07
11425.000000 3.15946000e+07
11475.000000 3.10652000e+07
11525.000000 3.05438000e+07
11575.000000 3.00302000e+07
11625.000000 2.94937000e+07
11675.000000 2.90233000e+07
11725.000000 2.85653000e+07
11775.000000 2.80949000e+07
11825.000000 2.76342000e+07
11875.000000 2.71830000e+07
11925.000000 2.67436000e+07
11975.000000 2.61290000e+07
12025.000000 2.58866000e+07
12075.000000 2.54709000e+07
12125.000000 2.50621000e+07
12175.000000 2.46651000e+07
12225.000000 2.42742000e+07
12275.000000 2.38908000e+07
12325.000000 2.35148000e+07
12375.000000 2.31461000e+07
12425.000000 2.27855000e+07
12475.000000 2.24299000e+07
12525.000000 2.20501000e+07
12575.000000 2.17408000e+07
12625.000000 2.14072000e+07
12675.000000 2.10809000e+07
12725.000000 2.07589000e+07
12775.000000 2.02048000e+07
12825.000000 1.90164000e+07
12875.000000 1.97679000e+07
12925.000000 1.95324000e+07
12975.000000 1.91515000e+07
13025.000000 1.89501000e+07
13075.000000 1.86717000e+07
