# Kurucz ODFNEW /NOVER, alpha: 0.0 (2003)
# teff = 7500 K (value for the effective temperature for the model. Temperatures are given in K)
# logg = 2 log(cm/s2) (value for Log(G) for the model.)
# lh = 1.25  (l/Hp where l is the  mixing length of the convective element and Hp is the pressure scale height)
# meta = -0.5  (value for the Metallicity for the model.)
# vtur = 2 km/s (Microturbulence velocity)
# alpha = 0  (Alpha)
#
# column 1: WAVELENGTH (ANGSTROM), Wavelength in Angstrom
# column 2: FLUX (ERG/CM2/S/A), Flux in erg/cm2/s/A
366.000000 5.43878000e-25
375.000000 3.60267000e-24
385.000000 2.64022000e-23
395.000000 1.73871000e-22
405.000000 1.03798000e-21
414.000000 4.79561000e-21
422.000000 1.76290000e-20
430.000000 6.15624000e-20
441.000000 3.17685000e-19
451.000000 1.31086000e-18
460.000000 4.43886000e-18
470.000000 1.62405000e-17
480.000000 5.60663000e-17
490.000000 1.83454000e-16
500.000000 5.69992000e-16
506.000000 1.45986000e-15
512.000000 3.11996000e-15
520.000000 7.13013000e-15
530.000000 1.94266000e-14
540.000000 5.00045000e-14
550.000000 1.25722000e-13
560.000000 3.03077000e-13
570.000000 7.06394000e-13
580.000000 1.57680000e-12
590.000000 3.49295000e-12
600.000000 7.43476000e-12
610.000000 1.54063000e-11
620.000000 3.11008000e-11
630.000000 6.12648000e-11
640.000000 1.17949000e-10
650.000000 2.22159000e-10
658.000000 3.63004000e-10
665.000000 5.51670000e-10
675.000000 9.87165000e-10
685.000000 1.73333000e-09
695.000000 2.98935000e-09
705.000000 5.05997000e-09
716.000000 8.88150000e-09
726.000000 1.45524000e-08
735.000000 2.24089000e-08
745.000000 3.57110000e-08
755.000000 5.61296000e-08
765.000000 8.70651000e-08
775.000000 1.33330000e-07
785.000000 2.01733000e-07
795.000000 3.00251000e-07
805.000000 4.45151000e-07
815.000000 6.51566000e-07
825.000000 9.42785000e-07
835.000000 1.35066000e-06
845.000000 1.91629000e-06
855.000000 2.69334000e-06
865.000000 3.75166000e-06
875.000000 5.17445000e-06
885.000000 7.09279000e-06
895.000000 9.63428000e-06
905.000000 1.29574000e-05
915.000000 1.64020000e-02
925.000000 5.28577000e-02
935.000000 6.94400000e-02
945.000000 9.36651000e-02
955.000000 1.31732000e-01
965.000000 1.73217000e-01
975.000000 2.15550000e-01
985.000000 2.85790000e-01
995.000000 3.54307000e-01
1005.000000 4.80076000e-01
1015.000000 6.05268000e-01
1025.000000 7.28233000e-01
1035.000000 9.57838000e-01
1045.000000 1.21268000e+00
1055.000000 1.51392000e+00
1065.000000 1.83611000e+00
1075.000000 2.30007000e+00
1085.000000 2.84378000e+00
1095.000000 3.40997000e+00
1105.000000 1.02230000e+01
1115.000000 3.29147000e+01
1125.000000 4.73760000e+01
1135.000000 6.49452000e+01
1145.000000 7.94852000e+01
1155.000000 8.40876000e+01
1165.000000 1.06447000e+02
1175.000000 1.12695000e+02
1185.000000 1.29996000e+02
1195.000000 4.73542000e+01
1205.000000 3.40867000e+01
1215.000000 9.59493000e+00
1225.000000 4.03987000e+01
1235.000000 1.06919000e+02
1245.000000 2.46158000e+02
1255.000000 5.27054000e+02
1265.000000 6.32275000e+02
1275.000000 1.06468000e+03
1285.000000 1.65973000e+03
1295.000000 2.23305000e+03
1305.000000 2.03267000e+03
1315.000000 3.28315000e+03
1325.000000 4.17860000e+03
1335.000000 4.79329000e+03
1345.000000 6.27145000e+03
1355.000000 6.72748000e+03
1365.000000 7.64893000e+03
1375.000000 8.65334000e+03
1385.000000 9.83349000e+03
1395.000000 1.15633000e+04
1405.000000 1.31382000e+04
1415.000000 1.37929000e+04
1425.000000 1.58406000e+04
1435.000000 1.61903000e+04
1442.000000 1.90071000e+04
1447.000000 2.06230000e+04
1455.000000 2.34452000e+04
1465.000000 2.39688000e+04
1475.000000 2.67687000e+04
1485.000000 3.00823000e+04
1495.000000 3.44817000e+04
1505.000000 3.82281000e+04
1512.000000 3.87367000e+04
1517.000000 4.23518000e+04
1525.000000 4.61592000e+04
1535.000000 1.81791000e+05
1545.000000 5.34849000e+05
1555.000000 4.78074000e+05
1565.000000 3.82448000e+05
1575.000000 6.40582000e+05
1585.000000 7.32562000e+05
1595.000000 9.04097000e+05
1605.000000 7.99548000e+05
1615.000000 8.80529000e+05
1625.000000 9.09201000e+05
1635.000000 1.23181000e+06
1645.000000 1.90855000e+06
1655.000000 9.65280000e+05
1665.000000 1.92861000e+06
1672.000000 7.11715000e+05
1677.000000 2.59554000e+06
1685.000000 3.71684000e+06
1695.000000 3.81040000e+06
1705.000000 3.69573000e+06
1715.000000 4.79579000e+06
1725.000000 5.04104000e+06
1735.000000 6.00870000e+06
1745.000000 5.53188000e+06
1755.000000 6.82645000e+06
1765.000000 5.12678000e+06
1775.000000 6.52127000e+06
1785.000000 6.01719000e+06
1795.000000 8.08793000e+06
1805.000000 6.70037000e+06
1815.000000 7.56324000e+06
1825.000000 6.37843000e+06
1835.000000 6.17338000e+06
1845.000000 5.53790000e+06
1855.000000 6.23039000e+06
1865.000000 6.88716000e+06
1875.000000 6.69463000e+06
1885.000000 6.96953000e+06
1895.000000 7.55929000e+06
1905.000000 6.82956000e+06
1915.000000 7.42102000e+06
1925.000000 7.42332000e+06
1935.000000 5.61669000e+06
1945.000000 8.09360000e+06
1955.000000 8.23841000e+06
1967.000000 8.95435000e+06
1976.000000 8.75622000e+06
1984.000000 8.43394000e+06
1995.000000 8.18955000e+06
2005.000000 7.78560000e+06
2015.000000 7.40436000e+06
2025.000000 6.90624000e+06
2035.000000 8.00022000e+06
2045.000000 8.81913000e+06
2055.000000 8.08228000e+06
2065.000000 7.67122000e+06
2074.000000 9.44303000e+06
2078.000000 9.92494000e+06
2085.000000 9.47884000e+06
2095.000000 8.94395000e+06
2105.000000 8.29497000e+06
2115.000000 8.51452000e+06
2125.000000 8.75076000e+06
2135.000000 6.76831000e+06
2145.000000 8.26819000e+06
2155.000000 8.41471000e+06
2165.000000 7.68187000e+06
2175.000000 7.68275000e+06
2185.000000 8.07160000e+06
2195.000000 8.95920000e+06
2205.000000 8.54882000e+06
2215.000000 7.36339000e+06
2225.000000 7.20535000e+06
2235.000000 8.89026000e+06
2245.000000 7.89932000e+06
2255.000000 7.12085000e+06
2265.000000 7.15681000e+06
2275.000000 8.10362000e+06
2285.000000 8.50256000e+06
2295.000000 7.71337000e+06
2305.000000 8.13939000e+06
2315.000000 7.79366000e+06
2325.000000 7.48145000e+06
2335.000000 5.89061000e+06
2345.000000 4.71948000e+06
2355.000000 7.20986000e+06
2365.000000 4.83485000e+06
2375.000000 6.29316000e+06
2385.000000 3.91371000e+06
2395.000000 5.02599000e+06
2405.000000 4.81976000e+06
2415.000000 5.54892000e+06
2425.000000 7.64205000e+06
2435.000000 7.45933000e+06
2445.000000 8.05005000e+06
2455.000000 7.94085000e+06
2465.000000 7.83997000e+06
2475.000000 7.28290000e+06
2485.000000 7.53126000e+06
2495.000000 7.19747000e+06
2505.000000 9.02766000e+06
2513.000000 7.25998000e+06
2518.000000 7.65363000e+06
2525.000000 6.60379000e+06
2535.000000 6.27626000e+06
2545.000000 6.41781000e+06
2555.000000 7.37701000e+06
2565.000000 6.89187000e+06
2575.000000 7.84807000e+06
2585.000000 7.53659000e+06
2595.000000 7.04281000e+06
2605.000000 6.37540000e+06
2615.000000 5.96919000e+06
2625.000000 7.51258000e+06
2635.000000 8.33412000e+06
2645.000000 1.08931000e+07
2655.000000 1.10207000e+07
2665.000000 9.28321000e+06
2675.000000 1.00837000e+07
2685.000000 9.99512000e+06
2695.000000 9.32250000e+06
2705.000000 9.78711000e+06
2715.000000 8.74511000e+06
2725.000000 8.92812000e+06
2735.000000 9.77452000e+06
2745.000000 6.59062000e+06
2755.000000 7.53705000e+06
2765.000000 8.28337000e+06
2775.000000 9.74672000e+06
2785.000000 8.63694000e+06
2795.000000 3.72996000e+06
2805.000000 4.78859000e+06
2815.000000 9.94996000e+06
2825.000000 1.10711000e+07
2835.000000 1.05352000e+07
2845.000000 1.00908000e+07
2855.000000 9.29365000e+06
2865.000000 1.07049000e+07
2875.000000 1.03712000e+07
2885.000000 1.06539000e+07
2895.000000 1.00572000e+07
2910.000000 1.18770000e+07
2930.000000 1.13503000e+07
2950.000000 1.12566000e+07
2970.000000 1.18372000e+07
2990.000000 1.20156000e+07
3010.000000 1.23513000e+07
3030.000000 1.22762000e+07
3050.000000 1.22858000e+07
3070.000000 1.23892000e+07
3090.000000 1.27857000e+07
3110.000000 1.23663000e+07
3130.000000 1.23203000e+07
3150.000000 1.28826000e+07
3170.000000 1.28852000e+07
3190.000000 1.20866000e+07
3210.000000 1.26337000e+07
3230.000000 1.21542000e+07
3250.000000 1.27137000e+07
3270.000000 1.29656000e+07
3290.000000 1.31837000e+07
3310.000000 1.34615000e+07
3330.000000 1.31593000e+07
3350.000000 1.30094000e+07
3370.000000 1.29145000e+07
3390.000000 1.30641000e+07
3410.000000 1.33604000e+07
3430.000000 1.35874000e+07
3450.000000 1.34920000e+07
3470.000000 1.33053000e+07
3490.000000 1.32479000e+07
3510.000000 1.36621000e+07
3530.000000 1.37424000e+07
3550.000000 1.40764000e+07
3570.000000 1.35287000e+07
3590.000000 1.35228000e+07
3610.000000 1.36271000e+07
3630.000000 1.38259000e+07
3640.000000 1.36102000e+07
3650.000000 1.41592000e+07
3670.000000 1.39354000e+07
3690.000000 1.44092000e+07
3710.000000 1.80259000e+07
3730.000000 2.22831000e+07
3750.000000 3.13305000e+07
3770.000000 3.37662000e+07
3790.000000 4.20316000e+07
3810.000000 4.85156000e+07
3830.000000 3.79711000e+07
3850.000000 5.20267000e+07
3870.000000 5.68481000e+07
3890.000000 3.46777000e+07
3910.000000 5.51414000e+07
3930.000000 4.46151000e+07
3950.000000 5.43152000e+07
3970.000000 3.05836000e+07
3990.000000 5.43817000e+07
4010.000000 5.72681000e+07
4030.000000 5.64112000e+07
4050.000000 5.59266000e+07
4070.000000 5.41593000e+07
4090.000000 4.71562000e+07
4110.000000 3.63591000e+07
4130.000000 5.23409000e+07
4150.000000 5.36094000e+07
4170.000000 5.24248000e+07
4190.000000 5.19277000e+07
4210.000000 5.16268000e+07
4230.000000 5.04681000e+07
4250.000000 5.03425000e+07
4270.000000 4.90187000e+07
4290.000000 4.89782000e+07
4310.000000 4.59228000e+07
4330.000000 3.90435000e+07
4350.000000 3.34751000e+07
4370.000000 4.67378000e+07
4390.000000 4.63110000e+07
4410.000000 4.52584000e+07
4430.000000 4.53575000e+07
4450.000000 4.54092000e+07
4470.000000 4.49340000e+07
4490.000000 4.45533000e+07
4510.000000 4.50443000e+07
4530.000000 4.34376000e+07
4550.000000 4.24980000e+07
4570.000000 4.36168000e+07
4590.000000 4.21557000e+07
4610.000000 4.30103000e+07
4630.000000 4.17380000e+07
4650.000000 4.19668000e+07
4670.000000 4.15943000e+07
4690.000000 4.05501000e+07
4710.000000 3.92198000e+07
4730.000000 4.03218000e+07
4750.000000 4.02168000e+07
4770.000000 3.95126000e+07
4790.000000 3.90734000e+07
4810.000000 3.85065000e+07
4830.000000 3.74955000e+07
4850.000000 3.14661000e+07
4870.000000 2.53309000e+07
4890.000000 3.57050000e+07
4910.000000 3.63773000e+07
4930.000000 3.56271000e+07
4950.000000 3.59271000e+07
4970.000000 3.60030000e+07
4990.000000 3.49268000e+07
5010.000000 3.38590000e+07
5030.000000 3.44241000e+07
5050.000000 3.39097000e+07
5070.000000 3.40633000e+07
5090.000000 3.36144000e+07
5110.000000 3.33763000e+07
5130.000000 3.26857000e+07
5150.000000 3.21497000e+07
5170.000000 3.13757000e+07
5190.000000 3.10826000e+07
5210.000000 3.10914000e+07
5230.000000 3.06778000e+07
5250.000000 3.10733000e+07
5270.000000 2.96387000e+07
5290.000000 3.03938000e+07
5310.000000 2.98459000e+07
5330.000000 2.91794000e+07
5350.000000 2.96961000e+07
5370.000000 2.92310000e+07
5390.000000 2.89263000e+07
5410.000000 2.84374000e+07
5430.000000 2.82922000e+07
5450.000000 2.83259000e+07
5470.000000 2.80461000e+07
5490.000000 2.79046000e+07
5510.000000 2.76131000e+07
5530.000000 2.72610000e+07
5550.000000 2.72703000e+07
5570.000000 2.68708000e+07
5590.000000 2.65788000e+07
5610.000000 2.64280000e+07
5630.000000 2.63213000e+07
5650.000000 2.59654000e+07
5670.000000 2.56689000e+07
5690.000000 2.55958000e+07
5710.000000 2.53625000e+07
5730.000000 2.52752000e+07
5750.000000 2.49778000e+07
5770.000000 2.47902000e+07
5790.000000 2.45372000e+07
5810.000000 2.43463000e+07
5830.000000 2.41507000e+07
5850.000000 2.39022000e+07
5870.000000 2.37177000e+07
5890.000000 2.32192000e+07
5910.000000 2.33061000e+07
5930.000000 2.31031000e+07
5950.000000 2.28959000e+07
5970.000000 2.27237000e+07
5990.000000 2.24651000e+07
6010.000000 2.22397000e+07
6030.000000 2.21028000e+07
6050.000000 2.19291000e+07
6070.000000 2.17858000e+07
6090.000000 2.15627000e+07
6110.000000 2.13411000e+07
6130.000000 2.10517000e+07
6150.000000 2.07098000e+07
6170.000000 2.06777000e+07
6190.000000 2.06780000e+07
6210.000000 2.05255000e+07
6230.000000 2.02764000e+07
6250.000000 1.98161000e+07
6270.000000 2.00243000e+07
6290.000000 1.98581000e+07
6310.000000 1.95801000e+07
6330.000000 1.94857000e+07
6350.000000 1.92380000e+07
6370.000000 1.90932000e+07
6390.000000 1.90145000e+07
6410.000000 1.87585000e+07
6430.000000 1.86720000e+07
6450.000000 1.83708000e+07
6470.000000 1.83807000e+07
6490.000000 1.80431000e+07
6510.000000 1.79733000e+07
6530.000000 1.77043000e+07
6550.000000 1.60448000e+07
6570.000000 1.27904000e+07
6590.000000 1.69722000e+07
6610.000000 1.72672000e+07
6630.000000 1.72437000e+07
6650.000000 1.71342000e+07
6670.000000 1.69969000e+07
6690.000000 1.68971000e+07
6710.000000 1.67588000e+07
6730.000000 1.66294000e+07
6750.000000 1.64649000e+07
6770.000000 1.63908000e+07
6790.000000 1.62510000e+07
6810.000000 1.61322000e+07
6830.000000 1.59789000e+07
6850.000000 1.58648000e+07
6870.000000 1.57622000e+07
6890.000000 1.56439000e+07
6910.000000 1.55211000e+07
6930.000000 1.53971000e+07
6950.000000 1.52829000e+07
6970.000000 1.51612000e+07
6990.000000 1.50545000e+07
7010.000000 1.48829000e+07
7030.000000 1.48029000e+07
7050.000000 1.47084000e+07
7070.000000 1.46019000e+07
7090.000000 1.44942000e+07
7110.000000 1.42041000e+07
7130.000000 1.42268000e+07
7150.000000 1.41377000e+07
7170.000000 1.40370000e+07
7190.000000 1.39102000e+07
7210.000000 1.38157000e+07
7230.000000 1.37048000e+07
7250.000000 1.36149000e+07
7270.000000 1.35401000e+07
7290.000000 1.34000000e+07
7310.000000 1.32944000e+07
7330.000000 1.32114000e+07
7350.000000 1.31389000e+07
7370.000000 1.30594000e+07
7390.000000 1.29350000e+07
7410.000000 1.28042000e+07
7430.000000 1.27060000e+07
7450.000000 1.26304000e+07
7470.000000 1.24913000e+07
7490.000000 1.24287000e+07
7510.000000 1.23639000e+07
7530.000000 1.22983000e+07
7550.000000 1.22352000e+07
7570.000000 1.21312000e+07
7590.000000 1.20550000e+07
7610.000000 1.19689000e+07
7630.000000 1.18849000e+07
7650.000000 1.17823000e+07
7670.000000 1.16761000e+07
7690.000000 1.16161000e+07
7710.000000 1.15033000e+07
7730.000000 1.14646000e+07
7750.000000 1.13748000e+07
7770.000000 1.10998000e+07
7790.000000 1.12335000e+07
7810.000000 1.11501000e+07
7830.000000 1.10465000e+07
7850.000000 1.09487000e+07
7870.000000 1.08742000e+07
7890.000000 1.07865000e+07
7910.000000 1.07302000e+07
7930.000000 1.06474000e+07
7950.000000 1.05653000e+07
7970.000000 1.05473000e+07
7990.000000 1.04161000e+07
8010.000000 1.03871000e+07
8030.000000 1.03091000e+07
8050.000000 1.02475000e+07
8070.000000 1.01753000e+07
8090.000000 1.01026000e+07
8110.000000 1.00494000e+07
8130.000000 9.98465000e+06
8150.000000 9.91586000e+06
8170.000000 9.84818000e+06
8190.000000 9.68725000e+06
8210.000000 9.67532000e+06
8230.000000 9.60555000e+06
8250.000000 9.53855000e+06
8270.000000 9.55472000e+06
8290.000000 9.48291000e+06
8310.000000 9.40186000e+06
8330.000000 9.23949000e+06
8350.000000 9.26066000e+06
8370.000000 9.10945000e+06
8390.000000 9.03717000e+06
8410.000000 8.96015000e+06
8430.000000 9.04438000e+06
8450.000000 8.89821000e+06
8470.000000 8.58317000e+06
8490.000000 9.22118000e+06
8510.000000 8.27898000e+06
8530.000000 9.31716000e+06
8550.000000 7.77963000e+06
8570.000000 9.47660000e+06
8590.000000 8.81168000e+06
8610.000000 8.51670000e+06
8630.000000 9.62298000e+06
8650.000000 9.35599000e+06
8670.000000 7.50363000e+06
8690.000000 9.39677000e+06
8710.000000 9.71121000e+06
8730.000000 9.44630000e+06
8750.000000 7.57617000e+06
8770.000000 9.09828000e+06
8790.000000 9.53866000e+06
8810.000000 9.47987000e+06
8830.000000 9.28670000e+06
8850.000000 8.65603000e+06
8870.000000 7.36059000e+06
8890.000000 9.03831000e+06
8910.000000 9.16007000e+06
8930.000000 9.12334000e+06
8950.000000 9.13858000e+06
8970.000000 9.03513000e+06
8990.000000 8.80386000e+06
9010.000000 7.24315000e+06
9030.000000 7.97942000e+06
9050.000000 8.72201000e+06
9070.000000 8.58788000e+06
9090.000000 8.47216000e+06
9110.000000 8.60568000e+06
9130.000000 8.62271000e+06
9150.000000 8.57965000e+06
9170.000000 8.49523000e+06
9190.000000 8.36908000e+06
9210.000000 7.98946000e+06
9230.000000 6.42616000e+06
9250.000000 7.73030000e+06
9270.000000 8.00079000e+06
9290.000000 8.17198000e+06
9310.000000 8.14429000e+06
9330.000000 8.09686000e+06
9350.000000 8.05364000e+06
9370.000000 8.00771000e+06
9390.000000 7.92408000e+06
9410.000000 7.71259000e+06
9430.000000 7.80319000e+06
9450.000000 7.77315000e+06
9470.000000 7.72943000e+06
9490.000000 7.66718000e+06
9510.000000 7.55124000e+06
9530.000000 7.16741000e+06
9550.000000 5.88665000e+06
9570.000000 7.16891000e+06
9590.000000 7.37827000e+06
9610.000000 7.32760000e+06
9630.000000 7.25088000e+06
9650.000000 7.29246000e+06
9670.000000 7.18336000e+06
9690.000000 7.17822000e+06
9710.000000 7.18264000e+06
9730.000000 7.13325000e+06
9750.000000 7.06240000e+06
9770.000000 7.04772000e+06
9790.000000 7.00284000e+06
9810.000000 6.95788000e+06
9830.000000 6.91205000e+06
9850.000000 6.84052000e+06
9870.000000 6.80780000e+06
9890.000000 6.73638000e+06
9910.000000 6.72226000e+06
9930.000000 6.67840000e+06
9950.000000 6.64587000e+06
9970.000000 6.60976000e+06
9990.000000 6.55350000e+06
10025.000000 6.16183000e+06
10075.000000 5.86737000e+06
10125.000000 6.25276000e+06
10175.000000 6.20565000e+06
10225.000000 6.12384000e+06
10275.000000 6.03798000e+06
10325.000000 5.92593000e+06
10375.000000 5.85180000e+06
10425.000000 5.76738000e+06
10475.000000 5.63314000e+06
10525.000000 5.57873000e+06
10575.000000 5.50353000e+06
10625.000000 5.41881000e+06
10675.000000 5.26172000e+06
10725.000000 5.23832000e+06
10775.000000 5.17522000e+06
10825.000000 5.09698000e+06
10875.000000 5.00657000e+06
10925.000000 4.42869000e+06
10975.000000 4.74404000e+06
11025.000000 4.83284000e+06
11075.000000 4.77978000e+06
11125.000000 4.70464000e+06
11175.000000 4.64031000e+06
11225.000000 4.58143000e+06
11275.000000 4.46324000e+06
11325.000000 4.40189000e+06
11375.000000 4.37725000e+06
11425.000000 4.30208000e+06
11475.000000 4.27297000e+06
11525.000000 4.21697000e+06
11575.000000 4.15587000e+06
11625.000000 4.06333000e+06
11675.000000 3.98769000e+06
11725.000000 3.99185000e+06
11775.000000 3.87651000e+06
11825.000000 3.85430000e+06
11875.000000 3.78504000e+06
11925.000000 3.78463000e+06
11975.000000 3.70291000e+06
12025.000000 3.67375000e+06
12075.000000 3.61755000e+06
12125.000000 3.57368000e+06
12175.000000 3.53702000e+06
12225.000000 3.48798000e+06
12275.000000 3.43637000e+06
12325.000000 3.39515000e+06
12375.000000 3.35498000e+06
12425.000000 3.31607000e+06
12475.000000 3.26873000e+06
12525.000000 3.22539000e+06
12575.000000 3.16906000e+06
12625.000000 3.13597000e+06
12675.000000 3.10729000e+06
12725.000000 3.06571000e+06
12775.000000 2.98935000e+06
12825.000000 2.64475000e+06
12875.000000 2.92583000e+06
12925.000000 2.91293000e+06
12975.000000 2.87978000e+06
13025.000000 2.84528000e+06
13075.000000 2.81122000e+06
13125.000000 2.77388000e+06
13175.000000 2.73355000e+06
13225.000000 2.70775000e+06
13275.000000 2.67371000e+06
13325.000000 2.64180000e+06
13375.000000 2.60945000e+06
13425.000000 2.57729000e+06
13475.000000 2.54596000e+06
13525.000000 2.51029000e+06
13575.000000 2.47956000e+06
13625.000000 2.45450000e+06
13675.000000 2.42328000e+06
13725.000000 2.37686000e+06
13775.000000 2.36182000e+06
13825.000000 2.33511000e+06
13875.000000 2.31264000e+06
13925.000000 2.27935000e+06
13975.000000 2.25555000e+06
14025.000000 2.22934000e+06
14075.000000 2.20478000e+06
14125.000000 2.17674000e+06
14175.000000 2.15241000e+06
14225.000000 2.12558000e+06
14275.000000 2.09999000e+06
14325.000000 2.07765000e+06
14375.000000 2.05501000e+06
14425.000000 2.00024000e+06
14475.000000 2.00640000e+06
14525.000000 1.96850000e+06
14570.000000 1.96169000e+06
14620.000000 1.93543000e+06
14675.000000 1.91762000e+06
14725.000000 1.89350000e+06
14775.000000 1.86690000e+06
14825.000000 1.84987000e+06
14875.000000 1.82231000e+06
14925.000000 1.81417000e+06
14975.000000 1.79082000e+06
15025.000000 1.76007000e+06
15075.000000 1.74178000e+06
