# Kurucz ODFNEW /NOVER, alpha: 0.0 (2003)
# teff = 30000 K (value for the effective temperature for the model. Temperatures are given in K)
# logg = 5 log(cm/s2) (value for Log(G) for the model.)
# lh = 1.25  (l/Hp where l is the  mixing length of the convective element and Hp is the pressure scale height)
# meta = -2.5  (value for the Metallicity for the model.)
# vtur = 2 km/s (Microturbulence velocity)
# alpha = 0  (Alpha)
#
# column 1: WAVELENGTH (ANGSTROM), Wavelength in Angstrom
# column 2: FLUX (ERG/CM2/S/A), Flux in erg/cm2/s/A
147.200000 2.62311000e-08
151.000000 9.12108000e-08
155.200000 3.36502000e-07
158.800000 9.74143000e-07
162.000000 2.40631000e-06
166.000000 7.09628000e-06
170.300000 2.13798000e-05
173.400000 4.57161000e-05
176.800000 1.01919000e-04
180.200000 2.20199000e-04
181.700000 3.06394000e-04
186.100000 7.82606000e-04
191.000000 2.11078000e-03
193.900000 3.70104000e-03
198.400000 8.55367000e-03
201.800000 1.56970000e-02
205.000000 2.72617000e-02
210.500000 6.75746000e-02
216.200000 1.64708000e-01
219.800000 2.81588000e-01
223.000000 4.46706000e-01
226.800000 7.59051000e-01
230.000000 1.43122000e+01
234.000000 3.78910000e+01
240.000000 7.23504000e+01
246.500000 1.41002000e+02
252.400000 2.52285000e+02
256.800000 3.41726000e+02
260.000000 5.00677000e+02
264.000000 7.03124000e+02
268.500000 1.02548000e+03
273.500000 1.53221000e+03
278.500000 2.25817000e+03
284.000000 3.40778000e+03
290.000000 5.22718000e+03
296.000000 7.85011000e+03
301.000000 1.07134000e+04
308.000000 1.56039000e+04
318.000000 3.08182000e+04
328.000000 5.36429000e+04
338.000000 9.05055000e+04
348.000000 1.47523000e+05
357.000000 2.22950000e+05
366.000000 3.30928000e+05
375.000000 4.77231000e+05
385.000000 7.06820000e+05
395.000000 1.01925000e+06
405.000000 1.44077000e+06
414.000000 1.93901000e+06
422.000000 2.48693000e+06
430.000000 3.15361000e+06
441.000000 4.32303000e+06
451.000000 5.66684000e+06
460.000000 7.12492000e+06
470.000000 9.11365000e+06
480.000000 1.14922000e+07
490.000000 1.43372000e+07
500.000000 1.77018000e+07
506.000000 8.68077000e+07
512.000000 3.31412000e+08
520.000000 3.52849000e+08
530.000000 4.11291000e+08
540.000000 3.95643000e+08
550.000000 4.66958000e+08
560.000000 4.90577000e+08
570.000000 5.24777000e+08
580.000000 5.08294000e+08
590.000000 5.76858000e+08
600.000000 6.10438000e+08
610.000000 6.48975000e+08
620.000000 6.80357000e+08
630.000000 7.20408000e+08
640.000000 7.47867000e+08
650.000000 7.95572000e+08
658.000000 8.26785000e+08
665.000000 8.54110000e+08
675.000000 8.85133000e+08
685.000000 9.12388000e+08
695.000000 9.82566000e+08
705.000000 1.01052000e+09
716.000000 1.06679000e+09
726.000000 1.11001000e+09
735.000000 1.15977000e+09
745.000000 1.20663000e+09
755.000000 1.25280000e+09
765.000000 1.29680000e+09
775.000000 1.34842000e+09
785.000000 1.39889000e+09
795.000000 1.44296000e+09
805.000000 1.49233000e+09
815.000000 1.53800000e+09
825.000000 1.58862000e+09
835.000000 1.59758000e+09
845.000000 1.68029000e+09
855.000000 1.72475000e+09
865.000000 1.77493000e+09
875.000000 1.82395000e+09
885.000000 1.87084000e+09
895.000000 1.91632000e+09
905.000000 1.95084000e+09
915.000000 2.21329000e+09
925.000000 8.88916000e+09
935.000000 1.93349000e+10
945.000000 4.55859000e+10
955.000000 5.92093000e+10
965.000000 7.93327000e+10
975.000000 3.80655000e+10
985.000000 8.73188000e+10
995.000000 8.11736000e+10
1005.000000 8.62092000e+10
1015.000000 7.79989000e+10
1025.000000 3.04119000e+10
1035.000000 7.10993000e+10
1045.000000 7.88354000e+10
1055.000000 7.73513000e+10
1065.000000 7.34012000e+10
1075.000000 7.23549000e+10
1085.000000 6.59935000e+10
1095.000000 6.96291000e+10
1105.000000 6.68349000e+10
1115.000000 6.52385000e+10
1125.000000 6.23038000e+10
1135.000000 6.25501000e+10
1145.000000 6.04796000e+10
1155.000000 5.92533000e+10
1165.000000 5.78435000e+10
1175.000000 5.15613000e+10
1185.000000 5.44748000e+10
1195.000000 5.22795000e+10
1205.000000 4.70177000e+10
1215.000000 2.00402000e+10
1225.000000 4.42322000e+10
1235.000000 4.77425000e+10
1245.000000 4.66286000e+10
1255.000000 4.61420000e+10
1265.000000 4.51117000e+10
1275.000000 4.40940000e+10
1285.000000 4.30590000e+10
1295.000000 4.10937000e+10
1305.000000 4.04353000e+10
1315.000000 4.00885000e+10
1325.000000 3.89621000e+10
1335.000000 3.76027000e+10
1345.000000 3.73267000e+10
1355.000000 3.65234000e+10
1365.000000 3.56444000e+10
1375.000000 3.48629000e+10
1385.000000 3.40804000e+10
1395.000000 3.26546000e+10
1405.000000 3.20540000e+10
1415.000000 3.18171000e+10
1425.000000 3.10957000e+10
1435.000000 3.04753000e+10
1442.000000 3.00425000e+10
1447.000000 2.97075000e+10
1455.000000 2.91842000e+10
1465.000000 2.85537000e+10
1475.000000 2.79410000e+10
1485.000000 2.73592000e+10
1495.000000 2.67736000e+10
1505.000000 2.61595000e+10
1512.000000 2.57943000e+10
1517.000000 2.55296000e+10
1525.000000 2.50875000e+10
1535.000000 2.44147000e+10
1545.000000 2.36988000e+10
1555.000000 2.32221000e+10
1565.000000 2.30247000e+10
1575.000000 2.26178000e+10
1585.000000 2.21894000e+10
1595.000000 2.17521000e+10
1605.000000 2.12025000e+10
1615.000000 2.07761000e+10
1625.000000 2.04213000e+10
1635.000000 1.98975000e+10
1645.000000 1.89867000e+10
1655.000000 1.93136000e+10
1665.000000 1.89586000e+10
1672.000000 1.86843000e+10
1677.000000 1.85664000e+10
1685.000000 1.82711000e+10
1695.000000 1.79171000e+10
1705.000000 1.75637000e+10
1715.000000 1.71878000e+10
1725.000000 1.68803000e+10
1735.000000 1.66237000e+10
1745.000000 1.63100000e+10
1755.000000 1.60133000e+10
1765.000000 1.56873000e+10
1775.000000 1.54273000e+10
1785.000000 1.51686000e+10
1795.000000 1.49019000e+10
1805.000000 1.46459000e+10
1815.000000 1.43740000e+10
1825.000000 1.41230000e+10
1835.000000 1.38789000e+10
1845.000000 1.35894000e+10
1855.000000 1.32528000e+10
1865.000000 1.30710000e+10
1875.000000 1.29255000e+10
1885.000000 1.26456000e+10
1895.000000 1.23540000e+10
1905.000000 1.22527000e+10
1915.000000 1.19545000e+10
1925.000000 1.17524000e+10
1935.000000 1.16081000e+10
1945.000000 1.14631000e+10
1955.000000 1.11904000e+10
1967.000000 1.10485000e+10
1976.000000 1.09123000e+10
1984.000000 1.07326000e+10
1995.000000 1.04868000e+10
2005.000000 1.03965000e+10
2015.000000 1.02426000e+10
2025.000000 1.00875000e+10
2035.000000 9.91124000e+09
2045.000000 9.75419000e+09
2055.000000 9.23753000e+09
2065.000000 9.04227000e+09
2074.000000 8.98060000e+09
2078.000000 8.86405000e+09
2085.000000 8.86963000e+09
2095.000000 8.82893000e+09
2105.000000 8.85067000e+09
2115.000000 8.75622000e+09
2125.000000 8.63563000e+09
2135.000000 8.49955000e+09
2145.000000 8.36481000e+09
2155.000000 8.24517000e+09
2165.000000 8.11211000e+09
2175.000000 8.00185000e+09
2185.000000 7.86865000e+09
2195.000000 7.76709000e+09
2205.000000 7.65240000e+09
2215.000000 7.52157000e+09
2225.000000 7.42809000e+09
2235.000000 7.31878000e+09
2245.000000 7.21336000e+09
2255.000000 7.08818000e+09
2265.000000 7.00591000e+09
2275.000000 6.90522000e+09
2285.000000 6.80602000e+09
2295.000000 6.65092000e+09
2305.000000 6.59383000e+09
2315.000000 6.51920000e+09
2325.000000 6.42742000e+09
2335.000000 6.33656000e+09
2345.000000 6.24865000e+09
2355.000000 6.16173000e+09
2365.000000 6.07606000e+09
2375.000000 5.99160000e+09
2385.000000 5.89146000e+09
2395.000000 5.82759000e+09
2405.000000 5.74816000e+09
2415.000000 5.66958000e+09
2425.000000 5.59300000e+09
2435.000000 5.51679000e+09
2445.000000 5.44264000e+09
2455.000000 5.36976000e+09
2465.000000 5.29795000e+09
2475.000000 5.22718000e+09
2485.000000 5.15774000e+09
2495.000000 5.01947000e+09
2505.000000 5.02108000e+09
2513.000000 4.93261000e+09
2518.000000 4.93556000e+09
2525.000000 4.89145000e+09
2535.000000 4.82778000e+09
2545.000000 4.76299000e+09
2555.000000 4.70258000e+09
2565.000000 4.64273000e+09
2575.000000 4.58317000e+09
2585.000000 4.52466000e+09
2595.000000 4.46697000e+09
2605.000000 4.43319000e+09
2615.000000 4.37693000e+09
2625.000000 4.32155000e+09
2635.000000 4.26527000e+09
2645.000000 4.21019000e+09
2655.000000 4.15352000e+09
2665.000000 4.09435000e+09
2675.000000 4.03610000e+09
2685.000000 4.00719000e+09
2695.000000 3.93020000e+09
2705.000000 3.90887000e+09
2715.000000 3.86086000e+09
2725.000000 3.78316000e+09
2735.000000 3.75852000e+09
2745.000000 3.72108000e+09
2755.000000 3.67620000e+09
2765.000000 3.59979000e+09
2775.000000 3.58818000e+09
2785.000000 3.54507000e+09
2795.000000 3.49901000e+09
2805.000000 3.46008000e+09
2815.000000 3.41980000e+09
2825.000000 3.34206000e+09
2835.000000 3.31739000e+09
2845.000000 3.30007000e+09
2855.000000 3.26128000e+09
2865.000000 3.22313000e+09
2875.000000 3.18562000e+09
2885.000000 3.14864000e+09
2895.000000 3.11213000e+09
2910.000000 3.05838000e+09
2930.000000 2.98855000e+09
2950.000000 2.89648000e+09
2970.000000 2.85495000e+09
2990.000000 2.79088000e+09
3010.000000 2.72868000e+09
3030.000000 2.66844000e+09
3050.000000 2.60971000e+09
3070.000000 2.55263000e+09
3090.000000 2.49665000e+09
3110.000000 2.44315000e+09
3130.000000 2.39260000e+09
3150.000000 2.34144000e+09
3170.000000 2.29163000e+09
3190.000000 2.22122000e+09
3210.000000 2.19319000e+09
3230.000000 2.14849000e+09
3250.000000 2.10337000e+09
3270.000000 2.06211000e+09
3290.000000 2.01690000e+09
3310.000000 1.97843000e+09
3330.000000 1.93819000e+09
3350.000000 1.89555000e+09
3370.000000 1.86078000e+09
3390.000000 1.82357000e+09
3410.000000 1.78728000e+09
3430.000000 1.74488000e+09
3450.000000 1.70445000e+09
3470.000000 1.67588000e+09
3490.000000 1.64331000e+09
3510.000000 1.61307000e+09
3530.000000 1.58333000e+09
3550.000000 1.55376000e+09
3570.000000 1.53436000e+09
3590.000000 1.49270000e+09
3610.000000 1.47135000e+09
3630.000000 1.43725000e+09
3640.000000 1.43625000e+09
3650.000000 1.41872000e+09
3670.000000 1.39804000e+09
3690.000000 1.37308000e+09
3710.000000 1.32883000e+09
3730.000000 1.28700000e+09
3750.000000 1.26669000e+09
3770.000000 1.22697000e+09
3790.000000 1.26436000e+09
3810.000000 1.31102000e+09
3830.000000 1.14784000e+09
3850.000000 1.34156000e+09
3870.000000 1.36747000e+09
3890.000000 1.07421000e+09
3910.000000 1.34040000e+09
3930.000000 1.33745000e+09
3950.000000 1.29775000e+09
3970.000000 9.95742000e+08
3990.000000 1.23932000e+09
4010.000000 1.24500000e+09
4030.000000 1.16286000e+09
4050.000000 1.21784000e+09
4070.000000 1.18887000e+09
4090.000000 1.07028000e+09
4110.000000 9.33254000e+08
4130.000000 1.11021000e+09
4150.000000 1.10369000e+09
4170.000000 1.09679000e+09
4190.000000 1.08061000e+09
4210.000000 1.06176000e+09
4230.000000 1.04387000e+09
4250.000000 1.02583000e+09
4270.000000 1.00734000e+09
4290.000000 9.87712000e+08
4310.000000 9.62707000e+08
4330.000000 8.53689000e+08
4350.000000 7.79281000e+08
4370.000000 9.11103000e+08
4390.000000 8.77428000e+08
4410.000000 8.93817000e+08
4430.000000 8.76992000e+08
4450.000000 8.65531000e+08
4470.000000 8.04784000e+08
4490.000000 8.36556000e+08
4510.000000 8.24670000e+08
4530.000000 8.11346000e+08
4550.000000 7.97897000e+08
4570.000000 7.85408000e+08
4590.000000 7.72839000e+08
4610.000000 7.60599000e+08
4630.000000 7.48542000e+08
4650.000000 7.36315000e+08
4670.000000 7.25098000e+08
4690.000000 7.11580000e+08
4710.000000 6.93169000e+08
4730.000000 6.91715000e+08
4750.000000 6.80977000e+08
4770.000000 6.70559000e+08
4790.000000 6.59865000e+08
4810.000000 6.47713000e+08
4830.000000 6.32412000e+08
4850.000000 5.72754000e+08
4870.000000 5.11939000e+08
4890.000000 6.00367000e+08
4910.000000 5.98345000e+08
4930.000000 5.74544000e+08
4950.000000 5.84517000e+08
4970.000000 5.75978000e+08
4990.000000 5.67467000e+08
5010.000000 5.51539000e+08
5030.000000 5.50884000e+08
5050.000000 5.39557000e+08
5070.000000 5.34971000e+08
5090.000000 5.27213000e+08
5110.000000 5.19602000e+08
5130.000000 5.12123000e+08
5150.000000 5.04773000e+08
5170.000000 4.97563000e+08
5190.000000 4.90476000e+08
5210.000000 4.83526000e+08
5230.000000 4.76695000e+08
5250.000000 4.69981000e+08
5270.000000 4.63382000e+08
5290.000000 4.56896000e+08
5310.000000 4.50535000e+08
5330.000000 4.44282000e+08
5350.000000 4.38124000e+08
5370.000000 4.32084000e+08
5390.000000 4.26147000e+08
5410.000000 4.20170000e+08
5430.000000 4.14576000e+08
5450.000000 4.08939000e+08
5470.000000 4.03398000e+08
5490.000000 3.97939000e+08
5510.000000 3.92586000e+08
5530.000000 3.87325000e+08
5550.000000 3.82141000e+08
5570.000000 3.77046000e+08
5590.000000 3.72038000e+08
5610.000000 3.67116000e+08
5630.000000 3.62266000e+08
5650.000000 3.57511000e+08
5670.000000 3.52814000e+08
5690.000000 3.48185000e+08
5710.000000 3.43682000e+08
5730.000000 3.39222000e+08
5750.000000 3.34826000e+08
5770.000000 3.30518000e+08
5790.000000 3.26272000e+08
5810.000000 3.22087000e+08
5830.000000 3.17975000e+08
5850.000000 3.13933000e+08
5870.000000 2.99082000e+08
5890.000000 3.05188000e+08
5910.000000 3.02177000e+08
5930.000000 2.98385000e+08
5950.000000 2.94648000e+08
5970.000000 2.90975000e+08
5990.000000 2.87355000e+08
6010.000000 2.83787000e+08
6030.000000 2.80281000e+08
6050.000000 2.76826000e+08
6070.000000 2.73430000e+08
6090.000000 2.70073000e+08
6110.000000 2.66784000e+08
6130.000000 2.63532000e+08
6150.000000 2.60336000e+08
6170.000000 2.57187000e+08
6190.000000 2.54082000e+08
6210.000000 2.51032000e+08
6230.000000 2.48025000e+08
6250.000000 2.45051000e+08
6270.000000 2.42139000e+08
6290.000000 2.39259000e+08
6310.000000 2.36420000e+08
6330.000000 2.33631000e+08
6350.000000 2.30882000e+08
6370.000000 2.28172000e+08
6390.000000 2.25500000e+08
6410.000000 2.22867000e+08
6430.000000 2.20270000e+08
6450.000000 2.17711000e+08
6470.000000 2.15188000e+08
6490.000000 2.12710000e+08
6510.000000 2.09734000e+08
6530.000000 2.06181000e+08
6550.000000 1.94738000e+08
6570.000000 1.72791000e+08
6590.000000 1.97542000e+08
6610.000000 1.97728000e+08
6630.000000 1.96134000e+08
6650.000000 1.94190000e+08
6670.000000 1.89597000e+08
6690.000000 1.87523000e+08
6710.000000 1.87737000e+08
6730.000000 1.85641000e+08
6750.000000 1.83584000e+08
6770.000000 1.81547000e+08
6790.000000 1.79531000e+08
6810.000000 1.77560000e+08
6830.000000 1.75609000e+08
6850.000000 1.73678000e+08
6870.000000 1.71782000e+08
6890.000000 1.69906000e+08
6910.000000 1.68064000e+08
6930.000000 1.66240000e+08
6950.000000 1.64442000e+08
6970.000000 1.62670000e+08
6990.000000 1.60915000e+08
7010.000000 1.59194000e+08
7030.000000 1.57489000e+08
7050.000000 1.55808000e+08
7070.000000 1.51544000e+08
7090.000000 1.52519000e+08
7110.000000 1.50902000e+08
7130.000000 1.49315000e+08
7150.000000 1.47737000e+08
7170.000000 1.46174000e+08
7190.000000 1.44662000e+08
7210.000000 1.43150000e+08
7230.000000 1.41631000e+08
7250.000000 1.40185000e+08
7270.000000 1.38730000e+08
7290.000000 1.36106000e+08
7310.000000 1.35869000e+08
7330.000000 1.34484000e+08
7350.000000 1.33104000e+08
7370.000000 1.31745000e+08
7390.000000 1.30398000e+08
7410.000000 1.29071000e+08
7430.000000 1.27763000e+08
7450.000000 1.26487000e+08
7470.000000 1.25203000e+08
7490.000000 1.23944000e+08
7510.000000 1.22664000e+08
7530.000000 1.21468000e+08
7550.000000 1.20257000e+08
7570.000000 1.19057000e+08
7590.000000 1.17868000e+08
7610.000000 1.16703000e+08
7630.000000 1.15549000e+08
7650.000000 1.14404000e+08
7670.000000 1.13277000e+08
7690.000000 1.12166000e+08
7710.000000 1.11065000e+08
7730.000000 1.09981000e+08
7750.000000 1.08906000e+08
7770.000000 1.07847000e+08
7790.000000 1.06803000e+08
7810.000000 1.05713000e+08
7830.000000 1.04744000e+08
7850.000000 1.03832000e+08
7870.000000 1.02836000e+08
7890.000000 1.01807000e+08
7910.000000 1.00872000e+08
7930.000000 9.99082000e+07
7950.000000 9.89591000e+07
7970.000000 9.79234000e+07
7990.000000 9.70856000e+07
8010.000000 9.60729000e+07
8030.000000 9.50983000e+07
8050.000000 9.42020000e+07
8070.000000 9.33365000e+07
8090.000000 9.23345000e+07
8110.000000 9.15875000e+07
8130.000000 9.07556000e+07
8150.000000 8.98570000e+07
8170.000000 8.91015000e+07
8190.000000 8.81726000e+07
8210.000000 8.72908000e+07
8230.000000 8.66669000e+07
8250.000000 8.58985000e+07
8270.000000 8.47839000e+07
8290.000000 8.43096000e+07
8310.000000 8.35824000e+07
8330.000000 8.27689000e+07
8350.000000 8.16758000e+07
8370.000000 8.11892000e+07
8390.000000 8.05617000e+07
8410.000000 7.98381000e+07
8430.000000 7.90780000e+07
8450.000000 7.78705000e+07
8470.000000 7.76765000e+07
8490.000000 7.68144000e+07
8510.000000 7.62665000e+07
8530.000000 7.54071000e+07
8550.000000 7.46785000e+07
8570.000000 7.43817000e+07
8590.000000 7.24070000e+07
8610.000000 7.24725000e+07
8630.000000 7.27035000e+07
8650.000000 7.10083000e+07
8670.000000 6.91474000e+07
8690.000000 7.07552000e+07
8710.000000 7.07782000e+07
8730.000000 6.87143000e+07
8750.000000 6.49463000e+07
8770.000000 6.68007000e+07
8790.000000 6.85547000e+07
8810.000000 6.83651000e+07
8830.000000 6.72585000e+07
8850.000000 6.31646000e+07
8870.000000 6.00310000e+07
8890.000000 6.46377000e+07
8910.000000 6.55721000e+07
8930.000000 6.53354000e+07
8950.000000 6.49450000e+07
8970.000000 6.40658000e+07
8990.000000 6.17067000e+07
9010.000000 5.57204000e+07
9030.000000 5.76130000e+07
9050.000000 6.11028000e+07
9070.000000 6.09023000e+07
9090.000000 6.11635000e+07
9110.000000 6.09452000e+07
9130.000000 6.04796000e+07
9150.000000 5.99140000e+07
9170.000000 5.90885000e+07
9190.000000 5.81491000e+07
9210.000000 5.49389000e+07
9230.000000 4.91071000e+07
9250.000000 5.39540000e+07
9270.000000 5.61108000e+07
9290.000000 5.63103000e+07
9310.000000 5.58078000e+07
9330.000000 5.56857000e+07
9350.000000 5.52667000e+07
9370.000000 5.49023000e+07
9390.000000 5.44551000e+07
9410.000000 5.40068000e+07
9430.000000 5.35662000e+07
9450.000000 5.30022000e+07
9470.000000 5.21316000e+07
9490.000000 5.18619000e+07
9510.000000 5.04069000e+07
9530.000000 4.75159000e+07
9550.000000 4.26535000e+07
9570.000000 4.78435000e+07
9590.000000 4.93564000e+07
9610.000000 4.93429000e+07
9630.000000 4.89594000e+07
9650.000000 4.89549000e+07
9670.000000 4.86197000e+07
9690.000000 4.81824000e+07
9710.000000 4.76965000e+07
9730.000000 4.74727000e+07
9750.000000 4.70959000e+07
9770.000000 4.67257000e+07
9790.000000 4.63581000e+07
9810.000000 4.59931000e+07
9830.000000 4.56346000e+07
9850.000000 4.52786000e+07
9870.000000 4.49251000e+07
9890.000000 4.45741000e+07
9910.000000 4.42218000e+07
9930.000000 4.38834000e+07
9950.000000 4.34788000e+07
9970.000000 4.30544000e+07
9990.000000 4.25764000e+07
10025.000000 3.97606000e+07
10075.000000 3.84391000e+07
10125.000000 4.03829000e+07
10175.000000 3.99251000e+07
10225.000000 3.91717000e+07
10275.000000 3.84595000e+07
10325.000000 3.75579000e+07
10375.000000 3.70462000e+07
10425.000000 3.63624000e+07
10475.000000 3.56968000e+07
10525.000000 3.50456000e+07
10575.000000 3.44084000e+07
10625.000000 3.37850000e+07
10675.000000 3.31023000e+07
10725.000000 3.25805000e+07
10775.000000 3.19985000e+07
10825.000000 3.10557000e+07
10875.000000 3.06163000e+07
10925.000000 2.73230000e+07
10975.000000 2.86707000e+07
11025.000000 2.89852000e+07
11075.000000 2.87094000e+07
11125.000000 2.82699000e+07
11175.000000 2.77828000e+07
11225.000000 2.72903000e+07
11275.000000 2.68393000e+07
11325.000000 2.63825000e+07
11375.000000 2.59354000e+07
11425.000000 2.54979000e+07
11475.000000 2.50693000e+07
11525.000000 2.46500000e+07
11575.000000 2.42393000e+07
11625.000000 2.38369000e+07
11675.000000 2.34430000e+07
11725.000000 2.30575000e+07
11775.000000 2.26795000e+07
11825.000000 2.23092000e+07
11875.000000 2.19465000e+07
11925.000000 2.15909000e+07
11975.000000 2.09370000e+07
12025.000000 2.09016000e+07
12075.000000 2.05674000e+07
12125.000000 2.02398000e+07
12175.000000 1.99183000e+07
12225.000000 1.96035000e+07
12275.000000 1.92948000e+07
12325.000000 1.89920000e+07
12375.000000 1.86954000e+07
12425.000000 1.84042000e+07
12475.000000 1.81190000e+07
12525.000000 1.77945000e+07
12575.000000 1.75644000e+07
12625.000000 1.72951000e+07
12675.000000 1.70309000e+07
12725.000000 1.67140000e+07
12775.000000 1.60673000e+07
12825.000000 1.46349000e+07
12875.000000 1.57930000e+07
12925.000000 1.57366000e+07
12975.000000 1.53954000e+07
13025.000000 1.53167000e+07
13075.000000 1.50901000e+07
