# Kurucz ODFNEW /NOVER, alpha: 0.0 (2003)
# teff = 27000 K (value for the effective temperature for the model. Temperatures are given in K)
# logg = 5 log(cm/s2) (value for Log(G) for the model.)
# lh = 1.25  (l/Hp where l is the  mixing length of the convective element and Hp is the pressure scale height)
# meta = -1  (value for the Metallicity for the model.)
# vtur = 2 km/s (Microturbulence velocity)
# alpha = 0  (Alpha)
#
# column 1: WAVELENGTH (ANGSTROM), Wavelength in Angstrom
# column 2: FLUX (ERG/CM2/S/A), Flux in erg/cm2/s/A
147.200000 7.65026000e-12
151.000000 2.99222000e-11
155.200000 1.25709000e-10
158.800000 4.06751000e-10
162.000000 1.10962000e-09
166.000000 3.69661000e-09
170.300000 1.26997000e-08
173.400000 2.98313000e-08
176.800000 7.36484000e-08
180.200000 1.75962000e-07
181.700000 2.55821000e-07
186.100000 7.41946000e-07
191.000000 2.29615000e-06
193.900000 4.36477000e-06
198.400000 1.13988000e-05
201.800000 2.28841000e-05
205.000000 4.31852000e-05
210.500000 1.23068000e-04
216.200000 3.44302000e-04
219.800000 6.41380000e-04
223.000000 1.09589000e-03
226.800000 2.02968000e-03
230.000000 7.71548000e-02
234.000000 1.75994000e-01
240.000000 3.83466000e-01
246.500000 8.54182000e-01
252.400000 1.72576000e+00
256.800000 2.68536000e+00
260.000000 4.00537000e+00
264.000000 6.06585000e+00
268.500000 9.58960000e+00
273.500000 1.56177000e+01
278.500000 2.50370000e+01
284.000000 4.14292000e+01
290.000000 6.95090000e+01
296.000000 1.14090000e+02
301.000000 1.68803000e+02
308.000000 2.76038000e+02
318.000000 5.97036000e+02
328.000000 1.15630000e+03
338.000000 2.19524000e+03
348.000000 3.95973000e+03
357.000000 6.69723000e+03
366.000000 1.09082000e+04
375.000000 1.68199000e+04
385.000000 2.70961000e+04
395.000000 4.22087000e+04
405.000000 6.40480000e+04
414.000000 9.21778000e+04
422.000000 1.23657000e+05
430.000000 1.65311000e+05
441.000000 2.42506000e+05
451.000000 3.38073000e+05
460.000000 4.45203000e+05
470.000000 6.03108000e+05
480.000000 7.99667000e+05
490.000000 1.05057000e+06
500.000000 1.36412000e+06
506.000000 6.87994000e+06
512.000000 2.68064000e+07
520.000000 3.08350000e+07
530.000000 3.80672000e+07
540.000000 3.95953000e+07
550.000000 5.12912000e+07
560.000000 5.67845000e+07
570.000000 6.57879000e+07
580.000000 6.50273000e+07
590.000000 7.94682000e+07
600.000000 8.85178000e+07
610.000000 9.96637000e+07
620.000000 1.08148000e+08
630.000000 1.18799000e+08
640.000000 1.23486000e+08
650.000000 1.36470000e+08
658.000000 1.48642000e+08
665.000000 1.57993000e+08
675.000000 1.66112000e+08
685.000000 1.75581000e+08
695.000000 2.01185000e+08
705.000000 2.10738000e+08
716.000000 2.30856000e+08
726.000000 2.43395000e+08
735.000000 2.57987000e+08
745.000000 2.79161000e+08
755.000000 2.96678000e+08
765.000000 3.14226000e+08
775.000000 3.34451000e+08
785.000000 3.55482000e+08
795.000000 3.70915000e+08
805.000000 3.89627000e+08
815.000000 4.06293000e+08
825.000000 4.31003000e+08
835.000000 4.33693000e+08
845.000000 4.64221000e+08
855.000000 4.82604000e+08
865.000000 5.07626000e+08
875.000000 5.33879000e+08
885.000000 5.59400000e+08
895.000000 5.81208000e+08
905.000000 5.93273000e+08
915.000000 7.06189000e+08
925.000000 2.86206000e+09
935.000000 7.10129000e+09
945.000000 2.06470000e+10
955.000000 3.15614000e+10
965.000000 4.35541000e+10
975.000000 1.33806000e+10
985.000000 5.11534000e+10
995.000000 4.86007000e+10
1005.000000 5.17748000e+10
1015.000000 4.49929000e+10
1025.000000 1.27033000e+10
1035.000000 3.80273000e+10
1045.000000 5.25132000e+10
1055.000000 5.07304000e+10
1065.000000 4.47302000e+10
1075.000000 4.74944000e+10
1085.000000 4.27156000e+10
1095.000000 4.63346000e+10
1105.000000 4.35837000e+10
1115.000000 4.29054000e+10
1125.000000 3.86485000e+10
1135.000000 4.13423000e+10
1145.000000 3.78992000e+10
1155.000000 3.88894000e+10
1165.000000 3.81719000e+10
1175.000000 3.00401000e+10
1185.000000 3.57031000e+10
1195.000000 3.29580000e+10
1205.000000 2.62409000e+10
1215.000000 9.41246000e+09
1225.000000 2.59885000e+10
1235.000000 3.13195000e+10
1245.000000 3.10590000e+10
1255.000000 3.05804000e+10
1265.000000 3.01106000e+10
1275.000000 3.00920000e+10
1285.000000 2.94110000e+10
1295.000000 2.59753000e+10
1305.000000 2.61428000e+10
1315.000000 2.74656000e+10
1325.000000 2.62222000e+10
1335.000000 2.51692000e+10
1345.000000 2.50962000e+10
1355.000000 2.50390000e+10
1365.000000 2.38182000e+10
1375.000000 2.34252000e+10
1385.000000 2.30116000e+10
1395.000000 2.05843000e+10
1405.000000 2.08210000e+10
1415.000000 2.12578000e+10
1425.000000 2.06284000e+10
1435.000000 2.05157000e+10
1442.000000 2.05670000e+10
1447.000000 2.02182000e+10
1455.000000 1.98079000e+10
1465.000000 1.91206000e+10
1475.000000 1.88155000e+10
1485.000000 1.83921000e+10
1495.000000 1.80238000e+10
1505.000000 1.70982000e+10
1512.000000 1.63880000e+10
1517.000000 1.65013000e+10
1525.000000 1.63497000e+10
1535.000000 1.51152000e+10
1545.000000 1.50163000e+10
1555.000000 1.44081000e+10
1565.000000 1.47786000e+10
1575.000000 1.48689000e+10
1585.000000 1.46293000e+10
1595.000000 1.44641000e+10
1605.000000 1.39620000e+10
1615.000000 1.36288000e+10
1625.000000 1.35817000e+10
1635.000000 1.35925000e+10
1645.000000 1.31605000e+10
1655.000000 1.31268000e+10
1665.000000 1.30240000e+10
1672.000000 1.26668000e+10
1677.000000 1.29579000e+10
1685.000000 1.26781000e+10
1695.000000 1.23113000e+10
1705.000000 1.19509000e+10
1715.000000 1.15756000e+10
1725.000000 1.13667000e+10
1735.000000 1.13547000e+10
1745.000000 1.11230000e+10
1755.000000 1.10588000e+10
1765.000000 1.06370000e+10
1775.000000 1.04503000e+10
1785.000000 1.03911000e+10
1795.000000 1.03463000e+10
1805.000000 1.02541000e+10
1815.000000 9.83364000e+09
1825.000000 9.79856000e+09
1835.000000 9.59035000e+09
1845.000000 8.99595000e+09
1855.000000 8.87415000e+09
1865.000000 8.91756000e+09
1875.000000 8.96510000e+09
1885.000000 8.35697000e+09
1895.000000 7.95553000e+09
1905.000000 8.24314000e+09
1915.000000 7.91915000e+09
1925.000000 7.67351000e+09
1935.000000 7.82864000e+09
1945.000000 7.88846000e+09
1955.000000 7.37348000e+09
1967.000000 7.57307000e+09
1976.000000 7.72480000e+09
1984.000000 7.33694000e+09
1995.000000 7.13084000e+09
2005.000000 7.19221000e+09
2015.000000 7.17852000e+09
2025.000000 7.19122000e+09
2035.000000 6.86536000e+09
2045.000000 6.79028000e+09
2055.000000 6.55887000e+09
2065.000000 6.53375000e+09
2074.000000 6.65514000e+09
2078.000000 6.39067000e+09
2085.000000 6.40017000e+09
2095.000000 6.19785000e+09
2105.000000 6.29231000e+09
2115.000000 6.24053000e+09
2125.000000 6.23949000e+09
2135.000000 6.11523000e+09
2145.000000 5.95116000e+09
2155.000000 5.95179000e+09
2165.000000 5.88191000e+09
2175.000000 5.78167000e+09
2185.000000 5.70623000e+09
2195.000000 5.65271000e+09
2205.000000 5.56948000e+09
2215.000000 5.49650000e+09
2225.000000 5.39880000e+09
2235.000000 5.31244000e+09
2245.000000 5.26993000e+09
2255.000000 5.17647000e+09
2265.000000 5.12851000e+09
2275.000000 5.05768000e+09
2285.000000 4.99800000e+09
2295.000000 4.83237000e+09
2305.000000 4.85406000e+09
2315.000000 4.77152000e+09
2325.000000 4.71167000e+09
2335.000000 4.62787000e+09
2345.000000 4.58335000e+09
2355.000000 4.53554000e+09
2365.000000 4.47261000e+09
2375.000000 4.40644000e+09
2385.000000 4.34738000e+09
2395.000000 4.29053000e+09
2405.000000 4.23467000e+09
2415.000000 4.17571000e+09
2425.000000 4.13788000e+09
2435.000000 4.06972000e+09
2445.000000 4.02465000e+09
2455.000000 3.98143000e+09
2465.000000 3.92761000e+09
2475.000000 3.87669000e+09
2485.000000 3.82603000e+09
2495.000000 3.67245000e+09
2505.000000 3.72171000e+09
2513.000000 3.62134000e+09
2518.000000 3.66300000e+09
2525.000000 3.63273000e+09
2535.000000 3.58613000e+09
2545.000000 3.51642000e+09
2555.000000 3.49322000e+09
2565.000000 3.45412000e+09
2575.000000 3.41740000e+09
2585.000000 3.37698000e+09
2595.000000 3.33539000e+09
2605.000000 3.31189000e+09
2615.000000 3.27366000e+09
2625.000000 3.23668000e+09
2635.000000 3.19664000e+09
2645.000000 3.15879000e+09
2655.000000 3.11970000e+09
2665.000000 3.06731000e+09
2675.000000 3.02963000e+09
2685.000000 3.01479000e+09
2695.000000 2.94333000e+09
2705.000000 2.93551000e+09
2715.000000 2.90345000e+09
2725.000000 2.84504000e+09
2735.000000 2.83778000e+09
2745.000000 2.79199000e+09
2755.000000 2.76640000e+09
2765.000000 2.71208000e+09
2775.000000 2.71189000e+09
2785.000000 2.67831000e+09
2795.000000 2.60686000e+09
2805.000000 2.60277000e+09
2815.000000 2.58968000e+09
2825.000000 2.52800000e+09
2835.000000 2.48540000e+09
2845.000000 2.50161000e+09
2855.000000 2.47168000e+09
2865.000000 2.44597000e+09
2875.000000 2.41845000e+09
2885.000000 2.39176000e+09
2895.000000 2.36470000e+09
2910.000000 2.32397000e+09
2930.000000 2.27287000e+09
2950.000000 2.20241000e+09
2970.000000 2.17610000e+09
2990.000000 2.12669000e+09
3010.000000 2.07952000e+09
3030.000000 2.03960000e+09
3050.000000 1.99682000e+09
3070.000000 1.95522000e+09
3090.000000 1.90722000e+09
3110.000000 1.87370000e+09
3130.000000 1.83568000e+09
3150.000000 1.79851000e+09
3170.000000 1.76025000e+09
3190.000000 1.70726000e+09
3210.000000 1.69011000e+09
3230.000000 1.65509000e+09
3250.000000 1.62198000e+09
3270.000000 1.59138000e+09
3290.000000 1.55734000e+09
3310.000000 1.52946000e+09
3330.000000 1.49925000e+09
3350.000000 1.46717000e+09
3370.000000 1.44145000e+09
3390.000000 1.41397000e+09
3410.000000 1.38693000e+09
3430.000000 1.35396000e+09
3450.000000 1.32309000e+09
3470.000000 1.30200000e+09
3490.000000 1.27747000e+09
3510.000000 1.25524000e+09
3530.000000 1.23353000e+09
3550.000000 1.21163000e+09
3570.000000 1.19804000e+09
3590.000000 1.16470000e+09
3610.000000 1.14894000e+09
3630.000000 1.12371000e+09
3640.000000 1.12417000e+09
3650.000000 1.10345000e+09
3670.000000 1.08902000e+09
3690.000000 1.07028000e+09
3710.000000 1.03499000e+09
3730.000000 9.99249000e+08
3750.000000 9.88779000e+08
3770.000000 9.61697000e+08
3790.000000 1.00125000e+09
3810.000000 1.04355000e+09
3830.000000 9.07454000e+08
3850.000000 1.07848000e+09
3870.000000 1.10419000e+09
3890.000000 8.49851000e+08
3910.000000 1.08851000e+09
3930.000000 1.08588000e+09
3950.000000 1.05491000e+09
3970.000000 7.90011000e+08
3990.000000 1.00633000e+09
4010.000000 1.01831000e+09
4030.000000 9.44323000e+08
4050.000000 9.98870000e+08
4070.000000 9.68677000e+08
4090.000000 8.62500000e+08
4110.000000 7.47990000e+08
4130.000000 9.05751000e+08
4150.000000 9.05201000e+08
4170.000000 9.01045000e+08
4190.000000 8.89352000e+08
4210.000000 8.75885000e+08
4230.000000 8.60463000e+08
4250.000000 8.44354000e+08
4270.000000 8.23735000e+08
4290.000000 8.12756000e+08
4310.000000 7.89493000e+08
4330.000000 6.90591000e+08
4350.000000 6.27853000e+08
4370.000000 7.46953000e+08
4390.000000 7.19989000e+08
4410.000000 7.35827000e+08
4430.000000 7.24034000e+08
4450.000000 7.14744000e+08
4470.000000 6.60020000e+08
4490.000000 6.90200000e+08
4510.000000 6.82796000e+08
4530.000000 6.71676000e+08
4550.000000 6.60580000e+08
4570.000000 6.49868000e+08
4590.000000 6.39854000e+08
4610.000000 6.29652000e+08
4630.000000 6.19725000e+08
4650.000000 6.07280000e+08
4670.000000 6.00690000e+08
4690.000000 5.91947000e+08
4710.000000 5.72699000e+08
4730.000000 5.73053000e+08
4750.000000 5.63696000e+08
4770.000000 5.57373000e+08
4790.000000 5.47818000e+08
4810.000000 5.37492000e+08
4830.000000 5.23409000e+08
4850.000000 4.68748000e+08
4870.000000 4.16887000e+08
4890.000000 4.97031000e+08
4910.000000 4.97022000e+08
4930.000000 4.75978000e+08
4950.000000 4.86147000e+08
4970.000000 4.79924000e+08
4990.000000 4.72831000e+08
5010.000000 4.57612000e+08
5030.000000 4.59117000e+08
5050.000000 4.48899000e+08
5070.000000 4.46244000e+08
5090.000000 4.39821000e+08
5110.000000 4.33514000e+08
5130.000000 4.26977000e+08
5150.000000 4.20954000e+08
5170.000000 4.15434000e+08
5190.000000 4.09651000e+08
5210.000000 4.03722000e+08
5230.000000 3.98299000e+08
5250.000000 3.92769000e+08
5270.000000 3.87298000e+08
5290.000000 3.82005000e+08
5310.000000 3.76741000e+08
5330.000000 3.71572000e+08
5350.000000 3.66417000e+08
5370.000000 3.61589000e+08
5390.000000 3.56668000e+08
5410.000000 3.51873000e+08
5430.000000 3.47088000e+08
5450.000000 3.42427000e+08
5470.000000 3.37863000e+08
5490.000000 3.33406000e+08
5510.000000 3.29004000e+08
5530.000000 3.24621000e+08
5550.000000 3.20402000e+08
5570.000000 3.16162000e+08
5590.000000 3.12047000e+08
5610.000000 3.07947000e+08
5630.000000 3.03980000e+08
5650.000000 2.99873000e+08
5670.000000 2.95828000e+08
5690.000000 2.91843000e+08
5710.000000 2.88520000e+08
5730.000000 2.84857000e+08
5750.000000 2.81101000e+08
5770.000000 2.77708000e+08
5790.000000 2.74185000e+08
5810.000000 2.70727000e+08
5830.000000 2.67277000e+08
5850.000000 2.63956000e+08
5870.000000 2.50571000e+08
5890.000000 2.56147000e+08
5910.000000 2.54158000e+08
5930.000000 2.50968000e+08
5950.000000 2.47826000e+08
5970.000000 2.44931000e+08
5990.000000 2.41850000e+08
6010.000000 2.38949000e+08
6030.000000 2.36020000e+08
6050.000000 2.33165000e+08
6070.000000 2.30363000e+08
6090.000000 2.27573000e+08
6110.000000 2.24844000e+08
6130.000000 2.22146000e+08
6150.000000 2.19369000e+08
6170.000000 2.16831000e+08
6190.000000 2.14282000e+08
6210.000000 2.11751000e+08
6230.000000 2.09248000e+08
6250.000000 2.06744000e+08
6270.000000 2.04335000e+08
6290.000000 2.01952000e+08
6310.000000 1.99576000e+08
6330.000000 1.97274000e+08
6350.000000 1.94874000e+08
6370.000000 1.92687000e+08
6390.000000 1.90486000e+08
6410.000000 1.88291000e+08
6430.000000 1.86146000e+08
6450.000000 1.84016000e+08
6470.000000 1.81809000e+08
6490.000000 1.79688000e+08
6510.000000 1.77173000e+08
6530.000000 1.73977000e+08
6550.000000 1.63240000e+08
6570.000000 1.43754000e+08
6590.000000 1.66027000e+08
6610.000000 1.67110000e+08
6630.000000 1.65803000e+08
6650.000000 1.64373000e+08
6670.000000 1.60273000e+08
6690.000000 1.58584000e+08
6710.000000 1.59012000e+08
6730.000000 1.57236000e+08
6750.000000 1.55554000e+08
6770.000000 1.53847000e+08
6790.000000 1.52002000e+08
6810.000000 1.50493000e+08
6830.000000 1.48870000e+08
6850.000000 1.47272000e+08
6870.000000 1.45681000e+08
6890.000000 1.44106000e+08
6910.000000 1.42555000e+08
6930.000000 1.41036000e+08
6950.000000 1.39539000e+08
6970.000000 1.38057000e+08
6990.000000 1.36589000e+08
7010.000000 1.35144000e+08
7030.000000 1.33713000e+08
7050.000000 1.32303000e+08
7070.000000 1.28519000e+08
7090.000000 1.29548000e+08
7110.000000 1.28194000e+08
7130.000000 1.26861000e+08
7150.000000 1.25541000e+08
7170.000000 1.24226000e+08
7190.000000 1.22953000e+08
7210.000000 1.21692000e+08
7230.000000 1.19838000e+08
7250.000000 1.19192000e+08
7270.000000 1.17981000e+08
7290.000000 1.15697000e+08
7310.000000 1.15579000e+08
7330.000000 1.14416000e+08
7350.000000 1.13258000e+08
7370.000000 1.12117000e+08
7390.000000 1.10986000e+08
7410.000000 1.09873000e+08
7430.000000 1.08764000e+08
7450.000000 1.07699000e+08
7470.000000 1.06597000e+08
7490.000000 1.05565000e+08
7510.000000 1.04475000e+08
7530.000000 1.03483000e+08
7550.000000 1.02459000e+08
7570.000000 1.01452000e+08
7590.000000 1.00454000e+08
7610.000000 9.94644000e+07
7630.000000 9.84971000e+07
7650.000000 9.75386000e+07
7670.000000 9.65887000e+07
7690.000000 9.56538000e+07
7710.000000 9.47272000e+07
7730.000000 9.38153000e+07
7750.000000 9.29114000e+07
7770.000000 9.19533000e+07
7790.000000 9.11341000e+07
7810.000000 9.02170000e+07
7830.000000 8.94065000e+07
7850.000000 8.86275000e+07
7870.000000 8.77761000e+07
7890.000000 8.68899000e+07
7910.000000 8.61440000e+07
7930.000000 8.53326000e+07
7950.000000 8.44985000e+07
7970.000000 8.35946000e+07
7990.000000 8.28048000e+07
8010.000000 8.19984000e+07
8030.000000 8.12224000e+07
8050.000000 8.04589000e+07
8070.000000 7.97192000e+07
8090.000000 7.89054000e+07
8110.000000 7.82017000e+07
8130.000000 7.75780000e+07
8150.000000 7.68120000e+07
8170.000000 7.61711000e+07
8190.000000 7.53952000e+07
8210.000000 7.45476000e+07
8230.000000 7.40300000e+07
8250.000000 7.33948000e+07
8270.000000 7.23957000e+07
8290.000000 7.20468000e+07
8310.000000 7.14386000e+07
8330.000000 7.07539000e+07
8350.000000 6.97994000e+07
8370.000000 6.94017000e+07
8390.000000 6.88893000e+07
8410.000000 6.82797000e+07
8430.000000 6.76274000e+07
8450.000000 6.65532000e+07
8470.000000 6.64493000e+07
8490.000000 6.57028000e+07
8510.000000 6.52435000e+07
8530.000000 6.45185000e+07
8550.000000 6.38666000e+07
8570.000000 6.36920000e+07
8590.000000 6.18794000e+07
8610.000000 6.19784000e+07
8630.000000 6.23036000e+07
8650.000000 6.07520000e+07
8670.000000 5.89886000e+07
8690.000000 6.06530000e+07
8710.000000 6.07621000e+07
8730.000000 5.88676000e+07
8750.000000 5.53119000e+07
8770.000000 5.71710000e+07
8790.000000 5.89053000e+07
8810.000000 5.88081000e+07
8830.000000 5.77931000e+07
8850.000000 5.40401000e+07
8870.000000 5.11727000e+07
8890.000000 5.54711000e+07
8910.000000 5.64420000e+07
8930.000000 5.62886000e+07
8950.000000 5.59809000e+07
8970.000000 5.51791000e+07
8990.000000 5.29947000e+07
9010.000000 4.75993000e+07
9030.000000 4.93384000e+07
9050.000000 5.25565000e+07
9070.000000 5.24624000e+07
9090.000000 5.27515000e+07
9110.000000 5.26064000e+07
9130.000000 5.22135000e+07
9150.000000 5.17245000e+07
9170.000000 5.09705000e+07
9190.000000 5.01021000e+07
9210.000000 4.71844000e+07
9230.000000 4.20234000e+07
9250.000000 4.63237000e+07
9270.000000 4.83160000e+07
9290.000000 4.86102000e+07
9310.000000 4.81799000e+07
9330.000000 4.81034000e+07
9350.000000 4.77729000e+07
9370.000000 4.74747000e+07
9390.000000 4.70890000e+07
9410.000000 4.66891000e+07
9430.000000 4.62752000e+07
9450.000000 4.58264000e+07
9470.000000 4.50239000e+07
9490.000000 4.48051000e+07
9510.000000 4.34713000e+07
9530.000000 4.08695000e+07
9550.000000 3.66054000e+07
9570.000000 4.11756000e+07
9590.000000 4.26016000e+07
9610.000000 4.26366000e+07
9630.000000 4.23134000e+07
9650.000000 4.23364000e+07
9670.000000 4.20890000e+07
9690.000000 4.17068000e+07
9710.000000 4.12834000e+07
9730.000000 4.11099000e+07
9750.000000 4.07868000e+07
9770.000000 4.04700000e+07
9790.000000 4.01555000e+07
9810.000000 3.98393000e+07
9830.000000 3.95331000e+07
9850.000000 3.92251000e+07
9870.000000 3.89194000e+07
9890.000000 3.86158000e+07
9910.000000 3.82422000e+07
9930.000000 3.80237000e+07
9950.000000 3.76438000e+07
9970.000000 3.72875000e+07
9990.000000 3.68568000e+07
10025.000000 3.43279000e+07
10075.000000 3.31522000e+07
10125.000000 3.49820000e+07
10175.000000 3.46187000e+07
10225.000000 3.39786000e+07
10275.000000 3.33675000e+07
10325.000000 3.25804000e+07
10375.000000 3.21513000e+07
10425.000000 3.15643000e+07
10475.000000 3.09900000e+07
10525.000000 3.04290000e+07
10575.000000 2.98808000e+07
10625.000000 2.93450000e+07
10675.000000 2.87467000e+07
10725.000000 2.83083000e+07
10775.000000 2.78071000e+07
10825.000000 2.69570000e+07
10875.000000 2.65791000e+07
10925.000000 2.36396000e+07
10975.000000 2.48518000e+07
11025.000000 2.51721000e+07
11075.000000 2.49604000e+07
11125.000000 2.45941000e+07
11175.000000 2.41742000e+07
11225.000000 2.37479000e+07
11275.000000 2.33573000e+07
11325.000000 2.29638000e+07
11375.000000 2.25804000e+07
11425.000000 2.22010000e+07
11475.000000 2.18326000e+07
11525.000000 2.14706000e+07
11575.000000 2.11140000e+07
11625.000000 2.07680000e+07
11675.000000 2.04271000e+07
11725.000000 2.00943000e+07
11775.000000 1.97673000e+07
11825.000000 1.94477000e+07
11875.000000 1.91341000e+07
11925.000000 1.88265000e+07
11975.000000 1.82411000e+07
12025.000000 1.82304000e+07
12075.000000 1.79412000e+07
12125.000000 1.76578000e+07
12175.000000 1.73796000e+07
12225.000000 1.71071000e+07
12275.000000 1.68401000e+07
12325.000000 1.65780000e+07
12375.000000 1.63210000e+07
12425.000000 1.60689000e+07
12475.000000 1.58208000e+07
12525.000000 1.55372000e+07
12575.000000 1.53407000e+07
12625.000000 1.51081000e+07
12675.000000 1.48738000e+07
12725.000000 1.45961000e+07
12775.000000 1.40126000e+07
12825.000000 1.27382000e+07
12875.000000 1.37819000e+07
12925.000000 1.37506000e+07
12975.000000 1.34467000e+07
13025.000000 1.33932000e+07
13075.000000 1.31967000e+07
