# Kurucz ODFNEW /NOVER, alpha: 0.0 (2003)
# teff = 19000 K (value for the effective temperature for the model. Temperatures are given in K)
# logg = 3 log(cm/s2) (value for Log(G) for the model.)
# lh = 1.25  (l/Hp where l is the  mixing length of the convective element and Hp is the pressure scale height)
# meta = -0.5  (value for the Metallicity for the model.)
# vtur = 2 km/s (Microturbulence velocity)
# alpha = 0  (Alpha)
#
# column 1: WAVELENGTH (ANGSTROM), Wavelength in Angstrom
# column 2: FLUX (ERG/CM2/S/A), Flux in erg/cm2/s/A
147.200000 1.29067000e-21
151.000000 8.87869000e-21
155.200000 6.70392000e-20
158.800000 3.49952000e-19
162.000000 1.43592000e-18
166.000000 7.80255000e-18
170.300000 4.42274000e-17
173.400000 1.46883000e-16
176.800000 5.22980000e-16
180.200000 1.77784000e-15
181.700000 3.00711000e-15
186.100000 1.34165000e-14
191.000000 6.55634000e-14
193.900000 1.61505000e-13
198.400000 6.21018000e-13
201.800000 1.65259000e-12
205.000000 4.03174000e-12
210.500000 1.75219000e-11
216.200000 7.42257000e-11
219.800000 1.77666000e-10
223.000000 3.76813000e-10
226.800000 8.94690000e-10
230.000000 8.38775000e-09
234.000000 2.24754000e-08
240.000000 7.25466000e-08
246.500000 2.40990000e-07
252.400000 6.84616000e-07
256.800000 1.40657000e-06
260.000000 2.43029000e-06
264.000000 4.59004000e-06
268.500000 9.15849000e-06
273.500000 1.91895000e-05
278.500000 3.92630000e-05
284.000000 8.39019000e-05
290.000000 1.85041000e-04
296.000000 3.94410000e-04
301.000000 7.24468000e-04
308.000000 1.61448000e-03
318.000000 4.96412000e-03
328.000000 1.38672000e-02
338.000000 3.68208000e-02
348.000000 9.16657000e-02
357.000000 2.01683000e-01
366.000000 4.23313000e-01
375.000000 8.45401000e-01
385.000000 1.76359000e+00
395.000000 3.52886000e+00
405.000000 6.81524000e+00
414.000000 1.19925000e+01
422.000000 1.93004000e+01
430.000000 3.04786000e+01
441.000000 5.59086000e+01
451.000000 9.42004000e+01
460.000000 1.47138000e+02
470.000000 2.37089000e+02
480.000000 3.72822000e+02
490.000000 5.76156000e+02
500.000000 8.72626000e+02
506.000000 7.14273000e+03
512.000000 3.69754000e+04
520.000000 4.83994000e+04
530.000000 7.24852000e+04
540.000000 8.28973000e+04
550.000000 1.31114000e+05
560.000000 1.64339000e+05
570.000000 2.16518000e+05
580.000000 2.16575000e+05
590.000000 3.06535000e+05
600.000000 4.06638000e+05
610.000000 5.16203000e+05
620.000000 6.15390000e+05
630.000000 7.43787000e+05
640.000000 8.41157000e+05
650.000000 9.40976000e+05
658.000000 1.20024000e+06
665.000000 1.32359000e+06
675.000000 1.49336000e+06
685.000000 1.70996000e+06
695.000000 2.09585000e+06
705.000000 2.36585000e+06
716.000000 2.76909000e+06
726.000000 3.10417000e+06
735.000000 3.44766000e+06
745.000000 4.02152000e+06
755.000000 4.55360000e+06
765.000000 5.13314000e+06
775.000000 5.79108000e+06
785.000000 6.48826000e+06
795.000000 7.11883000e+06
805.000000 7.84241000e+06
815.000000 8.54047000e+06
825.000000 9.56955000e+06
835.000000 1.00204000e+07
845.000000 1.11664000e+07
855.000000 1.21580000e+07
865.000000 1.33613000e+07
875.000000 1.47469000e+07
885.000000 1.62572000e+07
895.000000 1.75910000e+07
905.000000 1.83092000e+07
915.000000 3.70432000e+07
925.000000 4.74244000e+08
935.000000 1.55204000e+09
945.000000 3.41388000e+09
955.000000 4.55781000e+09
965.000000 5.23046000e+09
975.000000 1.00116000e+09
985.000000 4.87111000e+09
995.000000 4.91486000e+09
1005.000000 5.85147000e+09
1015.000000 5.77367000e+09
1025.000000 2.67573000e+09
1035.000000 3.99158000e+09
1045.000000 6.93760000e+09
1055.000000 6.48549000e+09
1065.000000 5.46116000e+09
1075.000000 6.43191000e+09
1085.000000 5.58810000e+09
1095.000000 6.53654000e+09
1105.000000 5.81312000e+09
1115.000000 5.61659000e+09
1125.000000 5.01353000e+09
1135.000000 6.32695000e+09
1145.000000 5.78618000e+09
1155.000000 6.04055000e+09
1165.000000 6.20182000e+09
1175.000000 4.49224000e+09
1185.000000 6.23784000e+09
1195.000000 5.10053000e+09
1205.000000 2.87965000e+09
1215.000000 1.98156000e+09
1225.000000 4.94791000e+09
1235.000000 5.95046000e+09
1245.000000 6.06306000e+09
1255.000000 5.90678000e+09
1265.000000 5.63955000e+09
1275.000000 5.95513000e+09
1285.000000 5.88859000e+09
1295.000000 4.12195000e+09
1305.000000 4.27492000e+09
1315.000000 5.70511000e+09
1325.000000 5.38864000e+09
1335.000000 4.81252000e+09
1345.000000 5.40034000e+09
1355.000000 5.32072000e+09
1365.000000 4.89649000e+09
1375.000000 4.88072000e+09
1385.000000 4.90260000e+09
1395.000000 4.15229000e+09
1405.000000 4.41974000e+09
1415.000000 4.51253000e+09
1425.000000 4.54552000e+09
1435.000000 4.61814000e+09
1442.000000 4.72324000e+09
1447.000000 4.62336000e+09
1455.000000 4.53244000e+09
1465.000000 4.27770000e+09
1475.000000 4.27928000e+09
1485.000000 4.21706000e+09
1495.000000 4.15898000e+09
1505.000000 3.91046000e+09
1512.000000 3.52185000e+09
1517.000000 3.66090000e+09
1525.000000 3.75413000e+09
1535.000000 3.35970000e+09
1545.000000 3.43709000e+09
1555.000000 3.27352000e+09
1565.000000 3.41163000e+09
1575.000000 3.56694000e+09
1585.000000 3.55417000e+09
1595.000000 3.57667000e+09
1605.000000 3.52669000e+09
1615.000000 3.49860000e+09
1625.000000 3.40488000e+09
1635.000000 3.54854000e+09
1645.000000 3.51889000e+09
1655.000000 3.39315000e+09
1665.000000 3.54303000e+09
1672.000000 3.40805000e+09
1677.000000 3.52158000e+09
1685.000000 3.50733000e+09
1695.000000 3.33402000e+09
1705.000000 3.20522000e+09
1715.000000 3.04832000e+09
1725.000000 3.03055000e+09
1735.000000 3.14677000e+09
1745.000000 3.05056000e+09
1755.000000 3.11655000e+09
1765.000000 2.96476000e+09
1775.000000 2.91136000e+09
1785.000000 2.93310000e+09
1795.000000 3.02293000e+09
1805.000000 3.02954000e+09
1815.000000 2.74385000e+09
1825.000000 2.85491000e+09
1835.000000 2.76179000e+09
1845.000000 2.55408000e+09
1855.000000 2.46925000e+09
1865.000000 2.52451000e+09
1875.000000 2.70136000e+09
1885.000000 2.43072000e+09
1895.000000 2.26823000e+09
1905.000000 2.46331000e+09
1915.000000 2.31910000e+09
1925.000000 2.23966000e+09
1935.000000 2.34747000e+09
1945.000000 2.38195000e+09
1955.000000 2.18762000e+09
1967.000000 2.36217000e+09
1976.000000 2.44510000e+09
1984.000000 2.28243000e+09
1995.000000 2.22667000e+09
2005.000000 2.29869000e+09
2015.000000 2.26313000e+09
2025.000000 2.34556000e+09
2035.000000 2.15809000e+09
2045.000000 2.19217000e+09
2055.000000 2.12869000e+09
2065.000000 2.14399000e+09
2074.000000 2.25802000e+09
2078.000000 2.05435000e+09
2085.000000 2.14830000e+09
2095.000000 2.03505000e+09
2105.000000 2.08148000e+09
2115.000000 2.08239000e+09
2125.000000 2.11256000e+09
2135.000000 2.06794000e+09
2145.000000 1.96928000e+09
2155.000000 2.04961000e+09
2165.000000 2.02960000e+09
2175.000000 2.00588000e+09
2185.000000 1.95063000e+09
2195.000000 1.97919000e+09
2205.000000 1.94965000e+09
2215.000000 1.91282000e+09
2225.000000 1.86279000e+09
2235.000000 1.87240000e+09
2245.000000 1.87250000e+09
2255.000000 1.81022000e+09
2265.000000 1.83635000e+09
2275.000000 1.81791000e+09
2285.000000 1.82252000e+09
2295.000000 1.74137000e+09
2305.000000 1.76225000e+09
2315.000000 1.71373000e+09
2325.000000 1.69456000e+09
2335.000000 1.63579000e+09
2345.000000 1.62187000e+09
2355.000000 1.64107000e+09
2365.000000 1.60398000e+09
2375.000000 1.59505000e+09
2385.000000 1.56395000e+09
2395.000000 1.57719000e+09
2405.000000 1.53824000e+09
2415.000000 1.52850000e+09
2425.000000 1.53808000e+09
2435.000000 1.49040000e+09
2445.000000 1.49973000e+09
2455.000000 1.50010000e+09
2465.000000 1.46458000e+09
2475.000000 1.44735000e+09
2485.000000 1.44641000e+09
2495.000000 1.38539000e+09
2505.000000 1.42142000e+09
2513.000000 1.36084000e+09
2518.000000 1.39811000e+09
2525.000000 1.36602000e+09
2535.000000 1.34495000e+09
2545.000000 1.31689000e+09
2555.000000 1.34394000e+09
2565.000000 1.32071000e+09
2575.000000 1.33099000e+09
2585.000000 1.32014000e+09
2595.000000 1.30825000e+09
2605.000000 1.29978000e+09
2615.000000 1.28573000e+09
2625.000000 1.27223000e+09
2635.000000 1.26070000e+09
2645.000000 1.27089000e+09
2655.000000 1.26246000e+09
2665.000000 1.23157000e+09
2675.000000 1.23354000e+09
2685.000000 1.22604000e+09
2695.000000 1.19684000e+09
2705.000000 1.19315000e+09
2715.000000 1.17886000e+09
2725.000000 1.16074000e+09
2735.000000 1.16430000e+09
2745.000000 1.12303000e+09
2755.000000 1.12011000e+09
2765.000000 1.11572000e+09
2775.000000 1.12354000e+09
2785.000000 1.10801000e+09
2795.000000 1.07183000e+09
2805.000000 1.08451000e+09
2815.000000 1.08338000e+09
2825.000000 1.06628000e+09
2835.000000 1.03468000e+09
2845.000000 1.04073000e+09
2855.000000 1.03433000e+09
2865.000000 1.03423000e+09
2875.000000 1.02099000e+09
2885.000000 1.01365000e+09
2895.000000 1.00307000e+09
2910.000000 9.89815000e+08
2930.000000 9.68274000e+08
2950.000000 9.45536000e+08
2970.000000 9.35791000e+08
2990.000000 9.15729000e+08
3010.000000 8.98943000e+08
3030.000000 8.89167000e+08
3050.000000 8.72805000e+08
3070.000000 8.57353000e+08
3090.000000 8.38400000e+08
3110.000000 8.26015000e+08
3130.000000 8.12378000e+08
3150.000000 7.98184000e+08
3170.000000 7.82258000e+08
3190.000000 7.63373000e+08
3210.000000 7.56230000e+08
3230.000000 7.43175000e+08
3250.000000 7.30882000e+08
3270.000000 7.18657000e+08
3290.000000 7.05665000e+08
3310.000000 6.95169000e+08
3330.000000 6.83242000e+08
3350.000000 6.70442000e+08
3370.000000 6.60319000e+08
3390.000000 6.49600000e+08
3410.000000 6.39022000e+08
3430.000000 6.25443000e+08
3450.000000 6.13149000e+08
3470.000000 6.04787000e+08
3490.000000 5.95555000e+08
3510.000000 5.88788000e+08
3530.000000 5.80049000e+08
3550.000000 5.70871000e+08
3570.000000 5.63665000e+08
3590.000000 5.51381000e+08
3610.000000 5.42339000e+08
3630.000000 5.34550000e+08
3640.000000 5.33323000e+08
3650.000000 5.24155000e+08
3670.000000 5.17479000e+08
3690.000000 4.99102000e+08
3710.000000 5.03424000e+08
3730.000000 5.10171000e+08
3750.000000 5.74209000e+08
3770.000000 5.77066000e+08
3790.000000 5.93835000e+08
3810.000000 6.16762000e+08
3830.000000 5.47878000e+08
3850.000000 6.23608000e+08
3870.000000 6.14563000e+08
3890.000000 5.25755000e+08
3910.000000 6.06957000e+08
3930.000000 5.87429000e+08
3950.000000 5.87024000e+08
3970.000000 4.88645000e+08
3990.000000 5.66345000e+08
4010.000000 5.58695000e+08
4030.000000 5.34792000e+08
4050.000000 5.44521000e+08
4070.000000 5.31336000e+08
4090.000000 5.08451000e+08
4110.000000 4.52510000e+08
4130.000000 5.01698000e+08
4150.000000 4.97158000e+08
4170.000000 4.92682000e+08
4190.000000 4.87582000e+08
4210.000000 4.81133000e+08
4230.000000 4.72804000e+08
4250.000000 4.64694000e+08
4270.000000 4.53346000e+08
4290.000000 4.50398000e+08
4310.000000 4.42050000e+08
4330.000000 4.15833000e+08
4350.000000 3.80721000e+08
4370.000000 4.21374000e+08
4390.000000 4.10897000e+08
4410.000000 4.10898000e+08
4430.000000 4.03587000e+08
4450.000000 3.99873000e+08
4470.000000 3.83198000e+08
4490.000000 3.86239000e+08
4510.000000 3.83043000e+08
4530.000000 3.76621000e+08
4550.000000 3.71261000e+08
4570.000000 3.65872000e+08
4590.000000 3.60849000e+08
4610.000000 3.54995000e+08
4630.000000 3.49667000e+08
4650.000000 3.43512000e+08
4670.000000 3.40265000e+08
4690.000000 3.36291000e+08
4710.000000 3.26189000e+08
4730.000000 3.24413000e+08
4750.000000 3.19667000e+08
4770.000000 3.17985000e+08
4790.000000 3.13185000e+08
4810.000000 3.07964000e+08
4830.000000 3.03481000e+08
4850.000000 2.89388000e+08
4870.000000 2.60457000e+08
4890.000000 2.91243000e+08
4910.000000 2.87984000e+08
4930.000000 2.79065000e+08
4950.000000 2.80181000e+08
4970.000000 2.76802000e+08
4990.000000 2.72818000e+08
5010.000000 2.64355000e+08
5030.000000 2.65205000e+08
5050.000000 2.58958000e+08
5070.000000 2.58443000e+08
5090.000000 2.54976000e+08
5110.000000 2.51397000e+08
5130.000000 2.47322000e+08
5150.000000 2.44198000e+08
5170.000000 2.41875000e+08
5190.000000 2.38714000e+08
5210.000000 2.34553000e+08
5230.000000 2.32501000e+08
5250.000000 2.29544000e+08
5270.000000 2.26475000e+08
5290.000000 2.23770000e+08
5310.000000 2.20791000e+08
5330.000000 2.17878000e+08
5350.000000 2.14778000e+08
5370.000000 2.12580000e+08
5390.000000 2.09851000e+08
5410.000000 2.07208000e+08
5430.000000 2.04164000e+08
5450.000000 2.01793000e+08
5470.000000 1.99288000e+08
5490.000000 1.96976000e+08
5510.000000 1.94519000e+08
5530.000000 1.92080000e+08
5550.000000 1.89829000e+08
5570.000000 1.87412000e+08
5590.000000 1.85193000e+08
5610.000000 1.82750000e+08
5630.000000 1.80765000e+08
5650.000000 1.77752000e+08
5670.000000 1.75622000e+08
5690.000000 1.73598000e+08
5710.000000 1.72014000e+08
5730.000000 1.69966000e+08
5750.000000 1.67863000e+08
5770.000000 1.66034000e+08
5790.000000 1.64035000e+08
5810.000000 1.62093000e+08
5830.000000 1.60096000e+08
5850.000000 1.58276000e+08
5870.000000 1.52673000e+08
5890.000000 1.53908000e+08
5910.000000 1.52685000e+08
5930.000000 1.50864000e+08
5950.000000 1.48936000e+08
5970.000000 1.47517000e+08
5990.000000 1.45641000e+08
6010.000000 1.44141000e+08
6030.000000 1.42441000e+08
6050.000000 1.40842000e+08
6070.000000 1.39251000e+08
6090.000000 1.37627000e+08
6110.000000 1.36101000e+08
6130.000000 1.34573000e+08
6150.000000 1.32783000e+08
6170.000000 1.31498000e+08
6190.000000 1.30069000e+08
6210.000000 1.28618000e+08
6230.000000 1.27172000e+08
6250.000000 1.25646000e+08
6270.000000 1.24337000e+08
6290.000000 1.22958000e+08
6310.000000 1.21536000e+08
6330.000000 1.20290000e+08
6350.000000 1.18571000e+08
6370.000000 1.17438000e+08
6390.000000 1.16334000e+08
6410.000000 1.15069000e+08
6430.000000 1.13880000e+08
6450.000000 1.12614000e+08
6470.000000 1.11297000e+08
6490.000000 1.10147000e+08
6510.000000 1.08983000e+08
6530.000000 1.07662000e+08
6550.000000 1.04442000e+08
6570.000000 9.34211000e+07
6590.000000 1.03395000e+08
6610.000000 1.03287000e+08
6630.000000 1.02245000e+08
6650.000000 1.01231000e+08
6670.000000 9.94306000e+07
6690.000000 9.84077000e+07
6710.000000 9.80897000e+07
6730.000000 9.70417000e+07
6750.000000 9.60707000e+07
6770.000000 9.50764000e+07
6790.000000 9.38226000e+07
6810.000000 9.30693000e+07
6830.000000 9.21212000e+07
6850.000000 9.11987000e+07
6870.000000 9.02693000e+07
6890.000000 8.93413000e+07
6910.000000 8.84304000e+07
6930.000000 8.74971000e+07
6950.000000 8.66511000e+07
6970.000000 8.57745000e+07
6990.000000 8.48912000e+07
7010.000000 8.40471000e+07
7030.000000 8.32037000e+07
7050.000000 8.23381000e+07
7070.000000 8.03354000e+07
7090.000000 8.07447000e+07
7110.000000 7.98290000e+07
7130.000000 7.90854000e+07
7150.000000 7.83562000e+07
7170.000000 7.75752000e+07
7190.000000 7.68309000e+07
7210.000000 7.60791000e+07
7230.000000 7.46426000e+07
7250.000000 7.45754000e+07
7270.000000 7.38663000e+07
7290.000000 7.26109000e+07
7310.000000 7.24326000e+07
7330.000000 7.17434000e+07
7350.000000 7.10537000e+07
7370.000000 7.03703000e+07
7390.000000 6.96933000e+07
7410.000000 6.90294000e+07
7430.000000 6.83512000e+07
7450.000000 6.77214000e+07
7470.000000 6.70426000e+07
7490.000000 6.64339000e+07
7510.000000 6.57812000e+07
7530.000000 6.51831000e+07
7550.000000 6.45805000e+07
7570.000000 6.39767000e+07
7590.000000 6.33699000e+07
7610.000000 6.27803000e+07
7630.000000 6.21960000e+07
7650.000000 6.16170000e+07
7670.000000 6.10476000e+07
7690.000000 6.04782000e+07
7710.000000 5.99176000e+07
7730.000000 5.93665000e+07
7750.000000 5.88153000e+07
7770.000000 5.80636000e+07
7790.000000 5.77515000e+07
7810.000000 5.71782000e+07
7830.000000 5.67034000e+07
7850.000000 5.62008000e+07
7870.000000 5.56905000e+07
7890.000000 5.51041000e+07
7910.000000 5.46909000e+07
7930.000000 5.41201000e+07
7950.000000 5.35781000e+07
7970.000000 5.30954000e+07
7990.000000 5.25969000e+07
8010.000000 5.21772000e+07
8030.000000 5.17336000e+07
8050.000000 5.13053000e+07
8070.000000 5.08778000e+07
8090.000000 5.03266000e+07
8110.000000 4.99143000e+07
8130.000000 4.95642000e+07
8150.000000 4.90263000e+07
8170.000000 4.87138000e+07
8190.000000 4.82352000e+07
8210.000000 4.76193000e+07
8230.000000 4.73225000e+07
8250.000000 4.69627000e+07
8270.000000 4.63166000e+07
8290.000000 4.60836000e+07
8310.000000 4.57005000e+07
8330.000000 4.53060000e+07
8350.000000 4.47148000e+07
8370.000000 4.43497000e+07
8390.000000 4.40272000e+07
8410.000000 4.35970000e+07
8430.000000 4.32064000e+07
8450.000000 4.26096000e+07
8470.000000 4.20594000e+07
8490.000000 4.24541000e+07
8510.000000 4.11166000e+07
8530.000000 4.20585000e+07
8550.000000 3.97439000e+07
8570.000000 4.20966000e+07
8590.000000 3.98085000e+07
8610.000000 3.94490000e+07
8630.000000 4.15740000e+07
8650.000000 4.04329000e+07
8670.000000 3.68696000e+07
8690.000000 4.07619000e+07
8710.000000 4.08168000e+07
8730.000000 3.96542000e+07
8750.000000 3.54747000e+07
8770.000000 3.87045000e+07
8790.000000 3.95369000e+07
8810.000000 3.92009000e+07
8830.000000 3.88433000e+07
8850.000000 3.68786000e+07
8870.000000 3.39491000e+07
8890.000000 3.77172000e+07
8910.000000 3.76449000e+07
8930.000000 3.73310000e+07
8950.000000 3.71525000e+07
8970.000000 3.68236000e+07
8990.000000 3.60302000e+07
9010.000000 3.23960000e+07
9030.000000 3.41571000e+07
9050.000000 3.55131000e+07
9070.000000 3.50806000e+07
9090.000000 3.49624000e+07
9110.000000 3.48018000e+07
9130.000000 3.45473000e+07
9150.000000 3.42759000e+07
9170.000000 3.39007000e+07
9190.000000 3.36414000e+07
9210.000000 3.25379000e+07
9230.000000 2.90309000e+07
9250.000000 3.21606000e+07
9270.000000 3.24161000e+07
9290.000000 3.24024000e+07
9310.000000 3.20230000e+07
9330.000000 3.18811000e+07
9350.000000 3.16285000e+07
9370.000000 3.14057000e+07
9390.000000 3.11579000e+07
9410.000000 3.08521000e+07
9430.000000 3.06760000e+07
9450.000000 3.04379000e+07
9470.000000 3.00377000e+07
9490.000000 2.99610000e+07
9510.000000 2.94144000e+07
9530.000000 2.85228000e+07
9550.000000 2.57309000e+07
9570.000000 2.86090000e+07
9590.000000 2.87602000e+07
9610.000000 2.85113000e+07
9630.000000 2.82167000e+07
9650.000000 2.81751000e+07
9670.000000 2.79563000e+07
9690.000000 2.77203000e+07
9710.000000 2.74555000e+07
9730.000000 2.73289000e+07
9750.000000 2.71194000e+07
9770.000000 2.69177000e+07
9790.000000 2.67146000e+07
9810.000000 2.65119000e+07
9830.000000 2.63121000e+07
9850.000000 2.61176000e+07
9870.000000 2.59198000e+07
9890.000000 2.57207000e+07
9910.000000 2.54728000e+07
9930.000000 2.53470000e+07
9950.000000 2.51592000e+07
9970.000000 2.49704000e+07
9990.000000 2.47879000e+07
10025.000000 2.37660000e+07
10075.000000 2.30097000e+07
10125.000000 2.35234000e+07
10175.000000 2.31571000e+07
10225.000000 2.27305000e+07
10275.000000 2.23335000e+07
10325.000000 2.18643000e+07
10375.000000 2.15446000e+07
10425.000000 2.11634000e+07
10475.000000 2.07905000e+07
10525.000000 2.04237000e+07
10575.000000 2.00687000e+07
10625.000000 1.97200000e+07
10675.000000 1.93361000e+07
10725.000000 1.90432000e+07
10775.000000 1.87166000e+07
10825.000000 1.82017000e+07
10875.000000 1.80714000e+07
10925.000000 1.66997000e+07
10975.000000 1.72719000e+07
11025.000000 1.70979000e+07
11075.000000 1.68932000e+07
11125.000000 1.66154000e+07
11175.000000 1.63394000e+07
11225.000000 1.60606000e+07
11275.000000 1.57919000e+07
11325.000000 1.55391000e+07
11375.000000 1.52930000e+07
11425.000000 1.50423000e+07
11475.000000 1.48010000e+07
11525.000000 1.45625000e+07
11575.000000 1.43268000e+07
11625.000000 1.40970000e+07
11675.000000 1.38735000e+07
11725.000000 1.36543000e+07
11775.000000 1.34329000e+07
11825.000000 1.32274000e+07
11875.000000 1.30198000e+07
11925.000000 1.28173000e+07
11975.000000 1.25400000e+07
12025.000000 1.24226000e+07
12075.000000 1.22308000e+07
12125.000000 1.20428000e+07
12175.000000 1.18584000e+07
12225.000000 1.16777000e+07
12275.000000 1.15002000e+07
12325.000000 1.13260000e+07
12375.000000 1.11552000e+07
12425.000000 1.09878000e+07
12475.000000 1.08207000e+07
12525.000000 1.06428000e+07
12575.000000 1.05021000e+07
12625.000000 1.03474000e+07
12675.000000 1.01954000e+07
12725.000000 1.00456000e+07
12775.000000 9.78639000e+06
12825.000000 9.19420000e+06
12875.000000 9.58859000e+06
12925.000000 9.47328000e+06
12975.000000 9.29098000e+06
13025.000000 9.20269000e+06
13075.000000 9.07096000e+06
