# Kurucz ODFNEW /NOVER, alpha: 0.0 (2003)
# teff = 22000 K (value for the effective temperature for the model. Temperatures are given in K)
# logg = 3.5 log(cm/s2) (value for Log(G) for the model.)
# lh = 1.25  (l/Hp where l is the  mixing length of the convective element and Hp is the pressure scale height)
# meta = 0.2  (value for the Metallicity for the model.)
# vtur = 2 km/s (Microturbulence velocity)
# alpha = 0  (Alpha)
#
# column 1: WAVELENGTH (ANGSTROM), Wavelength in Angstrom
# column 2: FLUX (ERG/CM2/S/A), Flux in erg/cm2/s/A
147.200000 6.58429000e-18
151.000000 3.40496000e-17
155.200000 1.91860000e-16
158.800000 7.89599000e-16
162.000000 2.64718000e-15
166.000000 1.13032000e-14
170.300000 5.00897000e-14
173.400000 1.41019000e-13
176.800000 4.20753000e-13
180.200000 1.20831000e-12
181.700000 1.90151000e-12
186.100000 6.92659000e-12
191.000000 2.73927000e-11
193.900000 5.99195000e-11
198.400000 1.93463000e-10
201.800000 4.53954000e-10
205.000000 9.88595000e-10
210.500000 3.57564000e-09
216.200000 1.26859000e-08
219.800000 2.73236000e-08
223.000000 5.29689000e-08
226.800000 1.13557000e-07
230.000000 4.71118000e-06
234.000000 1.15635000e-05
240.000000 3.10782000e-05
246.500000 8.59886000e-05
252.400000 2.09648000e-04
256.800000 3.79864000e-04
260.000000 6.38991000e-04
264.000000 1.08896000e-03
268.500000 1.95513000e-03
273.500000 3.64656000e-03
278.500000 6.71983000e-03
284.000000 1.33170000e-02
290.000000 2.59240000e-02
296.000000 4.93099000e-02
301.000000 8.20978000e-02
308.000000 1.67166000e-01
318.000000 4.43064000e-01
328.000000 1.04201000e+00
338.000000 2.44803000e+00
348.000000 5.31852000e+00
357.000000 1.48089000e+01
366.000000 2.85733000e+01
375.000000 4.92206000e+01
385.000000 9.03337000e+01
395.000000 1.65044000e+02
405.000000 2.81241000e+02
414.000000 4.51602000e+02
422.000000 6.68570000e+02
430.000000 9.99505000e+02
441.000000 1.65045000e+03
451.000000 2.51115000e+03
460.000000 3.60207000e+03
470.000000 5.41235000e+03
480.000000 7.87371000e+03
490.000000 1.14073000e+04
500.000000 1.61225000e+04
506.000000 9.70560000e+04
512.000000 1.21615000e+06
520.000000 1.46192000e+06
530.000000 1.87131000e+06
540.000000 2.10612000e+06
550.000000 3.21758000e+06
560.000000 3.87866000e+06
570.000000 4.90687000e+06
580.000000 4.74921000e+06
590.000000 6.56154000e+06
600.000000 7.87051000e+06
610.000000 9.66770000e+06
620.000000 1.08373000e+07
630.000000 1.19957000e+07
640.000000 1.15815000e+07
650.000000 8.65559000e+06
658.000000 1.42934000e+07
665.000000 1.74639000e+07
675.000000 1.89280000e+07
685.000000 1.99747000e+07
695.000000 2.60577000e+07
705.000000 2.72838000e+07
716.000000 3.12543000e+07
726.000000 3.31567000e+07
735.000000 3.50980000e+07
745.000000 4.08241000e+07
755.000000 4.46649000e+07
765.000000 4.90300000e+07
775.000000 5.35421000e+07
785.000000 5.81425000e+07
795.000000 6.13711000e+07
805.000000 6.48729000e+07
815.000000 6.82137000e+07
825.000000 7.55036000e+07
835.000000 6.89079000e+07
845.000000 8.05191000e+07
855.000000 8.37950000e+07
865.000000 9.08763000e+07
875.000000 9.84454000e+07
885.000000 1.08249000e+08
895.000000 1.14859000e+08
905.000000 1.13084000e+08
915.000000 1.98996000e+08
925.000000 2.02466000e+09
935.000000 5.02464000e+09
945.000000 9.39013000e+09
955.000000 1.22178000e+10
965.000000 1.25472000e+10
975.000000 1.74252000e+09
985.000000 8.87633000e+09
995.000000 1.04838000e+10
1005.000000 1.38517000e+10
1015.000000 1.41257000e+10
1025.000000 7.93064000e+09
1035.000000 9.82175000e+09
1045.000000 1.76559000e+10
1055.000000 1.60853000e+10
1065.000000 1.22346000e+10
1075.000000 1.50141000e+10
1085.000000 1.27984000e+10
1095.000000 1.52747000e+10
1105.000000 1.31948000e+10
1115.000000 1.20435000e+10
1125.000000 9.63088000e+09
1135.000000 1.40775000e+10
1145.000000 1.25965000e+10
1155.000000 1.31525000e+10
1165.000000 1.30237000e+10
1175.000000 7.03265000e+09
1185.000000 1.26026000e+10
1195.000000 1.07390000e+10
1205.000000 5.28087000e+09
1215.000000 5.80677000e+09
1225.000000 1.06972000e+10
1235.000000 1.28588000e+10
1245.000000 1.24537000e+10
1255.000000 1.22556000e+10
1265.000000 1.22709000e+10
1275.000000 1.28150000e+10
1285.000000 1.27804000e+10
1295.000000 7.44305000e+09
1305.000000 8.18462000e+09
1315.000000 1.22773000e+10
1325.000000 1.13101000e+10
1335.000000 1.04031000e+10
1345.000000 1.14004000e+10
1355.000000 1.10606000e+10
1365.000000 9.75334000e+09
1375.000000 9.56258000e+09
1385.000000 9.28456000e+09
1395.000000 6.43374000e+09
1405.000000 7.16273000e+09
1415.000000 7.98400000e+09
1425.000000 8.14042000e+09
1435.000000 8.45216000e+09
1442.000000 8.72613000e+09
1447.000000 8.53278000e+09
1455.000000 8.24133000e+09
1465.000000 7.40478000e+09
1475.000000 7.70991000e+09
1485.000000 7.62487000e+09
1495.000000 7.45343000e+09
1505.000000 6.64151000e+09
1512.000000 5.76940000e+09
1517.000000 6.04279000e+09
1525.000000 6.35327000e+09
1535.000000 5.26651000e+09
1545.000000 5.14158000e+09
1555.000000 5.03750000e+09
1565.000000 5.47630000e+09
1575.000000 5.88886000e+09
1585.000000 6.00599000e+09
1595.000000 5.89345000e+09
1605.000000 6.09371000e+09
1615.000000 6.02730000e+09
1625.000000 5.82095000e+09
1635.000000 6.31014000e+09
1645.000000 6.29227000e+09
1655.000000 6.12967000e+09
1665.000000 6.40918000e+09
1672.000000 6.06940000e+09
1677.000000 6.58690000e+09
1685.000000 6.48311000e+09
1695.000000 6.01582000e+09
1705.000000 5.84956000e+09
1715.000000 5.43584000e+09
1725.000000 5.40363000e+09
1735.000000 5.73913000e+09
1745.000000 5.52557000e+09
1755.000000 5.63145000e+09
1765.000000 5.48679000e+09
1775.000000 5.12896000e+09
1785.000000 5.28424000e+09
1795.000000 5.55993000e+09
1805.000000 5.65275000e+09
1815.000000 4.81744000e+09
1825.000000 5.14382000e+09
1835.000000 4.92826000e+09
1845.000000 4.43893000e+09
1855.000000 4.37434000e+09
1865.000000 4.47107000e+09
1875.000000 4.90668000e+09
1885.000000 4.25191000e+09
1895.000000 3.91687000e+09
1905.000000 4.39708000e+09
1915.000000 3.99050000e+09
1925.000000 3.80336000e+09
1935.000000 4.12224000e+09
1945.000000 4.18542000e+09
1955.000000 3.73218000e+09
1967.000000 4.18648000e+09
1976.000000 4.34950000e+09
1984.000000 4.01704000e+09
1995.000000 3.92430000e+09
2005.000000 4.17942000e+09
2015.000000 4.05917000e+09
2025.000000 4.24767000e+09
2035.000000 3.79020000e+09
2045.000000 3.93996000e+09
2055.000000 3.78618000e+09
2065.000000 3.74854000e+09
2074.000000 4.05274000e+09
2078.000000 3.50732000e+09
2085.000000 3.81927000e+09
2095.000000 3.57895000e+09
2105.000000 3.70980000e+09
2115.000000 3.74908000e+09
2125.000000 3.77428000e+09
2135.000000 3.70727000e+09
2145.000000 3.48266000e+09
2155.000000 3.68185000e+09
2165.000000 3.68819000e+09
2175.000000 3.65156000e+09
2185.000000 3.46987000e+09
2195.000000 3.57281000e+09
2205.000000 3.55590000e+09
2215.000000 3.46773000e+09
2225.000000 3.36579000e+09
2235.000000 3.35436000e+09
2245.000000 3.39421000e+09
2255.000000 3.24467000e+09
2265.000000 3.33453000e+09
2275.000000 3.28636000e+09
2285.000000 3.30975000e+09
2295.000000 2.99637000e+09
2305.000000 3.17875000e+09
2315.000000 3.05202000e+09
2325.000000 3.01293000e+09
2335.000000 2.87973000e+09
2345.000000 2.90777000e+09
2355.000000 2.92436000e+09
2365.000000 2.88129000e+09
2375.000000 2.84005000e+09
2385.000000 2.80556000e+09
2395.000000 2.81068000e+09
2405.000000 2.72027000e+09
2415.000000 2.73086000e+09
2425.000000 2.73580000e+09
2435.000000 2.63154000e+09
2445.000000 2.66986000e+09
2455.000000 2.68247000e+09
2465.000000 2.61233000e+09
2475.000000 2.56771000e+09
2485.000000 2.54385000e+09
2495.000000 2.24094000e+09
2505.000000 2.47710000e+09
2513.000000 2.34729000e+09
2518.000000 2.46359000e+09
2525.000000 2.40144000e+09
2535.000000 2.36846000e+09
2545.000000 2.27439000e+09
2555.000000 2.34434000e+09
2565.000000 2.30754000e+09
2575.000000 2.33743000e+09
2585.000000 2.30343000e+09
2595.000000 2.28409000e+09
2605.000000 2.26831000e+09
2615.000000 2.23507000e+09
2625.000000 2.21977000e+09
2635.000000 2.20604000e+09
2645.000000 2.19877000e+09
2655.000000 2.19816000e+09
2665.000000 2.09375000e+09
2675.000000 2.12287000e+09
2685.000000 2.10975000e+09
2695.000000 2.03183000e+09
2705.000000 1.99233000e+09
2715.000000 1.99521000e+09
2725.000000 1.99094000e+09
2735.000000 1.98895000e+09
2745.000000 1.91374000e+09
2755.000000 1.91352000e+09
2765.000000 1.90355000e+09
2775.000000 1.92674000e+09
2785.000000 1.89326000e+09
2795.000000 1.82148000e+09
2805.000000 1.84730000e+09
2815.000000 1.84932000e+09
2825.000000 1.82685000e+09
2835.000000 1.74180000e+09
2845.000000 1.76398000e+09
2855.000000 1.73939000e+09
2865.000000 1.75362000e+09
2875.000000 1.73228000e+09
2885.000000 1.71549000e+09
2895.000000 1.68514000e+09
2910.000000 1.65932000e+09
2930.000000 1.63459000e+09
2950.000000 1.58506000e+09
2970.000000 1.56715000e+09
2990.000000 1.53383000e+09
3010.000000 1.48087000e+09
3030.000000 1.48338000e+09
3050.000000 1.45707000e+09
3070.000000 1.43387000e+09
3090.000000 1.38025000e+09
3110.000000 1.37241000e+09
3130.000000 1.34293000e+09
3150.000000 1.32183000e+09
3170.000000 1.28574000e+09
3190.000000 1.25960000e+09
3210.000000 1.24542000e+09
3230.000000 1.21856000e+09
3250.000000 1.20075000e+09
3270.000000 1.17515000e+09
3290.000000 1.15235000e+09
3310.000000 1.13344000e+09
3330.000000 1.11009000e+09
3350.000000 1.09046000e+09
3370.000000 1.07002000e+09
3390.000000 1.05390000e+09
3410.000000 1.03548000e+09
3430.000000 1.01101000e+09
3450.000000 9.89767000e+08
3470.000000 9.73854000e+08
3490.000000 9.55425000e+08
3510.000000 9.41694000e+08
3530.000000 9.30055000e+08
3550.000000 9.13657000e+08
3570.000000 9.01231000e+08
3590.000000 8.74322000e+08
3610.000000 8.58677000e+08
3630.000000 8.49299000e+08
3640.000000 8.48847000e+08
3650.000000 8.28762000e+08
3670.000000 8.20090000e+08
3690.000000 7.97252000e+08
3710.000000 7.75131000e+08
3730.000000 7.58501000e+08
3750.000000 8.26166000e+08
3770.000000 8.26224000e+08
3790.000000 8.56343000e+08
3810.000000 8.88225000e+08
3830.000000 7.83769000e+08
3850.000000 8.92713000e+08
3870.000000 8.77825000e+08
3890.000000 7.47454000e+08
3910.000000 8.75604000e+08
3930.000000 8.41567000e+08
3950.000000 8.39610000e+08
3970.000000 6.93420000e+08
3990.000000 8.10081000e+08
4010.000000 8.03028000e+08
4030.000000 7.62672000e+08
4050.000000 7.76771000e+08
4070.000000 7.43639000e+08
4090.000000 7.07782000e+08
4110.000000 6.35922000e+08
4130.000000 7.08318000e+08
4150.000000 7.03454000e+08
4170.000000 6.99669000e+08
4190.000000 6.93843000e+08
4210.000000 6.87585000e+08
4230.000000 6.72087000e+08
4250.000000 6.55368000e+08
4270.000000 6.36247000e+08
4290.000000 6.31413000e+08
4310.000000 6.13480000e+08
4330.000000 5.73446000e+08
4350.000000 5.27849000e+08
4370.000000 5.82802000e+08
4390.000000 5.78657000e+08
4410.000000 5.75455000e+08
4430.000000 5.68101000e+08
4450.000000 5.61751000e+08
4470.000000 5.38295000e+08
4490.000000 5.43601000e+08
4510.000000 5.40365000e+08
4530.000000 5.30189000e+08
4550.000000 5.23845000e+08
4570.000000 5.15067000e+08
4590.000000 5.07030000e+08
4610.000000 4.94841000e+08
4630.000000 4.87657000e+08
4650.000000 4.74987000e+08
4670.000000 4.74779000e+08
4690.000000 4.71441000e+08
4710.000000 4.52892000e+08
4730.000000 4.52370000e+08
4750.000000 4.45730000e+08
4770.000000 4.46670000e+08
4790.000000 4.38251000e+08
4810.000000 4.28818000e+08
4830.000000 4.22367000e+08
4850.000000 4.01338000e+08
4870.000000 3.60259000e+08
4890.000000 4.05685000e+08
4910.000000 4.01215000e+08
4930.000000 3.87690000e+08
4950.000000 3.88837000e+08
4970.000000 3.86034000e+08
4990.000000 3.79360000e+08
5010.000000 3.62259000e+08
5030.000000 3.67737000e+08
5050.000000 3.58183000e+08
5070.000000 3.58470000e+08
5090.000000 3.52997000e+08
5110.000000 3.46935000e+08
5130.000000 3.38280000e+08
5150.000000 3.35388000e+08
5170.000000 3.34039000e+08
5190.000000 3.29763000e+08
5210.000000 3.23058000e+08
5230.000000 3.20413000e+08
5250.000000 3.16501000e+08
5270.000000 3.11322000e+08
5290.000000 3.08246000e+08
5310.000000 3.03630000e+08
5330.000000 2.99565000e+08
5350.000000 2.94868000e+08
5370.000000 2.92336000e+08
5390.000000 2.88226000e+08
5410.000000 2.84760000e+08
5430.000000 2.80111000e+08
5450.000000 2.76537000e+08
5470.000000 2.72831000e+08
5490.000000 2.69672000e+08
5510.000000 2.66762000e+08
5530.000000 2.62680000e+08
5550.000000 2.60130000e+08
5570.000000 2.56432000e+08
5590.000000 2.53624000e+08
5610.000000 2.49951000e+08
5630.000000 2.47311000e+08
5650.000000 2.41928000e+08
5670.000000 2.38080000e+08
5690.000000 2.35118000e+08
5710.000000 2.33970000e+08
5730.000000 2.31376000e+08
5750.000000 2.27923000e+08
5770.000000 2.26256000e+08
5790.000000 2.23257000e+08
5810.000000 2.20551000e+08
5830.000000 2.17311000e+08
5850.000000 2.15035000e+08
5870.000000 2.06815000e+08
5890.000000 2.07520000e+08
5910.000000 2.06528000e+08
5930.000000 2.03680000e+08
5950.000000 2.00780000e+08
5970.000000 2.00125000e+08
5990.000000 1.96617000e+08
6010.000000 1.95144000e+08
6030.000000 1.92380000e+08
6050.000000 1.90297000e+08
6070.000000 1.88401000e+08
6090.000000 1.86099000e+08
6110.000000 1.83974000e+08
6130.000000 1.81974000e+08
6150.000000 1.78561000e+08
6170.000000 1.77128000e+08
6190.000000 1.75504000e+08
6210.000000 1.73613000e+08
6230.000000 1.71666000e+08
6250.000000 1.69074000e+08
6270.000000 1.67451000e+08
6290.000000 1.65673000e+08
6310.000000 1.63574000e+08
6330.000000 1.62025000e+08
6350.000000 1.59306000e+08
6370.000000 1.57973000e+08
6390.000000 1.56358000e+08
6410.000000 1.54660000e+08
6430.000000 1.53152000e+08
6450.000000 1.51298000e+08
6470.000000 1.49105000e+08
6490.000000 1.47543000e+08
6510.000000 1.46167000e+08
6530.000000 1.44124000e+08
6550.000000 1.39434000e+08
6570.000000 1.23662000e+08
6590.000000 1.37764000e+08
6610.000000 1.38104000e+08
6630.000000 1.36853000e+08
6650.000000 1.35366000e+08
6670.000000 1.32820000e+08
6690.000000 1.31446000e+08
6710.000000 1.31140000e+08
6730.000000 1.29439000e+08
6750.000000 1.28400000e+08
6770.000000 1.27026000e+08
6790.000000 1.24318000e+08
6810.000000 1.24019000e+08
6830.000000 1.22769000e+08
6850.000000 1.21636000e+08
6870.000000 1.20354000e+08
6890.000000 1.18989000e+08
6910.000000 1.17670000e+08
6930.000000 1.16506000e+08
6950.000000 1.15392000e+08
6970.000000 1.14203000e+08
6990.000000 1.12965000e+08
7010.000000 1.11784000e+08
7030.000000 1.10638000e+08
7050.000000 1.09436000e+08
7070.000000 1.06511000e+08
7090.000000 1.07230000e+08
7110.000000 1.04981000e+08
7130.000000 1.04037000e+08
7150.000000 1.03912000e+08
7170.000000 1.02923000e+08
7190.000000 1.01929000e+08
7210.000000 1.00893000e+08
7230.000000 9.81085000e+07
7250.000000 9.86861000e+07
7270.000000 9.78445000e+07
7290.000000 9.60678000e+07
7310.000000 9.58813000e+07
7330.000000 9.49030000e+07
7350.000000 9.40176000e+07
7370.000000 9.30919000e+07
7390.000000 9.21610000e+07
7410.000000 9.12594000e+07
7430.000000 9.02706000e+07
7450.000000 8.94471000e+07
7470.000000 8.82329000e+07
7490.000000 8.76549000e+07
7510.000000 8.67745000e+07
7530.000000 8.59089000e+07
7550.000000 8.51768000e+07
7570.000000 8.43657000e+07
7590.000000 8.35162000e+07
7610.000000 8.26680000e+07
7630.000000 8.19181000e+07
7650.000000 8.11491000e+07
7670.000000 8.03743000e+07
7690.000000 7.96000000e+07
7710.000000 7.88263000e+07
7730.000000 7.80659000e+07
7750.000000 7.73562000e+07
7770.000000 7.60661000e+07
7790.000000 7.59119000e+07
7810.000000 7.51345000e+07
7830.000000 7.44931000e+07
7850.000000 7.37227000e+07
7870.000000 7.30018000e+07
7890.000000 7.21117000e+07
7910.000000 7.16693000e+07
7930.000000 7.09368000e+07
7950.000000 7.01392000e+07
7970.000000 6.95801000e+07
7990.000000 6.87896000e+07
8010.000000 6.83115000e+07
8030.000000 6.76912000e+07
8050.000000 6.71111000e+07
8070.000000 6.65590000e+07
8090.000000 6.58216000e+07
8110.000000 6.51251000e+07
8130.000000 6.47937000e+07
8150.000000 6.41131000e+07
8170.000000 6.36867000e+07
8190.000000 6.28818000e+07
8210.000000 6.20951000e+07
8230.000000 6.15156000e+07
8250.000000 6.12619000e+07
8270.000000 6.01838000e+07
8290.000000 6.00856000e+07
8310.000000 5.95785000e+07
8330.000000 5.90756000e+07
8350.000000 5.82472000e+07
8370.000000 5.78348000e+07
8390.000000 5.74630000e+07
8410.000000 5.69078000e+07
8430.000000 5.63359000e+07
8450.000000 5.52886000e+07
8470.000000 5.51066000e+07
8490.000000 5.49048000e+07
8510.000000 5.38303000e+07
8530.000000 5.42150000e+07
8550.000000 5.20704000e+07
8570.000000 5.41205000e+07
8590.000000 5.13823000e+07
8610.000000 5.10728000e+07
8630.000000 5.33149000e+07
8650.000000 5.16941000e+07
8670.000000 4.75773000e+07
8690.000000 5.20474000e+07
8710.000000 5.22457000e+07
8730.000000 5.06670000e+07
8750.000000 4.53684000e+07
8770.000000 4.92997000e+07
8790.000000 5.06456000e+07
8810.000000 5.03140000e+07
8830.000000 4.97143000e+07
8850.000000 4.68910000e+07
8870.000000 4.31671000e+07
8890.000000 4.81922000e+07
8910.000000 4.82324000e+07
8930.000000 4.77993000e+07
8950.000000 4.76470000e+07
8970.000000 4.71585000e+07
8990.000000 4.59896000e+07
9010.000000 4.10109000e+07
9030.000000 4.33262000e+07
9050.000000 4.54099000e+07
9070.000000 4.48453000e+07
9090.000000 4.47472000e+07
9110.000000 4.45754000e+07
9130.000000 4.42488000e+07
9150.000000 4.38905000e+07
9170.000000 4.33807000e+07
9190.000000 4.29815000e+07
9210.000000 4.13183000e+07
9230.000000 3.64834000e+07
9250.000000 4.07112000e+07
9270.000000 4.12056000e+07
9290.000000 4.13911000e+07
9310.000000 4.09040000e+07
9330.000000 4.06548000e+07
9350.000000 4.04212000e+07
9370.000000 4.01300000e+07
9390.000000 3.98122000e+07
9410.000000 3.93670000e+07
9430.000000 3.91731000e+07
9450.000000 3.88573000e+07
9470.000000 3.83191000e+07
9490.000000 3.81866000e+07
9510.000000 3.74342000e+07
9530.000000 3.60752000e+07
9550.000000 3.22743000e+07
9570.000000 3.62592000e+07
9590.000000 3.66238000e+07
9610.000000 3.62892000e+07
9630.000000 3.58762000e+07
9650.000000 3.59255000e+07
9670.000000 3.56308000e+07
9690.000000 3.53226000e+07
9710.000000 3.49610000e+07
9730.000000 3.48171000e+07
9750.000000 3.45309000e+07
9770.000000 3.42867000e+07
9790.000000 3.40146000e+07
9810.000000 3.37305000e+07
9830.000000 3.34885000e+07
9850.000000 3.32354000e+07
9870.000000 3.29535000e+07
9890.000000 3.26643000e+07
9910.000000 3.22637000e+07
9930.000000 3.22370000e+07
9950.000000 3.19843000e+07
9970.000000 3.17143000e+07
9990.000000 3.14784000e+07
10025.000000 2.99995000e+07
10075.000000 2.89743000e+07
10125.000000 2.98100000e+07
10175.000000 2.93937000e+07
10225.000000 2.88435000e+07
10275.000000 2.83269000e+07
10325.000000 2.77041000e+07
10375.000000 2.73085000e+07
10425.000000 2.68174000e+07
10475.000000 2.63330000e+07
10525.000000 2.58467000e+07
10575.000000 2.53984000e+07
10625.000000 2.49510000e+07
10675.000000 2.44441000e+07
10725.000000 2.40785000e+07
10775.000000 2.36543000e+07
10825.000000 2.29660000e+07
10875.000000 2.28075000e+07
10925.000000 2.08405000e+07
10975.000000 2.17098000e+07
11025.000000 2.15381000e+07
11075.000000 2.13026000e+07
11125.000000 2.09493000e+07
11175.000000 2.05948000e+07
11225.000000 2.02365000e+07
11275.000000 1.98666000e+07
11325.000000 1.95397000e+07
11375.000000 1.92492000e+07
11425.000000 1.89155000e+07
11475.000000 1.86199000e+07
11525.000000 1.83138000e+07
11575.000000 1.79985000e+07
11625.000000 1.77110000e+07
11675.000000 1.74242000e+07
11725.000000 1.71496000e+07
11775.000000 1.68594000e+07
11825.000000 1.66032000e+07
11875.000000 1.63389000e+07
11925.000000 1.60806000e+07
11975.000000 1.56904000e+07
12025.000000 1.55751000e+07
12075.000000 1.53311000e+07
12125.000000 1.50899000e+07
12175.000000 1.48549000e+07
12225.000000 1.46242000e+07
12275.000000 1.43980000e+07
12325.000000 1.41756000e+07
12375.000000 1.39579000e+07
12425.000000 1.37458000e+07
12475.000000 1.35218000e+07
12525.000000 1.32978000e+07
12575.000000 1.31187000e+07
12625.000000 1.29261000e+07
12675.000000 1.27364000e+07
12725.000000 1.25460000e+07
12775.000000 1.21703000e+07
12825.000000 1.13387000e+07
12875.000000 1.19481000e+07
12925.000000 1.18188000e+07
12975.000000 1.15684000e+07
13025.000000 1.14742000e+07
13075.000000 1.13092000e+07
