# Kurucz ODFNEW /NOVER, alpha: 0.0 (2003)
# teff = 32000 K (value for the effective temperature for the model. Temperatures are given in K)
# logg = 4 log(cm/s2) (value for Log(G) for the model.)
# lh = 1.25  (l/Hp where l is the  mixing length of the convective element and Hp is the pressure scale height)
# meta = 0.2  (value for the Metallicity for the model.)
# vtur = 2 km/s (Microturbulence velocity)
# alpha = 0  (Alpha)
#
# column 1: WAVELENGTH (ANGSTROM), Wavelength in Angstrom
# column 2: FLUX (ERG/CM2/S/A), Flux in erg/cm2/s/A
147.200000 6.67157000e-07
151.000000 1.87349000e-06
155.200000 5.52730000e-06
158.800000 1.33563000e-05
162.000000 2.83365000e-05
166.000000 6.97269000e-05
170.300000 1.74660000e-04
173.400000 3.30802000e-04
176.800000 6.49841000e-04
180.200000 1.24045000e-03
181.700000 1.64659000e-03
186.100000 3.62423000e-03
191.000000 8.37828000e-03
193.900000 1.34781000e-02
198.400000 2.75274000e-02
201.800000 4.61170000e-02
205.000000 7.38183000e-02
210.500000 1.60647000e-01
216.200000 3.43190000e-01
219.800000 5.48391000e-01
223.000000 8.17867000e-01
226.800000 1.31538000e+00
230.000000 5.69168000e+02
234.000000 1.20664000e+03
240.000000 1.94258000e+03
246.500000 3.32236000e+03
252.400000 5.50448000e+03
256.800000 7.68755000e+03
260.000000 1.41023000e+04
264.000000 2.52575000e+04
268.500000 3.81578000e+04
273.500000 5.22117000e+04
278.500000 6.50175000e+04
284.000000 1.43217000e+05
290.000000 2.06852000e+05
296.000000 2.72228000e+05
301.000000 4.68204000e+05
308.000000 1.18844000e+06
318.000000 2.64620000e+06
328.000000 3.80462000e+06
338.000000 7.02155000e+06
348.000000 1.09316000e+07
357.000000 2.29929000e+07
366.000000 4.75735000e+07
375.000000 5.56876000e+07
385.000000 8.00936000e+07
395.000000 1.41857000e+08
405.000000 1.75426000e+08
414.000000 2.24878000e+08
422.000000 2.55082000e+08
430.000000 2.90259000e+08
441.000000 3.60340000e+08
451.000000 3.94249000e+08
460.000000 4.09275000e+08
470.000000 4.92306000e+08
480.000000 5.82034000e+08
490.000000 6.15272000e+08
500.000000 7.51937000e+08
506.000000 1.29009000e+09
512.000000 8.83118000e+09
520.000000 8.35743000e+09
530.000000 7.42609000e+09
540.000000 6.81304000e+09
550.000000 7.89438000e+09
560.000000 1.05991000e+10
570.000000 1.15941000e+10
580.000000 1.05931000e+10
590.000000 1.11698000e+10
600.000000 8.26754000e+09
610.000000 1.05861000e+10
620.000000 1.30473000e+10
630.000000 1.24532000e+10
640.000000 1.23302000e+10
650.000000 1.14615000e+10
658.000000 9.29372000e+09
665.000000 1.17749000e+10
675.000000 1.36553000e+10
685.000000 1.01684000e+10
695.000000 1.42339000e+10
705.000000 1.06851000e+10
716.000000 1.53519000e+10
726.000000 1.49005000e+10
735.000000 1.48893000e+10
745.000000 1.38155000e+10
755.000000 1.38987000e+10
765.000000 1.40231000e+10
775.000000 1.47675000e+10
785.000000 1.51107000e+10
795.000000 1.53446000e+10
805.000000 1.44489000e+10
815.000000 1.42723000e+10
825.000000 1.52817000e+10
835.000000 1.18758000e+10
845.000000 1.43970000e+10
855.000000 1.41972000e+10
865.000000 1.46845000e+10
875.000000 1.47661000e+10
885.000000 1.50490000e+10
895.000000 1.51171000e+10
905.000000 1.45798000e+10
915.000000 1.61280000e+10
925.000000 4.54255000e+10
935.000000 6.87807000e+10
945.000000 8.22454000e+10
955.000000 8.70461000e+10
965.000000 9.44468000e+10
975.000000 3.90824000e+10
985.000000 7.38102000e+10
995.000000 6.83804000e+10
1005.000000 7.17484000e+10
1015.000000 7.59109000e+10
1025.000000 6.46227000e+10
1035.000000 7.36490000e+10
1045.000000 8.45172000e+10
1055.000000 7.98527000e+10
1065.000000 6.95715000e+10
1075.000000 7.18463000e+10
1085.000000 6.64639000e+10
1095.000000 6.99024000e+10
1105.000000 6.70170000e+10
1115.000000 6.58081000e+10
1125.000000 5.36478000e+10
1135.000000 6.29742000e+10
1145.000000 6.10485000e+10
1155.000000 5.79260000e+10
1165.000000 5.59421000e+10
1175.000000 3.59859000e+10
1185.000000 5.06437000e+10
1195.000000 4.93697000e+10
1205.000000 4.71812000e+10
1215.000000 3.95378000e+10
1225.000000 4.59946000e+10
1235.000000 4.90269000e+10
1245.000000 4.68765000e+10
1255.000000 4.67831000e+10
1265.000000 4.81298000e+10
1275.000000 4.96559000e+10
1285.000000 4.95454000e+10
1295.000000 4.61436000e+10
1305.000000 4.58395000e+10
1315.000000 4.84434000e+10
1325.000000 4.67000000e+10
1335.000000 4.51173000e+10
1345.000000 4.52194000e+10
1355.000000 4.38999000e+10
1365.000000 4.24381000e+10
1375.000000 4.10121000e+10
1385.000000 3.96560000e+10
1395.000000 3.10207000e+10
1405.000000 3.19472000e+10
1415.000000 3.77082000e+10
1425.000000 3.37876000e+10
1435.000000 3.60735000e+10
1442.000000 3.55230000e+10
1447.000000 3.53607000e+10
1455.000000 3.36027000e+10
1465.000000 3.26558000e+10
1475.000000 3.30561000e+10
1485.000000 3.29968000e+10
1495.000000 3.19011000e+10
1505.000000 3.08798000e+10
1512.000000 3.00508000e+10
1517.000000 3.04030000e+10
1525.000000 2.92571000e+10
1535.000000 2.54044000e+10
1545.000000 2.12163000e+10
1555.000000 2.13711000e+10
1565.000000 2.43752000e+10
1575.000000 2.56916000e+10
1585.000000 2.58468000e+10
1595.000000 2.55978000e+10
1605.000000 2.42195000e+10
1615.000000 2.30741000e+10
1625.000000 2.36570000e+10
1635.000000 2.39505000e+10
1645.000000 2.38816000e+10
1655.000000 2.38469000e+10
1665.000000 2.35396000e+10
1672.000000 2.15857000e+10
1677.000000 2.53861000e+10
1685.000000 2.40191000e+10
1695.000000 2.31150000e+10
1705.000000 2.28926000e+10
1715.000000 2.16760000e+10
1725.000000 2.09418000e+10
1735.000000 2.16622000e+10
1745.000000 2.14146000e+10
1755.000000 2.11028000e+10
1765.000000 2.08486000e+10
1775.000000 2.00332000e+10
1785.000000 2.03450000e+10
1795.000000 1.98734000e+10
1805.000000 1.98238000e+10
1815.000000 1.91725000e+10
1825.000000 1.89166000e+10
1835.000000 1.88654000e+10
1845.000000 1.78336000e+10
1855.000000 1.81554000e+10
1865.000000 1.81464000e+10
1875.000000 1.77497000e+10
1885.000000 1.67826000e+10
1895.000000 1.63920000e+10
1905.000000 1.68525000e+10
1915.000000 1.63729000e+10
1925.000000 1.53238000e+10
1935.000000 1.62666000e+10
1945.000000 1.64324000e+10
1955.000000 1.48798000e+10
1967.000000 1.56131000e+10
1976.000000 1.59614000e+10
1984.000000 1.53544000e+10
1995.000000 1.49413000e+10
2005.000000 1.52097000e+10
2015.000000 1.51574000e+10
2025.000000 1.51532000e+10
2035.000000 1.44507000e+10
2045.000000 1.42800000e+10
2055.000000 1.16908000e+10
2065.000000 1.13225000e+10
2074.000000 1.18892000e+10
2078.000000 1.17274000e+10
2085.000000 1.25431000e+10
2095.000000 1.29352000e+10
2105.000000 1.31527000e+10
2115.000000 1.32712000e+10
2125.000000 1.30573000e+10
2135.000000 1.29361000e+10
2145.000000 1.26561000e+10
2155.000000 1.27044000e+10
2165.000000 1.21951000e+10
2175.000000 1.23723000e+10
2185.000000 1.20249000e+10
2195.000000 1.21979000e+10
2205.000000 1.20038000e+10
2215.000000 1.15993000e+10
2225.000000 1.16140000e+10
2235.000000 1.14198000e+10
2245.000000 1.12532000e+10
2255.000000 1.09410000e+10
2265.000000 1.09768000e+10
2275.000000 1.08718000e+10
2285.000000 1.06030000e+10
2295.000000 9.46647000e+09
2305.000000 1.01375000e+10
2315.000000 1.00846000e+10
2325.000000 1.00475000e+10
2335.000000 9.87527000e+09
2345.000000 9.76176000e+09
2355.000000 9.56152000e+09
2365.000000 9.40944000e+09
2375.000000 9.20480000e+09
2385.000000 8.86418000e+09
2395.000000 8.89146000e+09
2405.000000 8.86522000e+09
2415.000000 8.75513000e+09
2425.000000 8.70165000e+09
2435.000000 8.54010000e+09
2445.000000 8.45085000e+09
2455.000000 8.33714000e+09
2465.000000 8.22252000e+09
2475.000000 8.10885000e+09
2485.000000 7.83935000e+09
2495.000000 5.85777000e+09
2505.000000 7.48293000e+09
2513.000000 7.29457000e+09
2518.000000 7.43913000e+09
2525.000000 7.57344000e+09
2535.000000 7.52084000e+09
2545.000000 7.35832000e+09
2555.000000 7.28006000e+09
2565.000000 7.20337000e+09
2575.000000 7.11457000e+09
2585.000000 7.03088000e+09
2595.000000 6.90743000e+09
2605.000000 6.87504000e+09
2615.000000 6.73276000e+09
2625.000000 6.69030000e+09
2635.000000 6.62280000e+09
2645.000000 6.50820000e+09
2655.000000 6.44163000e+09
2665.000000 6.29206000e+09
2675.000000 6.15403000e+09
2685.000000 6.18718000e+09
2695.000000 6.03761000e+09
2705.000000 5.98636000e+09
2715.000000 5.90350000e+09
2725.000000 5.85873000e+09
2735.000000 5.72078000e+09
2745.000000 5.74167000e+09
2755.000000 5.67127000e+09
2765.000000 5.57760000e+09
2775.000000 5.56438000e+09
2785.000000 5.46426000e+09
2795.000000 5.28828000e+09
2805.000000 5.31480000e+09
2815.000000 5.29232000e+09
2825.000000 5.21715000e+09
2835.000000 5.10870000e+09
2845.000000 5.10682000e+09
2855.000000 5.03044000e+09
2865.000000 4.95270000e+09
2875.000000 4.90235000e+09
2885.000000 4.84942000e+09
2895.000000 4.79350000e+09
2910.000000 4.68059000e+09
2930.000000 4.61120000e+09
2950.000000 4.47919000e+09
2970.000000 4.38277000e+09
2990.000000 4.25312000e+09
3010.000000 4.13288000e+09
3030.000000 4.03480000e+09
3050.000000 3.97727000e+09
3070.000000 3.90755000e+09
3090.000000 3.78746000e+09
3110.000000 3.74396000e+09
3130.000000 3.64616000e+09
3150.000000 3.57977000e+09
3170.000000 3.49280000e+09
3190.000000 3.42248000e+09
3210.000000 3.32969000e+09
3230.000000 3.27097000e+09
3250.000000 3.21885000e+09
3270.000000 3.12382000e+09
3290.000000 3.07249000e+09
3310.000000 3.00525000e+09
3330.000000 2.93379000e+09
3350.000000 2.86204000e+09
3370.000000 2.80896000e+09
3390.000000 2.77208000e+09
3410.000000 2.71277000e+09
3430.000000 2.66204000e+09
3450.000000 2.59297000e+09
3470.000000 2.54990000e+09
3490.000000 2.49815000e+09
3510.000000 2.45205000e+09
3530.000000 2.40887000e+09
3550.000000 2.35849000e+09
3570.000000 2.31534000e+09
3590.000000 2.25983000e+09
3610.000000 2.21333000e+09
3630.000000 2.17351000e+09
3640.000000 2.14791000e+09
3650.000000 2.03874000e+09
3670.000000 2.00656000e+09
3690.000000 1.96769000e+09
3710.000000 1.90758000e+09
3730.000000 1.87115000e+09
3750.000000 1.89408000e+09
3770.000000 1.86974000e+09
3790.000000 1.91566000e+09
3810.000000 1.94735000e+09
3830.000000 1.78250000e+09
3850.000000 1.92771000e+09
3870.000000 1.87179000e+09
3890.000000 1.68457000e+09
3910.000000 1.85813000e+09
3930.000000 1.79763000e+09
3950.000000 1.76337000e+09
3970.000000 1.55218000e+09
3990.000000 1.72078000e+09
4010.000000 1.68953000e+09
4030.000000 1.63015000e+09
4050.000000 1.63485000e+09
4070.000000 1.57390000e+09
4090.000000 1.50166000e+09
4110.000000 1.39288000e+09
4130.000000 1.49882000e+09
4150.000000 1.47975000e+09
4170.000000 1.46936000e+09
4190.000000 1.44296000e+09
4210.000000 1.41519000e+09
4230.000000 1.40003000e+09
4250.000000 1.36407000e+09
4270.000000 1.33384000e+09
4290.000000 1.31279000e+09
4310.000000 1.27908000e+09
4330.000000 1.21861000e+09
4350.000000 1.14135000e+09
4370.000000 1.22124000e+09
4390.000000 1.19805000e+09
4410.000000 1.18322000e+09
4430.000000 1.17483000e+09
4450.000000 1.15326000e+09
4470.000000 1.11843000e+09
4490.000000 1.11888000e+09
4510.000000 1.09334000e+09
4530.000000 1.08162000e+09
4550.000000 1.05786000e+09
4570.000000 1.05041000e+09
4590.000000 1.03010000e+09
4610.000000 1.01205000e+09
4630.000000 9.90446000e+08
4650.000000 9.41959000e+08
4670.000000 9.61063000e+08
4690.000000 9.40261000e+08
4710.000000 9.27656000e+08
4730.000000 9.30049000e+08
4750.000000 9.14236000e+08
4770.000000 9.04979000e+08
4790.000000 8.90607000e+08
4810.000000 8.74961000e+08
4830.000000 8.58896000e+08
4850.000000 8.25754000e+08
4870.000000 7.57449000e+08
4890.000000 8.20382000e+08
4910.000000 8.09165000e+08
4930.000000 7.88043000e+08
4950.000000 7.82979000e+08
4970.000000 7.76705000e+08
4990.000000 7.64924000e+08
5010.000000 7.40728000e+08
5030.000000 7.39599000e+08
5050.000000 7.27563000e+08
5070.000000 7.20970000e+08
5090.000000 7.09920000e+08
5110.000000 6.99195000e+08
5130.000000 6.87813000e+08
5150.000000 6.78134000e+08
5170.000000 6.68627000e+08
5190.000000 6.59861000e+08
5210.000000 6.50822000e+08
5230.000000 6.41584000e+08
5250.000000 6.30596000e+08
5270.000000 6.21437000e+08
5290.000000 6.14795000e+08
5310.000000 6.05950000e+08
5330.000000 5.97658000e+08
5350.000000 5.89381000e+08
5370.000000 5.81224000e+08
5390.000000 5.72691000e+08
5410.000000 5.60626000e+08
5430.000000 5.57615000e+08
5450.000000 5.49839000e+08
5470.000000 5.42162000e+08
5490.000000 5.34769000e+08
5510.000000 5.27494000e+08
5530.000000 5.20285000e+08
5550.000000 5.13766000e+08
5570.000000 5.06501000e+08
5590.000000 4.98808000e+08
5610.000000 4.93462000e+08
5630.000000 4.86908000e+08
5650.000000 4.80139000e+08
5670.000000 4.72832000e+08
5690.000000 4.60775000e+08
5710.000000 4.50412000e+08
5730.000000 4.44979000e+08
5750.000000 4.38470000e+08
5770.000000 4.34055000e+08
5790.000000 4.28342000e+08
5810.000000 4.22240000e+08
5830.000000 4.16854000e+08
5850.000000 4.13546000e+08
5870.000000 4.01320000e+08
5890.000000 4.03464000e+08
5910.000000 3.99983000e+08
5930.000000 3.95661000e+08
5950.000000 3.91707000e+08
5970.000000 3.88717000e+08
5990.000000 3.84026000e+08
6010.000000 3.80254000e+08
6030.000000 3.74979000e+08
6050.000000 3.70559000e+08
6070.000000 3.66250000e+08
6090.000000 3.61878000e+08
6110.000000 3.57171000e+08
6130.000000 3.52920000e+08
6150.000000 3.47899000e+08
6170.000000 3.43717000e+08
6190.000000 3.40192000e+08
6210.000000 3.36256000e+08
6230.000000 3.31916000e+08
6250.000000 3.27838000e+08
6270.000000 3.24082000e+08
6290.000000 3.20320000e+08
6310.000000 3.15833000e+08
6330.000000 3.12731000e+08
6350.000000 3.08774000e+08
6370.000000 3.05427000e+08
6390.000000 3.01746000e+08
6410.000000 2.97739000e+08
6430.000000 2.94751000e+08
6450.000000 2.91060000e+08
6470.000000 2.87095000e+08
6490.000000 2.83951000e+08
6510.000000 2.80600000e+08
6530.000000 2.76525000e+08
6550.000000 2.70193000e+08
6570.000000 2.45579000e+08
6590.000000 2.66585000e+08
6610.000000 2.65043000e+08
6630.000000 2.62264000e+08
6650.000000 2.59147000e+08
6670.000000 2.53996000e+08
6690.000000 2.50796000e+08
6710.000000 2.50073000e+08
6730.000000 2.46884000e+08
6750.000000 2.44580000e+08
6770.000000 2.42208000e+08
6790.000000 2.38855000e+08
6810.000000 2.36820000e+08
6830.000000 2.34167000e+08
6850.000000 2.31622000e+08
6870.000000 2.28942000e+08
6890.000000 2.25591000e+08
6910.000000 2.23530000e+08
6930.000000 2.21684000e+08
6950.000000 2.19248000e+08
6970.000000 2.16875000e+08
6990.000000 2.14495000e+08
7010.000000 2.12000000e+08
7030.000000 2.09362000e+08
7050.000000 2.07380000e+08
7070.000000 2.02674000e+08
7090.000000 2.03166000e+08
7110.000000 2.00497000e+08
7130.000000 1.98455000e+08
7150.000000 1.96749000e+08
7170.000000 1.94209000e+08
7190.000000 1.92416000e+08
7210.000000 1.90560000e+08
7230.000000 1.87122000e+08
7250.000000 1.86306000e+08
7270.000000 1.84612000e+08
7290.000000 1.81545000e+08
7310.000000 1.80694000e+08
7330.000000 1.78847000e+08
7350.000000 1.77017000e+08
7370.000000 1.75191000e+08
7390.000000 1.73402000e+08
7410.000000 1.71596000e+08
7430.000000 1.69854000e+08
7450.000000 1.68041000e+08
7470.000000 1.66028000e+08
7490.000000 1.64243000e+08
7510.000000 1.62942000e+08
7530.000000 1.61274000e+08
7550.000000 1.59733000e+08
7570.000000 1.58075000e+08
7590.000000 1.55856000e+08
7610.000000 1.54667000e+08
7630.000000 1.53295000e+08
7650.000000 1.51799000e+08
7670.000000 1.50362000e+08
7690.000000 1.48593000e+08
7710.000000 1.47221000e+08
7730.000000 1.45590000e+08
7750.000000 1.44451000e+08
7770.000000 1.43047000e+08
7790.000000 1.41668000e+08
7810.000000 1.40239000e+08
7830.000000 1.38903000e+08
7850.000000 1.37493000e+08
7870.000000 1.36034000e+08
7890.000000 1.34686000e+08
7910.000000 1.33554000e+08
7930.000000 1.32234000e+08
7950.000000 1.31057000e+08
7970.000000 1.29706000e+08
7990.000000 1.28527000e+08
8010.000000 1.27263000e+08
8030.000000 1.25970000e+08
8050.000000 1.24874000e+08
8070.000000 1.23683000e+08
8090.000000 1.22439000e+08
8110.000000 1.20839000e+08
8130.000000 1.20240000e+08
8150.000000 1.18981000e+08
8170.000000 1.17970000e+08
8190.000000 1.16457000e+08
8210.000000 1.14359000e+08
8230.000000 1.13008000e+08
8250.000000 1.12439000e+08
8270.000000 1.10860000e+08
8290.000000 1.10353000e+08
8310.000000 1.09452000e+08
8330.000000 1.08243000e+08
8350.000000 1.06909000e+08
8370.000000 1.06264000e+08
8390.000000 1.05512000e+08
8410.000000 1.04505000e+08
8430.000000 1.03580000e+08
8450.000000 1.02267000e+08
8470.000000 1.01685000e+08
8490.000000 1.00757000e+08
8510.000000 9.93322000e+07
8530.000000 9.90792000e+07
8550.000000 9.74155000e+07
8570.000000 9.79513000e+07
8590.000000 9.52901000e+07
8610.000000 9.47921000e+07
8630.000000 9.59516000e+07
8650.000000 9.40131000e+07
8670.000000 9.00014000e+07
8690.000000 9.35537000e+07
8710.000000 9.33480000e+07
8730.000000 9.14329000e+07
8750.000000 8.53223000e+07
8770.000000 8.91852000e+07
8790.000000 9.04912000e+07
8810.000000 8.99012000e+07
8830.000000 8.88470000e+07
8850.000000 8.51606000e+07
8870.000000 8.03000000e+07
8890.000000 8.61645000e+07
8910.000000 8.60913000e+07
8930.000000 8.54085000e+07
8950.000000 8.47826000e+07
8970.000000 8.39836000e+07
8990.000000 8.23191000e+07
9010.000000 7.55685000e+07
9030.000000 7.82742000e+07
9050.000000 8.08955000e+07
9070.000000 8.00170000e+07
9090.000000 7.97383000e+07
9110.000000 7.92841000e+07
9130.000000 7.86389000e+07
9150.000000 7.80075000e+07
9170.000000 7.71658000e+07
9190.000000 7.64065000e+07
9210.000000 7.40587000e+07
9230.000000 6.72686000e+07
9250.000000 7.29000000e+07
9270.000000 7.38177000e+07
9290.000000 7.34260000e+07
9310.000000 7.26632000e+07
9330.000000 7.21616000e+07
9350.000000 7.12714000e+07
9370.000000 7.10190000e+07
9390.000000 7.05074000e+07
9410.000000 6.98464000e+07
9430.000000 6.93090000e+07
9450.000000 6.87459000e+07
9470.000000 6.79644000e+07
9490.000000 6.75778000e+07
9510.000000 6.64149000e+07
9530.000000 6.44648000e+07
9550.000000 5.88334000e+07
9570.000000 6.43590000e+07
9590.000000 6.47749000e+07
9610.000000 6.42485000e+07
9630.000000 6.36163000e+07
9650.000000 6.34298000e+07
9670.000000 6.29461000e+07
9690.000000 6.24057000e+07
9710.000000 6.07743000e+07
9730.000000 6.12689000e+07
9750.000000 6.09504000e+07
9770.000000 6.04485000e+07
9790.000000 5.99856000e+07
9810.000000 5.94868000e+07
9830.000000 5.90423000e+07
9850.000000 5.85620000e+07
9870.000000 5.80890000e+07
9890.000000 5.75693000e+07
9910.000000 5.69651000e+07
9930.000000 5.67664000e+07
9950.000000 5.63253000e+07
9970.000000 5.58494000e+07
9990.000000 5.54411000e+07
10025.000000 5.31279000e+07
10075.000000 5.14847000e+07
10125.000000 5.21682000e+07
10175.000000 5.16421000e+07
10225.000000 5.06375000e+07
10275.000000 4.96962000e+07
10325.000000 4.86224000e+07
10375.000000 4.78714000e+07
10425.000000 4.69627000e+07
10475.000000 4.61171000e+07
10525.000000 4.52549000e+07
10575.000000 4.44372000e+07
10625.000000 4.36262000e+07
10675.000000 4.27887000e+07
10725.000000 4.20631000e+07
10775.000000 4.13037000e+07
10825.000000 4.02125000e+07
10875.000000 3.97863000e+07
10925.000000 3.68442000e+07
10975.000000 3.79230000e+07
11025.000000 3.76232000e+07
11075.000000 3.70938000e+07
11125.000000 3.64537000e+07
11175.000000 3.58326000e+07
11225.000000 3.51971000e+07
11275.000000 3.46011000e+07
11325.000000 3.39820000e+07
11375.000000 3.34190000e+07
11425.000000 3.28471000e+07
11475.000000 3.23012000e+07
11525.000000 3.17662000e+07
11575.000000 3.12168000e+07
11625.000000 3.06311000e+07
11675.000000 3.01343000e+07
11725.000000 2.96998000e+07
11775.000000 2.92062000e+07
11825.000000 2.87173000e+07
11875.000000 2.82542000e+07
11925.000000 2.77926000e+07
11975.000000 2.71118000e+07
12025.000000 2.69024000e+07
12075.000000 2.64682000e+07
12125.000000 2.60326000e+07
12175.000000 2.56286000e+07
12225.000000 2.52202000e+07
12275.000000 2.48222000e+07
12325.000000 2.44255000e+07
12375.000000 2.40425000e+07
12425.000000 2.36693000e+07
12475.000000 2.32941000e+07
12525.000000 2.28892000e+07
12575.000000 2.25708000e+07
12625.000000 2.22267000e+07
12675.000000 2.18918000e+07
12725.000000 2.15551000e+07
12775.000000 2.09654000e+07
12825.000000 1.96818000e+07
12875.000000 2.05242000e+07
12925.000000 2.02771000e+07
12975.000000 1.98747000e+07
13025.000000 1.96611000e+07
13075.000000 1.93813000e+07
