# Kurucz ODFNEW /NOVER, alpha: 0.0 (2003)
# teff = 24000 K (value for the effective temperature for the model. Temperatures are given in K)
# logg = 4 log(cm/s2) (value for Log(G) for the model.)
# lh = 1.25  (l/Hp where l is the  mixing length of the convective element and Hp is the pressure scale height)
# meta = -2  (value for the Metallicity for the model.)
# vtur = 2 km/s (Microturbulence velocity)
# alpha = 0  (Alpha)
#
# column 1: WAVELENGTH (ANGSTROM), Wavelength in Angstrom
# column 2: FLUX (ERG/CM2/S/A), Flux in erg/cm2/s/A
147.200000 4.81573000e-15
151.000000 2.52150000e-14
155.200000 1.42901000e-13
158.800000 5.87291000e-13
162.000000 1.95499000e-12
166.000000 8.21447000e-12
170.300000 3.55997000e-11
173.400000 9.78298000e-11
176.800000 2.84286000e-10
180.200000 7.92637000e-10
181.700000 1.23055000e-09
186.100000 4.28342000e-09
191.000000 1.59982000e-08
193.900000 3.37769000e-08
198.400000 1.02962000e-07
201.800000 2.30941000e-07
205.000000 4.81532000e-07
210.500000 1.61268000e-06
216.200000 5.26362000e-06
219.800000 1.07485000e-05
223.000000 1.98656000e-05
226.800000 4.02347000e-05
230.000000 2.13988000e-04
234.000000 4.83385000e-04
240.000000 1.23425000e-03
246.500000 3.23333000e-03
252.400000 7.47891000e-03
256.800000 1.31100000e-02
260.000000 2.05050000e-02
264.000000 3.40222000e-02
268.500000 5.89611000e-02
273.500000 1.06201000e-01
278.500000 1.87422000e-01
284.000000 3.41577000e-01
290.000000 6.39275000e-01
296.000000 1.16361000e+00
301.000000 1.87847000e+00
308.000000 3.50122000e+00
318.000000 8.56921000e+00
328.000000 1.93131000e+01
338.000000 4.14177000e+01
348.000000 8.47193000e+01
357.000000 1.55493000e+02
366.000000 2.76782000e+02
375.000000 4.76775000e+02
385.000000 8.46456000e+02
395.000000 1.45421000e+03
405.000000 2.42747000e+03
414.000000 3.76409000e+03
422.000000 5.45725000e+03
430.000000 7.78540000e+03
441.000000 1.24414000e+04
451.000000 1.86215000e+04
460.000000 2.63052000e+04
470.000000 3.79782000e+04
480.000000 5.38703000e+04
490.000000 7.52329000e+04
500.000000 1.03459000e+05
506.000000 6.42322000e+05
512.000000 1.92731000e+06
520.000000 2.34369000e+06
530.000000 3.13588000e+06
540.000000 3.39418000e+06
550.000000 4.62636000e+06
560.000000 5.41993000e+06
570.000000 6.48058000e+06
580.000000 6.54383000e+06
590.000000 8.40601000e+06
600.000000 1.00966000e+07
610.000000 1.17220000e+07
620.000000 1.33100000e+07
630.000000 1.52305000e+07
640.000000 1.69068000e+07
650.000000 1.92163000e+07
658.000000 2.13562000e+07
665.000000 2.30659000e+07
675.000000 2.52459000e+07
685.000000 2.78927000e+07
695.000000 3.18004000e+07
705.000000 3.47953000e+07
716.000000 3.87358000e+07
726.000000 4.23234000e+07
735.000000 4.61608000e+07
745.000000 5.06376000e+07
755.000000 5.51607000e+07
765.000000 5.97456000e+07
775.000000 6.49119000e+07
785.000000 7.01891000e+07
795.000000 7.53429000e+07
805.000000 8.10111000e+07
815.000000 8.65957000e+07
825.000000 9.30331000e+07
835.000000 9.78154000e+07
845.000000 1.05338000e+08
855.000000 1.11624000e+08
865.000000 1.19128000e+08
875.000000 1.26803000e+08
885.000000 1.34424000e+08
895.000000 1.41953000e+08
905.000000 1.48107000e+08
915.000000 2.35930000e+08
925.000000 1.82420000e+09
935.000000 5.60079000e+09
945.000000 1.57741000e+10
955.000000 2.10835000e+10
965.000000 2.72458000e+10
975.000000 1.08403000e+10
985.000000 2.94701000e+10
995.000000 2.82159000e+10
1005.000000 2.92823000e+10
1015.000000 2.66875000e+10
1025.000000 9.64965000e+09
1035.000000 2.38584000e+10
1045.000000 2.86736000e+10
1055.000000 2.78499000e+10
1065.000000 2.55966000e+10
1075.000000 2.64422000e+10
1085.000000 2.44962000e+10
1095.000000 2.57842000e+10
1105.000000 2.46696000e+10
1115.000000 2.43303000e+10
1125.000000 2.28423000e+10
1135.000000 2.34315000e+10
1145.000000 2.22301000e+10
1155.000000 2.25378000e+10
1165.000000 2.21623000e+10
1175.000000 1.92359000e+10
1185.000000 2.10505000e+10
1195.000000 1.97481000e+10
1205.000000 1.71757000e+10
1215.000000 6.58232000e+09
1225.000000 1.69874000e+10
1235.000000 1.87984000e+10
1245.000000 1.85047000e+10
1255.000000 1.82463000e+10
1265.000000 1.78119000e+10
1275.000000 1.77500000e+10
1285.000000 1.73788000e+10
1295.000000 1.60727000e+10
1305.000000 1.61044000e+10
1315.000000 1.63391000e+10
1325.000000 1.57799000e+10
1335.000000 1.51525000e+10
1345.000000 1.52683000e+10
1355.000000 1.51221000e+10
1365.000000 1.46889000e+10
1375.000000 1.44182000e+10
1385.000000 1.41748000e+10
1395.000000 1.34291000e+10
1405.000000 1.33468000e+10
1415.000000 1.33058000e+10
1425.000000 1.30726000e+10
1435.000000 1.28881000e+10
1442.000000 1.27814000e+10
1447.000000 1.26387000e+10
1455.000000 1.24355000e+10
1465.000000 1.21615000e+10
1475.000000 1.19488000e+10
1485.000000 1.17186000e+10
1495.000000 1.15008000e+10
1505.000000 1.11644000e+10
1512.000000 1.09757000e+10
1517.000000 1.09329000e+10
1525.000000 1.07628000e+10
1535.000000 1.03172000e+10
1545.000000 1.02251000e+10
1555.000000 9.93773000e+09
1565.000000 9.97695000e+09
1575.000000 9.87937000e+09
1585.000000 9.71626000e+09
1595.000000 9.56963000e+09
1605.000000 9.26400000e+09
1615.000000 9.10009000e+09
1625.000000 9.04008000e+09
1635.000000 8.93590000e+09
1645.000000 8.65996000e+09
1655.000000 8.63980000e+09
1665.000000 8.52750000e+09
1672.000000 8.35909000e+09
1677.000000 8.40215000e+09
1685.000000 8.27187000e+09
1695.000000 8.09430000e+09
1705.000000 7.92745000e+09
1715.000000 7.74318000e+09
1725.000000 7.64125000e+09
1735.000000 7.55405000e+09
1745.000000 7.41724000e+09
1755.000000 7.34262000e+09
1765.000000 7.09760000e+09
1775.000000 7.03854000e+09
1785.000000 6.97397000e+09
1795.000000 6.88911000e+09
1805.000000 6.80640000e+09
1815.000000 6.64698000e+09
1825.000000 6.56495000e+09
1835.000000 6.45947000e+09
1845.000000 6.22374000e+09
1855.000000 6.07054000e+09
1865.000000 6.05122000e+09
1875.000000 6.04707000e+09
1885.000000 5.79350000e+09
1895.000000 5.61618000e+09
1905.000000 5.69803000e+09
1915.000000 5.51284000e+09
1925.000000 5.41179000e+09
1935.000000 5.42220000e+09
1945.000000 5.40712000e+09
1955.000000 5.17482000e+09
1967.000000 5.22171000e+09
1976.000000 5.22394000e+09
1984.000000 5.07403000e+09
1995.000000 4.92585000e+09
2005.000000 4.95818000e+09
2015.000000 4.93024000e+09
2025.000000 4.88966000e+09
2035.000000 4.76558000e+09
2045.000000 4.69810000e+09
2055.000000 4.56819000e+09
2065.000000 4.51680000e+09
2074.000000 4.55467000e+09
2078.000000 4.44459000e+09
2085.000000 4.43975000e+09
2095.000000 4.34005000e+09
2105.000000 4.34057000e+09
2115.000000 4.30055000e+09
2125.000000 4.26509000e+09
2135.000000 4.19936000e+09
2145.000000 4.12329000e+09
2155.000000 4.08632000e+09
2165.000000 4.03564000e+09
2175.000000 3.97640000e+09
2185.000000 3.92762000e+09
2195.000000 3.88089000e+09
2205.000000 3.82810000e+09
2215.000000 3.77826000e+09
2225.000000 3.72451000e+09
2235.000000 3.67383000e+09
2245.000000 3.63258000e+09
2255.000000 3.58058000e+09
2265.000000 3.53919000e+09
2275.000000 3.49337000e+09
2285.000000 3.45067000e+09
2295.000000 3.37159000e+09
2305.000000 3.36105000e+09
2315.000000 3.31493000e+09
2325.000000 3.27414000e+09
2335.000000 3.22777000e+09
2345.000000 3.18968000e+09
2355.000000 3.15382000e+09
2365.000000 3.11299000e+09
2375.000000 3.07368000e+09
2385.000000 3.03352000e+09
2395.000000 2.99655000e+09
2405.000000 2.96022000e+09
2415.000000 2.92206000e+09
2425.000000 2.89071000e+09
2435.000000 2.85291000e+09
2445.000000 2.81935000e+09
2455.000000 2.78705000e+09
2465.000000 2.75221000e+09
2475.000000 2.71919000e+09
2485.000000 2.68606000e+09
2495.000000 2.61797000e+09
2505.000000 2.62107000e+09
2513.000000 2.58144000e+09
2518.000000 2.58082000e+09
2525.000000 2.55962000e+09
2535.000000 2.52891000e+09
2545.000000 2.49227000e+09
2555.000000 2.46997000e+09
2565.000000 2.44118000e+09
2575.000000 2.41448000e+09
2585.000000 2.38653000e+09
2595.000000 2.35877000e+09
2605.000000 2.34903000e+09
2615.000000 2.32267000e+09
2625.000000 2.29554000e+09
2635.000000 2.26459000e+09
2645.000000 2.23964000e+09
2655.000000 2.21099000e+09
2665.000000 2.18132000e+09
2675.000000 2.15551000e+09
2685.000000 2.14576000e+09
2695.000000 2.10388000e+09
2705.000000 2.09731000e+09
2715.000000 2.07381000e+09
2725.000000 2.03356000e+09
2735.000000 2.02783000e+09
2745.000000 2.00233000e+09
2755.000000 1.98142000e+09
2765.000000 1.94376000e+09
2775.000000 1.94029000e+09
2785.000000 1.91861000e+09
2795.000000 1.88258000e+09
2805.000000 1.87205000e+09
2815.000000 1.85707000e+09
2825.000000 1.81699000e+09
2835.000000 1.80204000e+09
2845.000000 1.79744000e+09
2855.000000 1.77808000e+09
2865.000000 1.75940000e+09
2875.000000 1.74057000e+09
2885.000000 1.72224000e+09
2895.000000 1.70389000e+09
2910.000000 1.67684000e+09
2930.000000 1.64161000e+09
2950.000000 1.59588000e+09
2970.000000 1.57459000e+09
2990.000000 1.54192000e+09
3010.000000 1.51035000e+09
3030.000000 1.48030000e+09
3050.000000 1.45046000e+09
3070.000000 1.42135000e+09
3090.000000 1.39212000e+09
3110.000000 1.36528000e+09
3130.000000 1.33981000e+09
3150.000000 1.31347000e+09
3170.000000 1.28728000e+09
3190.000000 1.25146000e+09
3210.000000 1.23763000e+09
3230.000000 1.21358000e+09
3250.000000 1.19016000e+09
3270.000000 1.16899000e+09
3290.000000 1.14507000e+09
3310.000000 1.12540000e+09
3330.000000 1.10434000e+09
3350.000000 1.08160000e+09
3370.000000 1.06369000e+09
3390.000000 1.04409000e+09
3410.000000 1.02498000e+09
3430.000000 1.00109000e+09
3450.000000 9.79101000e+08
3470.000000 9.64562000e+08
3490.000000 9.47198000e+08
3510.000000 9.33774000e+08
3530.000000 9.19111000e+08
3550.000000 9.03284000e+08
3570.000000 8.92186000e+08
3590.000000 8.71048000e+08
3610.000000 8.57724000e+08
3630.000000 8.41065000e+08
3640.000000 8.39521000e+08
3650.000000 8.23983000e+08
3670.000000 8.13489000e+08
3690.000000 7.95011000e+08
3710.000000 7.68671000e+08
3730.000000 7.40765000e+08
3750.000000 7.86919000e+08
3770.000000 7.90573000e+08
3790.000000 8.33420000e+08
3810.000000 8.70214000e+08
3830.000000 7.57522000e+08
3850.000000 8.94213000e+08
3870.000000 8.99282000e+08
3890.000000 7.18052000e+08
3910.000000 8.84081000e+08
3930.000000 8.70813000e+08
3950.000000 8.55522000e+08
3970.000000 6.67103000e+08
3990.000000 8.21085000e+08
4010.000000 8.14860000e+08
4030.000000 7.68193000e+08
4050.000000 7.96133000e+08
4070.000000 7.79276000e+08
4090.000000 7.19110000e+08
4110.000000 6.26288000e+08
4130.000000 7.31112000e+08
4150.000000 7.24432000e+08
4170.000000 7.18019000e+08
4190.000000 7.08241000e+08
4210.000000 6.96682000e+08
4230.000000 6.85120000e+08
4250.000000 6.73723000e+08
4270.000000 6.61269000e+08
4290.000000 6.51392000e+08
4310.000000 6.37431000e+08
4330.000000 5.78228000e+08
4350.000000 5.26436000e+08
4370.000000 6.05785000e+08
4390.000000 5.83779000e+08
4410.000000 5.91242000e+08
4430.000000 5.79485000e+08
4450.000000 5.73108000e+08
4470.000000 5.39295000e+08
4490.000000 5.54757000e+08
4510.000000 5.46737000e+08
4530.000000 5.38211000e+08
4550.000000 5.29814000e+08
4570.000000 5.21597000e+08
4590.000000 5.13664000e+08
4610.000000 5.05831000e+08
4630.000000 4.98114000e+08
4650.000000 4.90075000e+08
4670.000000 4.83140000e+08
4690.000000 4.75791000e+08
4710.000000 4.62656000e+08
4730.000000 4.61615000e+08
4750.000000 4.54546000e+08
4770.000000 4.48276000e+08
4790.000000 4.41634000e+08
4810.000000 4.34615000e+08
4830.000000 4.25984000e+08
4850.000000 3.93442000e+08
4870.000000 3.50824000e+08
4890.000000 4.06315000e+08
4910.000000 4.03059000e+08
4930.000000 3.88682000e+08
4950.000000 3.92850000e+08
4970.000000 3.87300000e+08
4990.000000 3.81796000e+08
5010.000000 3.71565000e+08
5030.000000 3.71058000e+08
5050.000000 3.63486000e+08
5070.000000 3.60727000e+08
5090.000000 3.55687000e+08
5110.000000 3.50744000e+08
5130.000000 3.45839000e+08
5150.000000 3.41056000e+08
5170.000000 3.36392000e+08
5190.000000 3.31777000e+08
5210.000000 3.27208000e+08
5230.000000 3.22782000e+08
5250.000000 3.18387000e+08
5270.000000 3.14076000e+08
5290.000000 3.09848000e+08
5310.000000 3.05674000e+08
5330.000000 3.01581000e+08
5350.000000 2.97540000e+08
5370.000000 2.93604000e+08
5390.000000 2.89704000e+08
5410.000000 2.85880000e+08
5430.000000 2.82104000e+08
5450.000000 2.78401000e+08
5470.000000 2.74757000e+08
5490.000000 2.71184000e+08
5510.000000 2.67656000e+08
5530.000000 2.64183000e+08
5550.000000 2.60778000e+08
5570.000000 2.57415000e+08
5590.000000 2.54118000e+08
5610.000000 2.50861000e+08
5630.000000 2.47667000e+08
5650.000000 2.44501000e+08
5670.000000 2.41396000e+08
5690.000000 2.38318000e+08
5710.000000 2.35380000e+08
5730.000000 2.32432000e+08
5750.000000 2.29507000e+08
5770.000000 2.26663000e+08
5790.000000 2.23852000e+08
5810.000000 2.21086000e+08
5830.000000 2.18353000e+08
5850.000000 2.15662000e+08
5870.000000 2.06509000e+08
5890.000000 2.10137000e+08
5910.000000 2.07854000e+08
5930.000000 2.05319000e+08
5950.000000 2.02834000e+08
5970.000000 2.00389000e+08
5990.000000 1.97971000e+08
6010.000000 1.95603000e+08
6030.000000 1.93261000e+08
6050.000000 1.90956000e+08
6070.000000 1.88687000e+08
6090.000000 1.86455000e+08
6110.000000 1.84247000e+08
6130.000000 1.82084000e+08
6150.000000 1.79936000e+08
6170.000000 1.77831000e+08
6190.000000 1.75759000e+08
6210.000000 1.73711000e+08
6230.000000 1.71695000e+08
6250.000000 1.69710000e+08
6270.000000 1.67748000e+08
6290.000000 1.65816000e+08
6310.000000 1.63915000e+08
6330.000000 1.62044000e+08
6350.000000 1.60175000e+08
6370.000000 1.58363000e+08
6390.000000 1.56570000e+08
6410.000000 1.54806000e+08
6430.000000 1.53061000e+08
6450.000000 1.51335000e+08
6470.000000 1.49627000e+08
6490.000000 1.47954000e+08
6510.000000 1.46256000e+08
6530.000000 1.44045000e+08
6550.000000 1.37757000e+08
6570.000000 1.22301000e+08
6590.000000 1.38484000e+08
6610.000000 1.38156000e+08
6630.000000 1.36887000e+08
6650.000000 1.35494000e+08
6670.000000 1.32642000e+08
6690.000000 1.31227000e+08
6710.000000 1.31124000e+08
6730.000000 1.29705000e+08
6750.000000 1.28309000e+08
6770.000000 1.26928000e+08
6790.000000 1.25552000e+08
6810.000000 1.24222000e+08
6830.000000 1.22898000e+08
6850.000000 1.21596000e+08
6870.000000 1.20306000e+08
6890.000000 1.19029000e+08
6910.000000 1.17773000e+08
6930.000000 1.16537000e+08
6950.000000 1.15314000e+08
6970.000000 1.14110000e+08
6990.000000 1.12911000e+08
7010.000000 1.11746000e+08
7030.000000 1.10585000e+08
7050.000000 1.09436000e+08
7070.000000 1.06503000e+08
7090.000000 1.07192000e+08
7110.000000 1.06091000e+08
7130.000000 1.05008000e+08
7150.000000 1.03935000e+08
7170.000000 1.02850000e+08
7190.000000 1.01827000e+08
7210.000000 1.00791000e+08
7230.000000 9.96508000e+07
7250.000000 9.87649000e+07
7270.000000 9.77732000e+07
7290.000000 9.59686000e+07
7310.000000 9.58037000e+07
7330.000000 9.48679000e+07
7350.000000 9.39200000e+07
7370.000000 9.29878000e+07
7390.000000 9.20644000e+07
7410.000000 9.11564000e+07
7430.000000 9.02569000e+07
7450.000000 8.93861000e+07
7470.000000 8.85030000e+07
7490.000000 8.76415000e+07
7510.000000 8.67478000e+07
7530.000000 8.59355000e+07
7550.000000 8.51041000e+07
7570.000000 8.42802000e+07
7590.000000 8.34639000e+07
7610.000000 8.26550000e+07
7630.000000 8.18599000e+07
7650.000000 8.10783000e+07
7670.000000 8.03038000e+07
7690.000000 7.95363000e+07
7710.000000 7.87756000e+07
7730.000000 7.80281000e+07
7750.000000 7.72809000e+07
7770.000000 7.65466000e+07
7790.000000 7.58312000e+07
7810.000000 7.50604000e+07
7830.000000 7.44132000e+07
7850.000000 7.38022000e+07
7870.000000 7.31113000e+07
7890.000000 7.23720000e+07
7910.000000 7.17596000e+07
7930.000000 7.10686000e+07
7950.000000 7.02763000e+07
7970.000000 6.95682000e+07
7990.000000 6.89489000e+07
8010.000000 6.82938000e+07
8030.000000 6.76678000e+07
8050.000000 6.70587000e+07
8070.000000 6.65069000e+07
8090.000000 6.57641000e+07
8110.000000 6.52797000e+07
8130.000000 6.47481000e+07
8150.000000 6.40620000e+07
8170.000000 6.36076000e+07
8190.000000 6.29435000e+07
8210.000000 6.21789000e+07
8230.000000 6.18215000e+07
8250.000000 6.12896000e+07
8270.000000 6.04041000e+07
8290.000000 6.01350000e+07
8310.000000 5.96276000e+07
8330.000000 5.90756000e+07
8350.000000 5.82364000e+07
8370.000000 5.79208000e+07
8390.000000 5.75005000e+07
8410.000000 5.69823000e+07
8430.000000 5.64048000e+07
8450.000000 5.55261000e+07
8470.000000 5.53114000e+07
8490.000000 5.48264000e+07
8510.000000 5.41476000e+07
8530.000000 5.39613000e+07
8550.000000 5.25445000e+07
8570.000000 5.37511000e+07
8590.000000 5.13313000e+07
8610.000000 5.11744000e+07
8630.000000 5.29102000e+07
8650.000000 5.12309000e+07
8670.000000 4.77707000e+07
8690.000000 5.16184000e+07
8710.000000 5.19378000e+07
8730.000000 5.01776000e+07
8750.000000 4.51549000e+07
8770.000000 4.86350000e+07
8790.000000 5.04506000e+07
8810.000000 5.01975000e+07
8830.000000 4.95452000e+07
8850.000000 4.61989000e+07
8870.000000 4.27103000e+07
8890.000000 4.77203000e+07
8910.000000 4.81470000e+07
8930.000000 4.78182000e+07
8950.000000 4.75812000e+07
8970.000000 4.70743000e+07
8990.000000 4.56321000e+07
9010.000000 4.04503000e+07
9030.000000 4.25532000e+07
9050.000000 4.51643000e+07
9070.000000 4.47574000e+07
9090.000000 4.47631000e+07
9110.000000 4.46385000e+07
9130.000000 4.43193000e+07
9150.000000 4.39202000e+07
9170.000000 4.33336000e+07
9190.000000 4.28856000e+07
9210.000000 4.08462000e+07
9230.000000 3.60695000e+07
9250.000000 4.02678000e+07
9270.000000 4.14445000e+07
9290.000000 4.13689000e+07
9310.000000 4.09179000e+07
9330.000000 4.08370000e+07
9350.000000 4.04720000e+07
9370.000000 4.01866000e+07
9390.000000 3.98643000e+07
9410.000000 3.95423000e+07
9430.000000 3.92295000e+07
9450.000000 3.89164000e+07
9470.000000 3.82808000e+07
9490.000000 3.81669000e+07
9510.000000 3.73068000e+07
9530.000000 3.55558000e+07
9550.000000 3.17431000e+07
9570.000000 3.58240000e+07
9590.000000 3.65149000e+07
9610.000000 3.62945000e+07
9630.000000 3.59940000e+07
9650.000000 3.59550000e+07
9670.000000 3.56751000e+07
9690.000000 3.53563000e+07
9710.000000 3.50030000e+07
9730.000000 3.48505000e+07
9750.000000 3.45808000e+07
9770.000000 3.43135000e+07
9790.000000 3.40492000e+07
9810.000000 3.37872000e+07
9830.000000 3.35279000e+07
9850.000000 3.32711000e+07
9870.000000 3.30165000e+07
9890.000000 3.27645000e+07
9910.000000 3.25039000e+07
9930.000000 3.22676000e+07
9950.000000 3.20223000e+07
9970.000000 3.17678000e+07
9990.000000 3.14403000e+07
10025.000000 2.97416000e+07
10075.000000 2.87594000e+07
10125.000000 2.98490000e+07
10175.000000 2.94217000e+07
10225.000000 2.88651000e+07
10275.000000 2.83515000e+07
10325.000000 2.77203000e+07
10375.000000 2.73292000e+07
10425.000000 2.68351000e+07
10475.000000 2.63522000e+07
10525.000000 2.58803000e+07
10575.000000 2.54189000e+07
10625.000000 2.49680000e+07
10675.000000 2.44715000e+07
10725.000000 2.40952000e+07
10775.000000 2.36731000e+07
10825.000000 2.29933000e+07
10875.000000 2.27712000e+07
10925.000000 2.06413000e+07
10975.000000 2.15571000e+07
11025.000000 2.15173000e+07
11075.000000 2.13084000e+07
11125.000000 2.09642000e+07
11175.000000 2.06096000e+07
11225.000000 2.02494000e+07
11275.000000 1.99220000e+07
11325.000000 1.95894000e+07
11375.000000 1.92638000e+07
11425.000000 1.89446000e+07
11475.000000 1.86320000e+07
11525.000000 1.83260000e+07
11575.000000 1.80260000e+07
11625.000000 1.77325000e+07
11675.000000 1.74446000e+07
11725.000000 1.71627000e+07
11775.000000 1.68866000e+07
11825.000000 1.66158000e+07
11875.000000 1.63506000e+07
11925.000000 1.60906000e+07
11975.000000 1.56741000e+07
12025.000000 1.55860000e+07
12075.000000 1.53412000e+07
12125.000000 1.51011000e+07
12175.000000 1.48655000e+07
12225.000000 1.46348000e+07
12275.000000 1.44085000e+07
12325.000000 1.41865000e+07
12375.000000 1.39687000e+07
12425.000000 1.37550000e+07
12475.000000 1.35455000e+07
12525.000000 1.33103000e+07
12575.000000 1.31384000e+07
12625.000000 1.29405000e+07
12675.000000 1.27464000e+07
12725.000000 1.25476000e+07
12775.000000 1.21398000e+07
12825.000000 1.12192000e+07
12875.000000 1.19174000e+07
12925.000000 1.18242000e+07
12975.000000 1.15672000e+07
13025.000000 1.14850000e+07
13075.000000 1.13178000e+07
