# Kurucz ODFNEW /NOVER, alpha: 0.0 (2003)
# teff = 21000 K (value for the effective temperature for the model. Temperatures are given in K)
# logg = 3.5 log(cm/s2) (value for Log(G) for the model.)
# lh = 1.25  (l/Hp where l is the  mixing length of the convective element and Hp is the pressure scale height)
# meta = -1.5  (value for the Metallicity for the model.)
# vtur = 2 km/s (Microturbulence velocity)
# alpha = 0  (Alpha)
#
# column 1: WAVELENGTH (ANGSTROM), Wavelength in Angstrom
# column 2: FLUX (ERG/CM2/S/A), Flux in erg/cm2/s/A
147.200000 9.21975000e-19
151.000000 5.79659000e-18
155.200000 3.99704000e-17
158.800000 1.93374000e-16
162.000000 7.41257000e-16
166.000000 3.69935000e-15
170.300000 1.91715000e-14
173.400000 5.96752000e-14
176.800000 1.97993000e-13
180.200000 6.27800000e-13
181.700000 1.03027000e-12
186.100000 4.20466000e-12
191.000000 1.86284000e-11
193.900000 4.33662000e-11
198.400000 1.53056000e-10
201.800000 3.81963000e-10
205.000000 8.77975000e-10
210.500000 3.45397000e-09
216.200000 1.32340000e-08
219.800000 2.97862000e-08
223.000000 5.98772000e-08
226.800000 1.33588000e-07
230.000000 6.73078000e-07
234.000000 1.63204000e-06
240.000000 4.79140000e-06
246.500000 1.44771000e-05
252.400000 3.78434000e-05
256.800000 7.34250000e-05
260.000000 1.20944000e-04
264.000000 2.16824000e-04
268.500000 4.08751000e-04
273.500000 8.06016000e-04
278.500000 1.55248000e-03
284.000000 3.10460000e-03
290.000000 6.40440000e-03
296.000000 1.27996000e-02
301.000000 2.23129000e-02
308.000000 4.64319000e-02
318.000000 1.28989000e-01
328.000000 3.30657000e-01
338.000000 8.00918000e-01
348.000000 1.83714000e+00
357.000000 3.71944000e+00
366.000000 7.26595000e+00
375.000000 1.36753000e+01
385.000000 2.66513000e+01
395.000000 5.00342000e+01
405.000000 9.08813000e+01
414.000000 1.51504000e+02
422.000000 2.33674000e+02
430.000000 3.53787000e+02
441.000000 6.11427000e+02
451.000000 9.79232000e+02
460.000000 1.46679000e+03
470.000000 2.25390000e+03
480.000000 3.39351000e+03
490.000000 5.01877000e+03
500.000000 7.29152000e+03
506.000000 5.24743000e+04
512.000000 1.58125000e+05
520.000000 2.02241000e+05
530.000000 2.91298000e+05
540.000000 3.26357000e+05
550.000000 4.81691000e+05
560.000000 5.91751000e+05
570.000000 7.43649000e+05
580.000000 7.58342000e+05
590.000000 1.02841000e+06
600.000000 1.31510000e+06
610.000000 1.59794000e+06
620.000000 1.87943000e+06
630.000000 2.23276000e+06
640.000000 2.54826000e+06
650.000000 2.95383000e+06
658.000000 3.43757000e+06
665.000000 3.77969000e+06
675.000000 4.24847000e+06
685.000000 4.84544000e+06
695.000000 5.69253000e+06
705.000000 6.40294000e+06
716.000000 7.33748000e+06
726.000000 8.19250000e+06
735.000000 9.11166000e+06
745.000000 1.02866000e+07
755.000000 1.14752000e+07
765.000000 1.27138000e+07
775.000000 1.41340000e+07
785.000000 1.56200000e+07
795.000000 1.70833000e+07
805.000000 1.87183000e+07
815.000000 2.03410000e+07
825.000000 2.23301000e+07
835.000000 2.38679000e+07
845.000000 2.60968000e+07
855.000000 2.81331000e+07
865.000000 3.05668000e+07
875.000000 3.31419000e+07
885.000000 3.57992000e+07
895.000000 3.83848000e+07
905.000000 4.04404000e+07
915.000000 7.26123000e+07
925.000000 6.54942000e+08
935.000000 2.36128000e+09
945.000000 6.72779000e+09
955.000000 9.11561000e+09
965.000000 1.14982000e+10
975.000000 3.77544000e+09
985.000000 1.25266000e+10
995.000000 1.20059000e+10
1005.000000 1.26723000e+10
1015.000000 1.17609000e+10
1025.000000 4.20180000e+09
1035.000000 9.84144000e+09
1045.000000 1.32256000e+10
1055.000000 1.27357000e+10
1065.000000 1.14863000e+10
1075.000000 1.23817000e+10
1085.000000 1.14255000e+10
1095.000000 1.22951000e+10
1105.000000 1.15516000e+10
1115.000000 1.15620000e+10
1125.000000 1.07504000e+10
1135.000000 1.14219000e+10
1145.000000 1.07293000e+10
1155.000000 1.10698000e+10
1165.000000 1.10552000e+10
1175.000000 9.29145000e+09
1185.000000 1.06951000e+10
1195.000000 9.78503000e+09
1205.000000 7.79132000e+09
1215.000000 3.00546000e+09
1225.000000 8.37598000e+09
1235.000000 9.62630000e+09
1245.000000 9.67814000e+09
1255.000000 9.43220000e+09
1265.000000 9.27118000e+09
1275.000000 9.38611000e+09
1285.000000 9.20637000e+09
1295.000000 8.14977000e+09
1305.000000 8.22068000e+09
1315.000000 8.78173000e+09
1325.000000 8.45848000e+09
1335.000000 8.08365000e+09
1345.000000 8.23337000e+09
1355.000000 8.23725000e+09
1365.000000 7.93725000e+09
1375.000000 7.80568000e+09
1385.000000 7.75072000e+09
1395.000000 7.22727000e+09
1405.000000 7.31407000e+09
1415.000000 7.33298000e+09
1425.000000 7.22578000e+09
1435.000000 7.18708000e+09
1442.000000 7.18469000e+09
1447.000000 7.09140000e+09
1455.000000 6.98071000e+09
1465.000000 6.79727000e+09
1475.000000 6.71078000e+09
1485.000000 6.57988000e+09
1495.000000 6.48102000e+09
1505.000000 6.25480000e+09
1512.000000 6.02449000e+09
1517.000000 6.08290000e+09
1525.000000 6.03302000e+09
1535.000000 5.70428000e+09
1545.000000 5.75757000e+09
1555.000000 5.53762000e+09
1565.000000 5.63381000e+09
1575.000000 5.65164000e+09
1585.000000 5.56616000e+09
1595.000000 5.52694000e+09
1605.000000 5.35284000e+09
1615.000000 5.27405000e+09
1625.000000 5.24158000e+09
1635.000000 5.24840000e+09
1645.000000 5.13912000e+09
1655.000000 5.06661000e+09
1665.000000 5.06695000e+09
1672.000000 4.93082000e+09
1677.000000 5.01278000e+09
1685.000000 4.94208000e+09
1695.000000 4.81575000e+09
1705.000000 4.69359000e+09
1715.000000 4.56255000e+09
1725.000000 4.51233000e+09
1735.000000 4.50289000e+09
1745.000000 4.41803000e+09
1755.000000 4.42335000e+09
1765.000000 4.23067000e+09
1775.000000 4.21124000e+09
1785.000000 4.19327000e+09
1795.000000 4.18491000e+09
1805.000000 4.15232000e+09
1815.000000 4.00399000e+09
1825.000000 4.00050000e+09
1835.000000 3.93263000e+09
1845.000000 3.73074000e+09
1855.000000 3.65527000e+09
1865.000000 3.67585000e+09
1875.000000 3.71819000e+09
1885.000000 3.49372000e+09
1895.000000 3.34763000e+09
1905.000000 3.47162000e+09
1915.000000 3.34444000e+09
1925.000000 3.26810000e+09
1935.000000 3.32214000e+09
1945.000000 3.34095000e+09
1955.000000 3.15319000e+09
1967.000000 3.23918000e+09
1976.000000 3.28798000e+09
1984.000000 3.14840000e+09
1995.000000 3.06247000e+09
2005.000000 3.09544000e+09
2015.000000 3.09411000e+09
2025.000000 3.10120000e+09
2035.000000 2.98210000e+09
2045.000000 2.95427000e+09
2055.000000 2.87581000e+09
2065.000000 2.87930000e+09
2074.000000 2.93407000e+09
2078.000000 2.82454000e+09
2085.000000 2.83386000e+09
2095.000000 2.74722000e+09
2105.000000 2.77091000e+09
2115.000000 2.74722000e+09
2125.000000 2.75454000e+09
2135.000000 2.70739000e+09
2145.000000 2.63758000e+09
2155.000000 2.64642000e+09
2165.000000 2.61640000e+09
2175.000000 2.57926000e+09
2185.000000 2.55042000e+09
2195.000000 2.53185000e+09
2205.000000 2.49762000e+09
2215.000000 2.46783000e+09
2225.000000 2.42712000e+09
2235.000000 2.40063000e+09
2245.000000 2.38392000e+09
2255.000000 2.34460000e+09
2265.000000 2.32975000e+09
2275.000000 2.30079000e+09
2285.000000 2.28106000e+09
2295.000000 2.22432000e+09
2305.000000 2.22449000e+09
2315.000000 2.18837000e+09
2325.000000 2.16666000e+09
2335.000000 2.12700000e+09
2345.000000 2.09896000e+09
2355.000000 2.09442000e+09
2365.000000 2.06125000e+09
2375.000000 2.04133000e+09
2385.000000 2.00941000e+09
2395.000000 1.99214000e+09
2405.000000 1.96935000e+09
2415.000000 1.94313000e+09
2425.000000 1.93655000e+09
2435.000000 1.90734000e+09
2445.000000 1.88931000e+09
2455.000000 1.87445000e+09
2465.000000 1.84873000e+09
2475.000000 1.82976000e+09
2485.000000 1.80891000e+09
2495.000000 1.76139000e+09
2505.000000 1.76843000e+09
2513.000000 1.72993000e+09
2518.000000 1.74273000e+09
2525.000000 1.72676000e+09
2535.000000 1.70390000e+09
2545.000000 1.67995000e+09
2555.000000 1.67600000e+09
2565.000000 1.65322000e+09
2575.000000 1.64274000e+09
2585.000000 1.62441000e+09
2595.000000 1.60627000e+09
2605.000000 1.59890000e+09
2615.000000 1.58378000e+09
2625.000000 1.56791000e+09
2635.000000 1.54637000e+09
2645.000000 1.53831000e+09
2655.000000 1.52102000e+09
2665.000000 1.50019000e+09
2675.000000 1.48646000e+09
2685.000000 1.48022000e+09
2695.000000 1.45178000e+09
2705.000000 1.44832000e+09
2715.000000 1.43266000e+09
2725.000000 1.40659000e+09
2735.000000 1.40443000e+09
2745.000000 1.37717000e+09
2755.000000 1.36664000e+09
2765.000000 1.34865000e+09
2775.000000 1.34873000e+09
2785.000000 1.33377000e+09
2795.000000 1.29902000e+09
2805.000000 1.29887000e+09
2815.000000 1.29536000e+09
2825.000000 1.27021000e+09
2835.000000 1.25362000e+09
2845.000000 1.25553000e+09
2855.000000 1.24351000e+09
2865.000000 1.23228000e+09
2875.000000 1.21962000e+09
2885.000000 1.20796000e+09
2895.000000 1.19604000e+09
2910.000000 1.17827000e+09
2930.000000 1.15442000e+09
2950.000000 1.12536000e+09
2970.000000 1.11141000e+09
2990.000000 1.08917000e+09
3010.000000 1.06868000e+09
3030.000000 1.04961000e+09
3050.000000 1.02986000e+09
3070.000000 1.01060000e+09
3090.000000 9.90779000e+08
3110.000000 9.73324000e+08
3130.000000 9.56388000e+08
3150.000000 9.38815000e+08
3170.000000 9.21120000e+08
3190.000000 8.97685000e+08
3210.000000 8.88216000e+08
3230.000000 8.72087000e+08
3250.000000 8.56464000e+08
3270.000000 8.42179000e+08
3290.000000 8.26124000e+08
3310.000000 8.12835000e+08
3330.000000 7.98583000e+08
3350.000000 7.83235000e+08
3370.000000 7.71047000e+08
3390.000000 7.57779000e+08
3410.000000 7.44770000e+08
3430.000000 7.28617000e+08
3450.000000 7.13705000e+08
3470.000000 7.03749000e+08
3490.000000 6.92150000e+08
3510.000000 6.84070000e+08
3530.000000 6.73317000e+08
3550.000000 6.62434000e+08
3570.000000 6.54175000e+08
3590.000000 6.40154000e+08
3610.000000 6.30277000e+08
3630.000000 6.19348000e+08
3640.000000 6.17798000e+08
3650.000000 6.07574000e+08
3670.000000 6.00075000e+08
3690.000000 5.82410000e+08
3710.000000 5.71632000e+08
3730.000000 5.63974000e+08
3750.000000 6.24226000e+08
3770.000000 6.31509000e+08
3790.000000 6.61134000e+08
3810.000000 6.89766000e+08
3830.000000 6.04250000e+08
3850.000000 7.06388000e+08
3870.000000 7.04414000e+08
3890.000000 5.76119000e+08
3910.000000 6.93204000e+08
3930.000000 6.78532000e+08
3950.000000 6.71050000e+08
3970.000000 5.35638000e+08
3990.000000 6.45950000e+08
4010.000000 6.38374000e+08
4030.000000 6.06515000e+08
4050.000000 6.23943000e+08
4070.000000 6.10890000e+08
4090.000000 5.72478000e+08
4110.000000 5.01151000e+08
4130.000000 5.74760000e+08
4150.000000 5.69168000e+08
4170.000000 5.63765000e+08
4190.000000 5.56593000e+08
4210.000000 5.47959000e+08
4230.000000 5.39126000e+08
4250.000000 5.30414000e+08
4270.000000 5.19816000e+08
4290.000000 5.13630000e+08
4310.000000 5.03682000e+08
4330.000000 4.63917000e+08
4350.000000 4.23008000e+08
4370.000000 4.79806000e+08
4390.000000 4.64126000e+08
4410.000000 4.67558000e+08
4430.000000 4.58566000e+08
4450.000000 4.53826000e+08
4470.000000 4.30712000e+08
4490.000000 4.39441000e+08
4510.000000 4.33663000e+08
4530.000000 4.27015000e+08
4550.000000 4.20558000e+08
4570.000000 4.14215000e+08
4590.000000 4.08217000e+08
4610.000000 4.02148000e+08
4630.000000 3.96168000e+08
4650.000000 3.89840000e+08
4670.000000 3.84695000e+08
4690.000000 3.79263000e+08
4710.000000 3.69035000e+08
4730.000000 3.67672000e+08
4750.000000 3.62011000e+08
4770.000000 3.57889000e+08
4790.000000 3.52739000e+08
4810.000000 3.47483000e+08
4830.000000 3.41236000e+08
4850.000000 3.19289000e+08
4870.000000 2.85427000e+08
4890.000000 3.26344000e+08
4910.000000 3.23410000e+08
4930.000000 3.12746000e+08
4950.000000 3.14883000e+08
4970.000000 3.10615000e+08
4990.000000 3.06284000e+08
5010.000000 2.98320000e+08
5030.000000 2.97918000e+08
5050.000000 2.91767000e+08
5070.000000 2.89880000e+08
5090.000000 2.85949000e+08
5110.000000 2.82070000e+08
5130.000000 2.78157000e+08
5150.000000 2.74424000e+08
5170.000000 2.70867000e+08
5190.000000 2.67259000e+08
5210.000000 2.63560000e+08
5230.000000 2.60212000e+08
5250.000000 2.56771000e+08
5270.000000 2.53387000e+08
5290.000000 2.50075000e+08
5310.000000 2.46805000e+08
5330.000000 2.43577000e+08
5350.000000 2.40364000e+08
5370.000000 2.37323000e+08
5390.000000 2.34256000e+08
5410.000000 2.31252000e+08
5430.000000 2.28223000e+08
5450.000000 2.25334000e+08
5470.000000 2.22468000e+08
5490.000000 2.19662000e+08
5510.000000 2.16879000e+08
5530.000000 2.14143000e+08
5550.000000 2.11465000e+08
5570.000000 2.08796000e+08
5590.000000 2.06207000e+08
5610.000000 2.03614000e+08
5630.000000 2.01112000e+08
5650.000000 1.98523000e+08
5670.000000 1.96070000e+08
5690.000000 1.93635000e+08
5710.000000 1.91368000e+08
5730.000000 1.89037000e+08
5750.000000 1.86710000e+08
5770.000000 1.84478000e+08
5790.000000 1.82240000e+08
5810.000000 1.80039000e+08
5830.000000 1.77863000e+08
5850.000000 1.75747000e+08
5870.000000 1.68986000e+08
5890.000000 1.71348000e+08
5910.000000 1.69532000e+08
5930.000000 1.67512000e+08
5950.000000 1.65504000e+08
5970.000000 1.63594000e+08
5990.000000 1.61653000e+08
6010.000000 1.59776000e+08
6030.000000 1.57910000e+08
6050.000000 1.56075000e+08
6070.000000 1.54261000e+08
6090.000000 1.52477000e+08
6110.000000 1.50724000e+08
6130.000000 1.48990000e+08
6150.000000 1.47245000e+08
6170.000000 1.45590000e+08
6190.000000 1.43933000e+08
6210.000000 1.42294000e+08
6230.000000 1.40683000e+08
6250.000000 1.39080000e+08
6270.000000 1.37523000e+08
6290.000000 1.35984000e+08
6310.000000 1.34451000e+08
6330.000000 1.32954000e+08
6350.000000 1.31399000e+08
6370.000000 1.29981000e+08
6390.000000 1.28569000e+08
6410.000000 1.27144000e+08
6430.000000 1.25753000e+08
6450.000000 1.24368000e+08
6470.000000 1.22988000e+08
6490.000000 1.21650000e+08
6510.000000 1.20326000e+08
6530.000000 1.18662000e+08
6550.000000 1.14224000e+08
6570.000000 1.01756000e+08
6590.000000 1.14160000e+08
6610.000000 1.13867000e+08
6630.000000 1.12753000e+08
6650.000000 1.11632000e+08
6670.000000 1.09499000e+08
6690.000000 1.08357000e+08
6710.000000 1.08105000e+08
6730.000000 1.06956000e+08
6750.000000 1.05836000e+08
6770.000000 1.04726000e+08
6790.000000 1.03587000e+08
6810.000000 1.02533000e+08
6830.000000 1.01465000e+08
6850.000000 1.00416000e+08
6870.000000 9.93689000e+07
6890.000000 9.83405000e+07
6910.000000 9.73302000e+07
6930.000000 9.63143000e+07
6950.000000 9.53396000e+07
6970.000000 9.43590000e+07
6990.000000 9.33880000e+07
7010.000000 9.24419000e+07
7030.000000 9.15050000e+07
7050.000000 9.05773000e+07
7070.000000 8.82868000e+07
7090.000000 8.87562000e+07
7110.000000 8.78626000e+07
7130.000000 8.69850000e+07
7150.000000 8.61085000e+07
7170.000000 8.52331000e+07
7190.000000 8.44025000e+07
7210.000000 8.35653000e+07
7230.000000 8.24910000e+07
7250.000000 8.19147000e+07
7270.000000 8.11082000e+07
7290.000000 7.96855000e+07
7310.000000 7.95109000e+07
7330.000000 7.87481000e+07
7350.000000 7.79784000e+07
7370.000000 7.72159000e+07
7390.000000 7.64674000e+07
7410.000000 7.57259000e+07
7430.000000 7.49980000e+07
7450.000000 7.42836000e+07
7470.000000 7.35691000e+07
7490.000000 7.28611000e+07
7510.000000 7.21395000e+07
7530.000000 7.14778000e+07
7550.000000 7.07956000e+07
7570.000000 7.01262000e+07
7590.000000 6.94563000e+07
7610.000000 6.88054000e+07
7630.000000 6.81540000e+07
7650.000000 6.75149000e+07
7670.000000 6.68814000e+07
7690.000000 6.62537000e+07
7710.000000 6.56252000e+07
7730.000000 6.50213000e+07
7750.000000 6.44101000e+07
7770.000000 6.37857000e+07
7790.000000 6.32289000e+07
7810.000000 6.25905000e+07
7830.000000 6.20684000e+07
7850.000000 6.15569000e+07
7870.000000 6.09950000e+07
7890.000000 6.03860000e+07
7910.000000 5.98938000e+07
7930.000000 5.92745000e+07
7950.000000 5.86637000e+07
7970.000000 5.80927000e+07
7990.000000 5.75851000e+07
8010.000000 5.70501000e+07
8030.000000 5.65548000e+07
8050.000000 5.60828000e+07
8070.000000 5.56160000e+07
8090.000000 5.50029000e+07
8110.000000 5.45825000e+07
8130.000000 5.41735000e+07
8150.000000 5.35835000e+07
8170.000000 5.32244000e+07
8190.000000 5.26823000e+07
8210.000000 5.20537000e+07
8230.000000 5.17615000e+07
8250.000000 5.13227000e+07
8270.000000 5.06060000e+07
8290.000000 5.03648000e+07
8310.000000 4.99443000e+07
8330.000000 4.95012000e+07
8350.000000 4.88304000e+07
8370.000000 4.85178000e+07
8390.000000 4.81609000e+07
8410.000000 4.77100000e+07
8430.000000 4.72205000e+07
8450.000000 4.65667000e+07
8470.000000 4.61564000e+07
8490.000000 4.61002000e+07
8510.000000 4.51211000e+07
8530.000000 4.55409000e+07
8550.000000 4.36033000e+07
8570.000000 4.55343000e+07
8590.000000 4.31404000e+07
8610.000000 4.28513000e+07
8630.000000 4.49530000e+07
8650.000000 4.35460000e+07
8670.000000 3.99153000e+07
8690.000000 4.39846000e+07
8710.000000 4.42104000e+07
8730.000000 4.27941000e+07
8750.000000 3.81347000e+07
8770.000000 4.15636000e+07
8790.000000 4.29115000e+07
8810.000000 4.26106000e+07
8830.000000 4.21535000e+07
8850.000000 3.95385000e+07
8870.000000 3.63821000e+07
8890.000000 4.07480000e+07
8910.000000 4.08955000e+07
8930.000000 4.05708000e+07
8950.000000 4.03662000e+07
8970.000000 3.99855000e+07
8990.000000 3.89557000e+07
9010.000000 3.46616000e+07
9030.000000 3.65226000e+07
9050.000000 3.84846000e+07
9070.000000 3.80714000e+07
9090.000000 3.80235000e+07
9110.000000 3.78672000e+07
9130.000000 3.75898000e+07
9150.000000 3.72871000e+07
9170.000000 3.68379000e+07
9190.000000 3.64989000e+07
9210.000000 3.50228000e+07
9230.000000 3.10178000e+07
9250.000000 3.45735000e+07
9270.000000 3.52868000e+07
9290.000000 3.51900000e+07
9310.000000 3.47860000e+07
9330.000000 3.46782000e+07
9350.000000 3.43778000e+07
9370.000000 3.41347000e+07
9390.000000 3.38651000e+07
9410.000000 3.35877000e+07
9430.000000 3.33335000e+07
9450.000000 3.30715000e+07
9470.000000 3.26022000e+07
9490.000000 3.24997000e+07
9510.000000 3.18466000e+07
9530.000000 3.05877000e+07
9550.000000 2.74137000e+07
9570.000000 3.07632000e+07
9590.000000 3.11467000e+07
9610.000000 3.09229000e+07
9630.000000 3.06585000e+07
9650.000000 3.05890000e+07
9670.000000 3.03538000e+07
9690.000000 3.00895000e+07
9710.000000 2.97958000e+07
9730.000000 2.96619000e+07
9750.000000 2.94353000e+07
9770.000000 2.92111000e+07
9790.000000 2.89893000e+07
9810.000000 2.87691000e+07
9830.000000 2.85511000e+07
9850.000000 2.83355000e+07
9870.000000 2.81214000e+07
9890.000000 2.79096000e+07
9910.000000 2.76800000e+07
9930.000000 2.74922000e+07
9950.000000 2.72863000e+07
9970.000000 2.70818000e+07
9990.000000 2.68433000e+07
10025.000000 2.55530000e+07
10075.000000 2.47414000e+07
10125.000000 2.54913000e+07
10175.000000 2.50980000e+07
10225.000000 2.46298000e+07
10275.000000 2.41965000e+07
10325.000000 2.36776000e+07
10375.000000 2.33351000e+07
10425.000000 2.29187000e+07
10475.000000 2.25116000e+07
10525.000000 2.21136000e+07
10575.000000 2.17244000e+07
10625.000000 2.13435000e+07
10675.000000 2.09295000e+07
10725.000000 2.06068000e+07
10775.000000 2.02502000e+07
10825.000000 1.96867000e+07
10875.000000 1.95214000e+07
10925.000000 1.78729000e+07
10975.000000 1.85655000e+07
11025.000000 1.84601000e+07
11075.000000 1.82569000e+07
11125.000000 1.79599000e+07
11175.000000 1.76599000e+07
11225.000000 1.73555000e+07
11275.000000 1.70768000e+07
11325.000000 1.67960000e+07
11375.000000 1.65202000e+07
11425.000000 1.62498000e+07
11475.000000 1.59849000e+07
11525.000000 1.57254000e+07
11575.000000 1.54709000e+07
11625.000000 1.52219000e+07
11675.000000 1.49779000e+07
11725.000000 1.47386000e+07
11775.000000 1.45037000e+07
11825.000000 1.42743000e+07
11875.000000 1.40491000e+07
11925.000000 1.38282000e+07
11975.000000 1.35055000e+07
12025.000000 1.33994000e+07
12075.000000 1.31912000e+07
12125.000000 1.29871000e+07
12175.000000 1.27868000e+07
12225.000000 1.25907000e+07
12275.000000 1.23981000e+07
12325.000000 1.22092000e+07
12375.000000 1.20239000e+07
12425.000000 1.18421000e+07
12475.000000 1.16634000e+07
12525.000000 1.14665000e+07
12575.000000 1.13168000e+07
12625.000000 1.11484000e+07
12675.000000 1.09828000e+07
12725.000000 1.08204000e+07
12775.000000 1.05059000e+07
12825.000000 9.79268000e+06
12875.000000 1.03013000e+07
12925.000000 1.02003000e+07
12975.000000 9.99252000e+06
13025.000000 9.90707000e+06
13075.000000 9.76445000e+06
