# Kurucz ODFNEW /NOVER, alpha: 0.0 (2003)
# teff = 22000 K (value for the effective temperature for the model. Temperatures are given in K)
# logg = 3 log(cm/s2) (value for Log(G) for the model.)
# lh = 1.25  (l/Hp where l is the  mixing length of the convective element and Hp is the pressure scale height)
# meta = -2  (value for the Metallicity for the model.)
# vtur = 2 km/s (Microturbulence velocity)
# alpha = 0  (Alpha)
#
# column 1: WAVELENGTH (ANGSTROM), Wavelength in Angstrom
# column 2: FLUX (ERG/CM2/S/A), Flux in erg/cm2/s/A
147.200000 7.70590000e-17
151.000000 4.50734000e-16
155.200000 2.86156000e-15
158.800000 1.28719000e-14
162.000000 4.62371000e-14
166.000000 2.12755000e-13
170.300000 1.01048000e-12
173.400000 2.95482000e-12
176.800000 9.15989000e-12
180.200000 2.71641000e-11
181.700000 4.32998000e-11
186.100000 1.62556000e-10
191.000000 6.58061000e-10
193.900000 1.45312000e-09
198.400000 4.73130000e-09
201.800000 1.11298000e-08
205.000000 2.42326000e-08
210.500000 8.71208000e-08
216.200000 3.05365000e-07
219.800000 6.50558000e-07
223.000000 1.24688000e-06
226.800000 2.63229000e-06
230.000000 1.61502000e-05
234.000000 3.87036000e-05
240.000000 1.05210000e-04
246.500000 2.94050000e-04
252.400000 7.18796000e-04
256.800000 1.29375000e-03
260.000000 2.10617000e-03
264.000000 3.61243000e-03
268.500000 6.49183000e-03
273.500000 1.21597000e-02
278.500000 2.22859000e-02
284.000000 4.22877000e-02
290.000000 8.25355000e-02
296.000000 1.56417000e-01
301.000000 2.60244000e-01
308.000000 5.03039000e-01
318.000000 1.31988000e+00
328.000000 3.14416000e+00
338.000000 7.11454000e+00
348.000000 1.52979000e+01
357.000000 2.93236000e+01
366.000000 5.43990000e+01
375.000000 9.73429000e+01
385.000000 1.80118000e+02
395.000000 3.21714000e+02
405.000000 5.57360000e+02
414.000000 8.92412000e+02
422.000000 1.32904000e+03
430.000000 1.94599000e+03
441.000000 3.22024000e+03
451.000000 4.96710000e+03
460.000000 7.20023000e+03
470.000000 1.06886000e+04
480.000000 1.55663000e+04
490.000000 2.23009000e+04
500.000000 3.14283000e+04
506.000000 2.25947000e+05
512.000000 6.46526000e+05
520.000000 8.00606000e+05
530.000000 1.10709000e+06
540.000000 1.20593000e+06
550.000000 1.72212000e+06
560.000000 2.05724000e+06
570.000000 2.51211000e+06
580.000000 2.51929000e+06
590.000000 3.32725000e+06
600.000000 4.12791000e+06
610.000000 4.89455000e+06
620.000000 5.63624000e+06
630.000000 6.55902000e+06
640.000000 7.34862000e+06
650.000000 8.42456000e+06
658.000000 9.57303000e+06
665.000000 1.04170000e+07
675.000000 1.14873000e+07
685.000000 1.28428000e+07
695.000000 1.49062000e+07
705.000000 1.64510000e+07
716.000000 1.85978000e+07
726.000000 2.04755000e+07
735.000000 2.25009000e+07
745.000000 2.50483000e+07
755.000000 2.75595000e+07
765.000000 3.01351000e+07
775.000000 3.30970000e+07
785.000000 3.61504000e+07
795.000000 3.90913000e+07
805.000000 4.23851000e+07
815.000000 4.55433000e+07
825.000000 4.94584000e+07
835.000000 5.21772000e+07
845.000000 5.66815000e+07
855.000000 6.05478000e+07
865.000000 6.51073000e+07
875.000000 6.99997000e+07
885.000000 7.48192000e+07
895.000000 7.95246000e+07
905.000000 8.34391000e+07
915.000000 1.86312000e+08
925.000000 3.11008000e+09
935.000000 6.97072000e+09
945.000000 1.21364000e+10
955.000000 1.35086000e+10
965.000000 1.54834000e+10
975.000000 7.71629000e+09
985.000000 1.50863000e+10
995.000000 1.44436000e+10
1005.000000 1.50330000e+10
1015.000000 1.45093000e+10
1025.000000 8.84214000e+09
1035.000000 1.32658000e+10
1045.000000 1.53931000e+10
1055.000000 1.48966000e+10
1065.000000 1.36954000e+10
1075.000000 1.43777000e+10
1085.000000 1.34880000e+10
1095.000000 1.42975000e+10
1105.000000 1.37122000e+10
1115.000000 1.36713000e+10
1125.000000 1.28626000e+10
1135.000000 1.34409000e+10
1145.000000 1.28103000e+10
1155.000000 1.31124000e+10
1165.000000 1.30090000e+10
1175.000000 1.12062000e+10
1185.000000 1.25629000e+10
1195.000000 1.19100000e+10
1205.000000 1.06263000e+10
1215.000000 6.28501000e+09
1225.000000 1.12861000e+10
1235.000000 1.16749000e+10
1245.000000 1.15025000e+10
1255.000000 1.13486000e+10
1265.000000 1.11381000e+10
1275.000000 1.11805000e+10
1285.000000 1.09891000e+10
1295.000000 1.00997000e+10
1305.000000 1.02492000e+10
1315.000000 1.05098000e+10
1325.000000 1.01983000e+10
1335.000000 9.80810000e+09
1345.000000 9.95206000e+09
1355.000000 9.93190000e+09
1365.000000 9.68197000e+09
1375.000000 9.51954000e+09
1385.000000 9.42302000e+09
1395.000000 8.86406000e+09
1405.000000 8.89845000e+09
1415.000000 8.96335000e+09
1425.000000 8.83112000e+09
1435.000000 8.76884000e+09
1442.000000 8.73084000e+09
1447.000000 8.64362000e+09
1455.000000 8.52658000e+09
1465.000000 8.36424000e+09
1475.000000 8.24930000e+09
1485.000000 8.12576000e+09
1495.000000 7.99601000e+09
1505.000000 7.78882000e+09
1512.000000 7.64221000e+09
1517.000000 7.64529000e+09
1525.000000 7.55297000e+09
1535.000000 7.21841000e+09
1545.000000 7.20024000e+09
1555.000000 6.99731000e+09
1565.000000 7.07999000e+09
1575.000000 7.05582000e+09
1585.000000 6.96317000e+09
1595.000000 6.88517000e+09
1605.000000 6.65895000e+09
1615.000000 6.56114000e+09
1625.000000 6.53885000e+09
1635.000000 6.50660000e+09
1645.000000 6.33376000e+09
1655.000000 6.32663000e+09
1665.000000 6.26214000e+09
1672.000000 6.14904000e+09
1677.000000 6.21464000e+09
1685.000000 6.12260000e+09
1695.000000 5.99248000e+09
1705.000000 5.87457000e+09
1715.000000 5.73312000e+09
1725.000000 5.68356000e+09
1735.000000 5.63688000e+09
1745.000000 5.54672000e+09
1755.000000 5.51867000e+09
1765.000000 5.34131000e+09
1775.000000 5.29313000e+09
1785.000000 5.27112000e+09
1795.000000 5.22436000e+09
1805.000000 5.18444000e+09
1815.000000 5.04719000e+09
1825.000000 5.00685000e+09
1835.000000 4.93911000e+09
1845.000000 4.72757000e+09
1855.000000 4.62757000e+09
1865.000000 4.64199000e+09
1875.000000 4.65990000e+09
1885.000000 4.42727000e+09
1895.000000 4.27387000e+09
1905.000000 4.38712000e+09
1915.000000 4.23869000e+09
1925.000000 4.15644000e+09
1935.000000 4.20354000e+09
1945.000000 4.20793000e+09
1955.000000 3.99851000e+09
1967.000000 4.07343000e+09
1976.000000 4.10646000e+09
1984.000000 3.96545000e+09
1995.000000 3.85293000e+09
2005.000000 3.89144000e+09
2015.000000 3.89003000e+09
2025.000000 3.87687000e+09
2035.000000 3.75817000e+09
2045.000000 3.71349000e+09
2055.000000 3.60393000e+09
2065.000000 3.57768000e+09
2074.000000 3.64225000e+09
2078.000000 3.53480000e+09
2085.000000 3.54395000e+09
2095.000000 3.45175000e+09
2105.000000 3.46996000e+09
2115.000000 3.44354000e+09
2125.000000 3.43339000e+09
2135.000000 3.38164000e+09
2145.000000 3.31039000e+09
2155.000000 3.29961000e+09
2165.000000 3.26478000e+09
2175.000000 3.21802000e+09
2185.000000 3.18351000e+09
2195.000000 3.15238000e+09
2205.000000 3.11284000e+09
2215.000000 3.07666000e+09
2225.000000 3.03301000e+09
2235.000000 2.99341000e+09
2245.000000 2.96785000e+09
2255.000000 2.92536000e+09
2265.000000 2.89775000e+09
2275.000000 2.86338000e+09
2285.000000 2.83231000e+09
2295.000000 2.76305000e+09
2305.000000 2.76380000e+09
2315.000000 2.72564000e+09
2325.000000 2.69513000e+09
2335.000000 2.65717000e+09
2345.000000 2.63100000e+09
2355.000000 2.60524000e+09
2365.000000 2.57375000e+09
2375.000000 2.54284000e+09
2385.000000 2.51170000e+09
2395.000000 2.48328000e+09
2405.000000 2.45563000e+09
2415.000000 2.42429000e+09
2425.000000 2.40280000e+09
2435.000000 2.37224000e+09
2445.000000 2.34702000e+09
2455.000000 2.32237000e+09
2465.000000 2.29520000e+09
2475.000000 2.26912000e+09
2485.000000 2.24272000e+09
2495.000000 2.17473000e+09
2505.000000 2.19193000e+09
2513.000000 2.15670000e+09
2518.000000 2.15913000e+09
2525.000000 2.14334000e+09
2535.000000 2.11907000e+09
2545.000000 2.08599000e+09
2555.000000 2.07212000e+09
2565.000000 2.04918000e+09
2575.000000 2.02926000e+09
2585.000000 2.00666000e+09
2595.000000 1.98468000e+09
2605.000000 1.97652000e+09
2615.000000 1.95542000e+09
2625.000000 1.93241000e+09
2635.000000 1.90643000e+09
2645.000000 1.88892000e+09
2655.000000 1.86755000e+09
2665.000000 1.84487000e+09
2675.000000 1.82467000e+09
2685.000000 1.81534000e+09
2695.000000 1.78255000e+09
2705.000000 1.77593000e+09
2715.000000 1.75735000e+09
2725.000000 1.72647000e+09
2735.000000 1.72016000e+09
2745.000000 1.69900000e+09
2755.000000 1.68242000e+09
2765.000000 1.65347000e+09
2775.000000 1.64975000e+09
2785.000000 1.63199000e+09
2795.000000 1.60100000e+09
2805.000000 1.59348000e+09
2815.000000 1.58228000e+09
2825.000000 1.55287000e+09
2835.000000 1.53903000e+09
2845.000000 1.53377000e+09
2855.000000 1.51791000e+09
2865.000000 1.50279000e+09
2875.000000 1.48748000e+09
2885.000000 1.47252000e+09
2895.000000 1.45742000e+09
2910.000000 1.43514000e+09
2930.000000 1.40636000e+09
2950.000000 1.37021000e+09
2970.000000 1.35130000e+09
2990.000000 1.32435000e+09
3010.000000 1.29791000e+09
3030.000000 1.27353000e+09
3050.000000 1.24887000e+09
3070.000000 1.22481000e+09
3090.000000 1.20001000e+09
3110.000000 1.17824000e+09
3130.000000 1.15700000e+09
3150.000000 1.13484000e+09
3170.000000 1.11299000e+09
3190.000000 1.08420000e+09
3210.000000 1.07183000e+09
3230.000000 1.05177000e+09
3250.000000 1.03223000e+09
3270.000000 1.01436000e+09
3290.000000 9.94370000e+08
3310.000000 9.77782000e+08
3330.000000 9.60059000e+08
3350.000000 9.40976000e+08
3370.000000 9.25860000e+08
3390.000000 9.09362000e+08
3410.000000 8.93218000e+08
3430.000000 8.72841000e+08
3450.000000 8.54363000e+08
3470.000000 8.42103000e+08
3490.000000 8.28334000e+08
3510.000000 8.18432000e+08
3530.000000 8.04861000e+08
3550.000000 7.91244000e+08
3570.000000 7.80718000e+08
3590.000000 7.63742000e+08
3610.000000 7.51256000e+08
3630.000000 7.37969000e+08
3640.000000 7.35881000e+08
3650.000000 7.21392000e+08
3670.000000 7.11397000e+08
3690.000000 6.86995000e+08
3710.000000 6.85383000e+08
3730.000000 6.86609000e+08
3750.000000 7.53245000e+08
3770.000000 7.52589000e+08
3790.000000 7.66777000e+08
3810.000000 7.91318000e+08
3830.000000 7.11063000e+08
3850.000000 7.94099000e+08
3870.000000 7.80957000e+08
3890.000000 6.82301000e+08
3910.000000 7.65381000e+08
3930.000000 7.48512000e+08
3950.000000 7.40517000e+08
3970.000000 6.33567000e+08
3990.000000 7.14930000e+08
4010.000000 7.02076000e+08
4030.000000 6.75501000e+08
4050.000000 6.83843000e+08
4070.000000 6.71590000e+08
4090.000000 6.46008000e+08
4110.000000 5.80524000e+08
4130.000000 6.34461000e+08
4150.000000 6.25560000e+08
4170.000000 6.18729000e+08
4190.000000 6.10411000e+08
4210.000000 6.00885000e+08
4230.000000 5.91363000e+08
4250.000000 5.81931000e+08
4270.000000 5.71678000e+08
4290.000000 5.63883000e+08
4310.000000 5.54606000e+08
4330.000000 5.27090000e+08
4350.000000 4.86020000e+08
4370.000000 5.29065000e+08
4390.000000 5.13973000e+08
4410.000000 5.13506000e+08
4430.000000 5.04100000e+08
4450.000000 4.98342000e+08
4470.000000 4.78451000e+08
4490.000000 4.83318000e+08
4510.000000 4.76281000e+08
4530.000000 4.69129000e+08
4550.000000 4.62029000e+08
4570.000000 4.55108000e+08
4590.000000 4.48486000e+08
4610.000000 4.41926000e+08
4630.000000 4.35428000e+08
4650.000000 4.28415000e+08
4670.000000 4.22767000e+08
4690.000000 4.16531000e+08
4710.000000 4.06327000e+08
4730.000000 4.04599000e+08
4750.000000 3.98578000e+08
4770.000000 3.93338000e+08
4790.000000 3.87729000e+08
4810.000000 3.82166000e+08
4830.000000 3.76392000e+08
4850.000000 3.61202000e+08
4870.000000 3.28188000e+08
4890.000000 3.60437000e+08
4910.000000 3.56054000e+08
4930.000000 3.45839000e+08
4950.000000 3.46202000e+08
4970.000000 3.41484000e+08
4990.000000 3.36755000e+08
5010.000000 3.28774000e+08
5030.000000 3.27579000e+08
5050.000000 3.21370000e+08
5070.000000 3.18723000e+08
5090.000000 3.14405000e+08
5110.000000 3.10160000e+08
5130.000000 3.05943000e+08
5150.000000 3.01824000e+08
5170.000000 2.97844000e+08
5190.000000 2.93875000e+08
5210.000000 2.89943000e+08
5230.000000 2.86133000e+08
5250.000000 2.82357000e+08
5270.000000 2.78631000e+08
5290.000000 2.74980000e+08
5310.000000 2.71390000e+08
5330.000000 2.67858000e+08
5350.000000 2.64359000e+08
5370.000000 2.60956000e+08
5390.000000 2.57584000e+08
5410.000000 2.54267000e+08
5430.000000 2.51005000e+08
5450.000000 2.47796000e+08
5470.000000 2.44640000e+08
5490.000000 2.41536000e+08
5510.000000 2.38483000e+08
5530.000000 2.35467000e+08
5550.000000 2.32514000e+08
5570.000000 2.29584000e+08
5590.000000 2.26727000e+08
5610.000000 2.23892000e+08
5630.000000 2.21115000e+08
5650.000000 2.18361000e+08
5670.000000 2.15628000e+08
5690.000000 2.12939000e+08
5710.000000 2.10399000e+08
5730.000000 2.07820000e+08
5750.000000 2.05260000e+08
5770.000000 2.02798000e+08
5790.000000 2.00332000e+08
5810.000000 1.97906000e+08
5830.000000 1.95520000e+08
5850.000000 1.93173000e+08
5870.000000 1.86436000e+08
5890.000000 1.88505000e+08
5910.000000 1.86326000e+08
5930.000000 1.84096000e+08
5950.000000 1.81913000e+08
5970.000000 1.79777000e+08
5990.000000 1.77655000e+08
6010.000000 1.75577000e+08
6030.000000 1.73513000e+08
6050.000000 1.71493000e+08
6070.000000 1.69506000e+08
6090.000000 1.67531000e+08
6110.000000 1.65598000e+08
6130.000000 1.63687000e+08
6150.000000 1.61798000e+08
6170.000000 1.59949000e+08
6190.000000 1.58121000e+08
6210.000000 1.56312000e+08
6230.000000 1.54534000e+08
6250.000000 1.52785000e+08
6270.000000 1.51054000e+08
6290.000000 1.49353000e+08
6310.000000 1.47669000e+08
6330.000000 1.46014000e+08
6350.000000 1.44367000e+08
6370.000000 1.42765000e+08
6390.000000 1.41181000e+08
6410.000000 1.39623000e+08
6430.000000 1.38072000e+08
6450.000000 1.36556000e+08
6470.000000 1.35038000e+08
6490.000000 1.33563000e+08
6510.000000 1.32104000e+08
6530.000000 1.30580000e+08
6550.000000 1.27246000e+08
6570.000000 1.15179000e+08
6590.000000 1.25984000e+08
6610.000000 1.25085000e+08
6630.000000 1.23748000e+08
6650.000000 1.22503000e+08
6670.000000 1.20304000e+08
6690.000000 1.19039000e+08
6710.000000 1.18623000e+08
6730.000000 1.17362000e+08
6750.000000 1.16122000e+08
6770.000000 1.14894000e+08
6790.000000 1.13671000e+08
6810.000000 1.12484000e+08
6830.000000 1.11309000e+08
6850.000000 1.10147000e+08
6870.000000 1.08995000e+08
6890.000000 1.07863000e+08
6910.000000 1.06743000e+08
6930.000000 1.05634000e+08
6950.000000 1.04551000e+08
6970.000000 1.03478000e+08
6990.000000 1.02401000e+08
7010.000000 1.01366000e+08
7030.000000 1.00332000e+08
7050.000000 9.93091000e+07
7070.000000 9.68261000e+07
7090.000000 9.72998000e+07
7110.000000 9.63210000e+07
7130.000000 9.53441000e+07
7150.000000 9.43841000e+07
7170.000000 9.34186000e+07
7190.000000 9.25061000e+07
7210.000000 9.15805000e+07
7230.000000 9.05340000e+07
7250.000000 8.97700000e+07
7270.000000 8.88776000e+07
7290.000000 8.73202000e+07
7310.000000 8.71180000e+07
7330.000000 8.62786000e+07
7350.000000 8.54262000e+07
7370.000000 8.45956000e+07
7390.000000 8.37658000e+07
7410.000000 8.29506000e+07
7430.000000 8.21429000e+07
7450.000000 8.13631000e+07
7470.000000 8.05702000e+07
7490.000000 7.97980000e+07
7510.000000 7.89995000e+07
7530.000000 7.82681000e+07
7550.000000 7.75169000e+07
7570.000000 7.67792000e+07
7590.000000 7.60481000e+07
7610.000000 7.53236000e+07
7630.000000 7.46057000e+07
7650.000000 7.39007000e+07
7670.000000 7.32084000e+07
7690.000000 7.25096000e+07
7710.000000 7.18297000e+07
7730.000000 7.11622000e+07
7750.000000 7.04880000e+07
7770.000000 6.98323000e+07
7790.000000 6.91886000e+07
7810.000000 6.84888000e+07
7830.000000 6.79121000e+07
7850.000000 6.73525000e+07
7870.000000 6.67308000e+07
7890.000000 6.60782000e+07
7910.000000 6.54495000e+07
7930.000000 6.47603000e+07
7950.000000 6.41488000e+07
7970.000000 6.35188000e+07
7990.000000 6.29829000e+07
8010.000000 6.23986000e+07
8030.000000 6.18604000e+07
8050.000000 6.13441000e+07
8070.000000 6.08206000e+07
8090.000000 6.01461000e+07
8110.000000 5.96665000e+07
8130.000000 5.92308000e+07
8150.000000 5.85661000e+07
8170.000000 5.81951000e+07
8190.000000 5.76079000e+07
8210.000000 5.68581000e+07
8230.000000 5.65376000e+07
8250.000000 5.60424000e+07
8270.000000 5.52539000e+07
8290.000000 5.49766000e+07
8310.000000 5.45116000e+07
8330.000000 5.40226000e+07
8350.000000 5.33016000e+07
8370.000000 5.28918000e+07
8390.000000 5.24981000e+07
8410.000000 5.19968000e+07
8430.000000 5.15054000e+07
8450.000000 5.08482000e+07
8470.000000 5.02293000e+07
8490.000000 5.04978000e+07
8510.000000 4.91121000e+07
8530.000000 4.99212000e+07
8550.000000 4.75446000e+07
8570.000000 4.98733000e+07
8590.000000 4.73648000e+07
8610.000000 4.69747000e+07
8630.000000 4.91210000e+07
8650.000000 4.78595000e+07
8670.000000 4.40580000e+07
8690.000000 4.81173000e+07
8710.000000 4.80674000e+07
8730.000000 4.67703000e+07
8750.000000 4.23418000e+07
8770.000000 4.57373000e+07
8790.000000 4.65280000e+07
8810.000000 4.61461000e+07
8830.000000 4.57203000e+07
8850.000000 4.36111000e+07
8870.000000 4.04335000e+07
8890.000000 4.44103000e+07
8910.000000 4.42733000e+07
8930.000000 4.38815000e+07
8950.000000 4.36409000e+07
8970.000000 4.32770000e+07
8990.000000 4.23794000e+07
9010.000000 3.84678000e+07
9030.000000 4.04270000e+07
9050.000000 4.17389000e+07
9070.000000 4.12152000e+07
9090.000000 4.10660000e+07
9110.000000 4.08568000e+07
9130.000000 4.05496000e+07
9150.000000 4.02209000e+07
9170.000000 3.97916000e+07
9190.000000 3.95134000e+07
9210.000000 3.82854000e+07
9230.000000 3.45917000e+07
9250.000000 3.79426000e+07
9270.000000 3.82333000e+07
9290.000000 3.80103000e+07
9310.000000 3.75564000e+07
9330.000000 3.74042000e+07
9350.000000 3.70815000e+07
9370.000000 3.68161000e+07
9390.000000 3.65244000e+07
9410.000000 3.62340000e+07
9430.000000 3.59504000e+07
9450.000000 3.56672000e+07
9470.000000 3.51987000e+07
9490.000000 3.51091000e+07
9510.000000 3.44892000e+07
9530.000000 3.35411000e+07
9550.000000 3.05176000e+07
9570.000000 3.36142000e+07
9590.000000 3.37097000e+07
9610.000000 3.34015000e+07
9630.000000 3.30935000e+07
9650.000000 3.29860000e+07
9670.000000 3.27321000e+07
9690.000000 3.24486000e+07
9710.000000 3.21349000e+07
9730.000000 3.19842000e+07
9750.000000 3.17398000e+07
9770.000000 3.14975000e+07
9790.000000 3.12577000e+07
9810.000000 3.10200000e+07
9830.000000 3.07851000e+07
9850.000000 3.05519000e+07
9870.000000 3.03211000e+07
9890.000000 3.00923000e+07
9910.000000 2.98551000e+07
9930.000000 2.96413000e+07
9950.000000 2.94192000e+07
9970.000000 2.91985000e+07
9990.000000 2.89802000e+07
10025.000000 2.78827000e+07
10075.000000 2.70339000e+07
10125.000000 2.75062000e+07
10175.000000 2.70561000e+07
10225.000000 2.65507000e+07
10275.000000 2.60824000e+07
10325.000000 2.55290000e+07
10375.000000 2.51519000e+07
10425.000000 2.47025000e+07
10475.000000 2.42626000e+07
10525.000000 2.38327000e+07
10575.000000 2.34125000e+07
10625.000000 2.30014000e+07
10675.000000 2.25600000e+07
10725.000000 2.22057000e+07
10775.000000 2.18210000e+07
10825.000000 2.12145000e+07
10875.000000 2.10670000e+07
10925.000000 1.95631000e+07
10975.000000 2.01716000e+07
11025.000000 1.99165000e+07
11075.000000 1.96744000e+07
11125.000000 1.93476000e+07
11175.000000 1.90237000e+07
11225.000000 1.86950000e+07
11275.000000 1.83953000e+07
11325.000000 1.80910000e+07
11375.000000 1.77932000e+07
11425.000000 1.75010000e+07
11475.000000 1.72152000e+07
11525.000000 1.69348000e+07
11575.000000 1.66603000e+07
11625.000000 1.63913000e+07
11675.000000 1.61279000e+07
11725.000000 1.58696000e+07
11775.000000 1.56163000e+07
11825.000000 1.53684000e+07
11875.000000 1.51252000e+07
11925.000000 1.48868000e+07
11975.000000 1.45595000e+07
12025.000000 1.44238000e+07
12075.000000 1.41992000e+07
12125.000000 1.39790000e+07
12175.000000 1.37628000e+07
12225.000000 1.35509000e+07
12275.000000 1.33432000e+07
12325.000000 1.31392000e+07
12375.000000 1.29392000e+07
12425.000000 1.27431000e+07
12475.000000 1.25506000e+07
12525.000000 1.23387000e+07
12575.000000 1.21764000e+07
12625.000000 1.19946000e+07
12675.000000 1.18160000e+07
12725.000000 1.16407000e+07
12775.000000 1.13413000e+07
12825.000000 1.07022000e+07
12875.000000 1.11133000e+07
12925.000000 1.09718000e+07
12975.000000 1.07558000e+07
13025.000000 1.06554000e+07
13075.000000 1.05016000e+07
