# Kurucz ODFNEW /NOVER, alpha: 0.0 (2003)
# teff = 7750 K (value for the effective temperature for the model. Temperatures are given in K)
# logg = 2.5 log(cm/s2) (value for Log(G) for the model.)
# lh = 1.25  (l/Hp where l is the  mixing length of the convective element and Hp is the pressure scale height)
# meta = -0.5  (value for the Metallicity for the model.)
# vtur = 2 km/s (Microturbulence velocity)
# alpha = 0  (Alpha)
#
# column 1: WAVELENGTH (ANGSTROM), Wavelength in Angstrom
# column 2: FLUX (ERG/CM2/S/A), Flux in erg/cm2/s/A
357.000000 1.41030000e-23
366.000000 1.44560000e-22
375.000000 9.83635000e-22
385.000000 7.31423000e-21
395.000000 4.88776000e-20
405.000000 3.15233000e-20
414.000000 1.36323000e-19
422.000000 4.73651000e-19
430.000000 1.56666000e-18
441.000000 7.52719000e-18
451.000000 2.91955000e-17
460.000000 9.37212000e-17
470.000000 3.23912000e-16
480.000000 1.05886000e-15
490.000000 3.28795000e-15
500.000000 9.71510000e-15
506.000000 2.41720000e-14
512.000000 5.02269000e-14
520.000000 1.10618000e-13
530.000000 2.88254000e-13
540.000000 7.10683000e-13
550.000000 1.71427000e-12
560.000000 3.97080000e-12
570.000000 8.90480000e-12
580.000000 1.91489000e-11
590.000000 4.09229000e-11
600.000000 8.41268000e-11
610.000000 1.68561000e-10
620.000000 3.29374000e-10
630.000000 6.28699000e-10
640.000000 1.17397000e-09
650.000000 2.14669000e-09
658.000000 3.42791000e-09
665.000000 5.10788000e-09
675.000000 8.89267000e-09
685.000000 1.52041000e-08
695.000000 2.55523000e-08
705.000000 4.21787000e-08
716.000000 7.20719000e-08
726.000000 1.15333000e-07
735.000000 1.73949000e-07
745.000000 2.71036000e-07
755.000000 4.16790000e-07
765.000000 6.32862000e-07
775.000000 9.49248000e-07
785.000000 1.40751000e-06
795.000000 2.05381000e-06
805.000000 2.98704000e-06
815.000000 4.29071000e-06
825.000000 6.09631000e-06
835.000000 8.57877000e-06
845.000000 1.19610000e-05
855.000000 1.65266000e-05
865.000000 2.26408000e-05
875.000000 3.07234000e-05
885.000000 4.14490000e-05
895.000000 5.54353000e-05
905.000000 7.34301000e-05
915.000000 8.01404000e-02
925.000000 2.72998000e-01
935.000000 3.56249000e-01
945.000000 4.73493000e-01
955.000000 6.59300000e-01
965.000000 8.54010000e-01
975.000000 1.03017000e+00
985.000000 1.36104000e+00
995.000000 1.65684000e+00
1005.000000 2.21235000e+00
1015.000000 2.73497000e+00
1025.000000 3.14934000e+00
1035.000000 4.22509000e+00
1045.000000 5.27306000e+00
1055.000000 6.48921000e+00
1065.000000 7.75895000e+00
1075.000000 9.60711000e+00
1085.000000 1.17247000e+01
1095.000000 1.38705000e+01
1105.000000 4.01867000e+01
1115.000000 1.23516000e+02
1125.000000 1.75124000e+02
1135.000000 2.37883000e+02
1145.000000 2.88045000e+02
1155.000000 3.03694000e+02
1165.000000 3.82052000e+02
1175.000000 4.05838000e+02
1185.000000 4.53103000e+02
1195.000000 1.72738000e+02
1205.000000 1.22269000e+02
1215.000000 3.11673000e+01
1225.000000 1.41129000e+02
1235.000000 3.75859000e+02
1245.000000 8.46898000e+02
1255.000000 1.72102000e+03
1265.000000 2.03572000e+03
1275.000000 3.26852000e+03
1285.000000 4.94610000e+03
1295.000000 6.47821000e+03
1305.000000 5.99086000e+03
1315.000000 9.24577000e+03
1325.000000 1.16009000e+04
1335.000000 1.31902000e+04
1345.000000 1.71719000e+04
1355.000000 1.83161000e+04
1365.000000 2.07490000e+04
1375.000000 2.33555000e+04
1385.000000 2.59025000e+04
1395.000000 3.00605000e+04
1405.000000 3.46762000e+04
1415.000000 3.72021000e+04
1425.000000 4.27484000e+04
1435.000000 4.31225000e+04
1442.000000 5.13052000e+04
1447.000000 5.55898000e+04
1455.000000 6.69706000e+04
1465.000000 6.84958000e+04
1475.000000 7.54351000e+04
1485.000000 8.46128000e+04
1495.000000 9.72018000e+04
1505.000000 1.07358000e+05
1512.000000 1.05726000e+05
1517.000000 1.16860000e+05
1525.000000 1.32478000e+05
1535.000000 6.60221000e+05
1545.000000 1.69298000e+06
1555.000000 1.52797000e+06
1565.000000 1.22039000e+06
1575.000000 1.94544000e+06
1585.000000 2.18774000e+06
1595.000000 2.57000000e+06
1605.000000 2.32631000e+06
1615.000000 2.55513000e+06
1625.000000 2.62293000e+06
1635.000000 3.47681000e+06
1645.000000 5.13230000e+06
1655.000000 2.89593000e+06
1665.000000 5.43346000e+06
1672.000000 2.35599000e+06
1677.000000 6.35703000e+06
1685.000000 8.18562000e+06
1695.000000 7.75245000e+06
1705.000000 7.63327000e+06
1715.000000 9.25357000e+06
1725.000000 9.46310000e+06
1735.000000 1.10176000e+07
1745.000000 1.03483000e+07
1755.000000 1.23586000e+07
1765.000000 9.32577000e+06
1775.000000 1.16038000e+07
1785.000000 1.10683000e+07
1795.000000 1.39852000e+07
1805.000000 1.19852000e+07
1815.000000 1.30211000e+07
1825.000000 1.12877000e+07
1835.000000 1.09478000e+07
1845.000000 9.73247000e+06
1855.000000 1.07645000e+07
1865.000000 1.16207000e+07
1875.000000 1.14724000e+07
1885.000000 1.17878000e+07
1895.000000 1.25460000e+07
1905.000000 1.14118000e+07
1915.000000 1.24333000e+07
1925.000000 1.25586000e+07
1935.000000 1.00408000e+07
1945.000000 1.32915000e+07
1955.000000 1.33954000e+07
1967.000000 1.43911000e+07
1976.000000 1.40442000e+07
1984.000000 1.35158000e+07
1995.000000 1.30738000e+07
2005.000000 1.24564000e+07
2015.000000 1.20166000e+07
2025.000000 1.12138000e+07
2035.000000 1.26940000e+07
2045.000000 1.38881000e+07
2055.000000 1.29102000e+07
2065.000000 1.23367000e+07
2074.000000 1.46235000e+07
2078.000000 1.51910000e+07
2085.000000 1.45805000e+07
2095.000000 1.38133000e+07
2105.000000 1.28594000e+07
2115.000000 1.31331000e+07
2125.000000 1.35520000e+07
2135.000000 1.06029000e+07
2145.000000 1.27503000e+07
2155.000000 1.28821000e+07
2165.000000 1.19001000e+07
2175.000000 1.18140000e+07
2185.000000 1.23540000e+07
2195.000000 1.35545000e+07
2205.000000 1.29592000e+07
2215.000000 1.13682000e+07
2225.000000 1.11939000e+07
2235.000000 1.34108000e+07
2245.000000 1.18871000e+07
2255.000000 1.10410000e+07
2265.000000 1.10701000e+07
2275.000000 1.22606000e+07
2285.000000 1.28029000e+07
2295.000000 1.17031000e+07
2305.000000 1.21669000e+07
2315.000000 1.17513000e+07
2325.000000 1.13821000e+07
2335.000000 9.60993000e+06
2345.000000 7.94560000e+06
2355.000000 1.12400000e+07
2365.000000 8.21996000e+06
2375.000000 1.01058000e+07
2385.000000 6.94882000e+06
2395.000000 8.48688000e+06
2405.000000 8.14094000e+06
2415.000000 8.88303000e+06
2425.000000 1.12962000e+07
2435.000000 1.09901000e+07
2445.000000 1.18199000e+07
2455.000000 1.15900000e+07
2465.000000 1.15247000e+07
2475.000000 1.07392000e+07
2485.000000 1.11465000e+07
2495.000000 1.06307000e+07
2505.000000 1.29738000e+07
2513.000000 1.07277000e+07
2518.000000 1.11593000e+07
2525.000000 9.87496000e+06
2535.000000 9.38039000e+06
2545.000000 9.45979000e+06
2555.000000 1.07213000e+07
2565.000000 1.03258000e+07
2575.000000 1.16082000e+07
2585.000000 1.14148000e+07
2595.000000 1.08386000e+07
2605.000000 1.00322000e+07
2615.000000 9.50001000e+06
2625.000000 1.14939000e+07
2635.000000 1.21729000e+07
2645.000000 1.51488000e+07
2655.000000 1.52305000e+07
2665.000000 1.30944000e+07
2675.000000 1.40849000e+07
2685.000000 1.40074000e+07
2695.000000 1.30758000e+07
2705.000000 1.36265000e+07
2715.000000 1.23983000e+07
2725.000000 1.26520000e+07
2735.000000 1.38786000e+07
2745.000000 1.00469000e+07
2755.000000 1.10988000e+07
2765.000000 1.19175000e+07
2775.000000 1.37074000e+07
2785.000000 1.26470000e+07
2795.000000 6.31304000e+06
2805.000000 7.86973000e+06
2815.000000 1.41821000e+07
2825.000000 1.51610000e+07
2835.000000 1.44519000e+07
2845.000000 1.38390000e+07
2855.000000 1.29033000e+07
2865.000000 1.45584000e+07
2875.000000 1.41282000e+07
2885.000000 1.44817000e+07
2895.000000 1.37031000e+07
2910.000000 1.59352000e+07
2930.000000 1.52673000e+07
2950.000000 1.51462000e+07
2970.000000 1.57706000e+07
2990.000000 1.59691000e+07
3010.000000 1.63081000e+07
3030.000000 1.62052000e+07
3050.000000 1.61897000e+07
3070.000000 1.62813000e+07
3090.000000 1.66871000e+07
3110.000000 1.61857000e+07
3130.000000 1.61357000e+07
3150.000000 1.67485000e+07
3170.000000 1.67417000e+07
3190.000000 1.57943000e+07
3210.000000 1.63827000e+07
3230.000000 1.58287000e+07
3250.000000 1.64177000e+07
3270.000000 1.66808000e+07
3290.000000 1.69367000e+07
3310.000000 1.72085000e+07
3330.000000 1.68325000e+07
3350.000000 1.66281000e+07
3370.000000 1.65435000e+07
3390.000000 1.66475000e+07
3410.000000 1.69783000e+07
3430.000000 1.71814000e+07
3450.000000 1.70540000e+07
3470.000000 1.68302000e+07
3490.000000 1.67748000e+07
3510.000000 1.72040000e+07
3530.000000 1.72736000e+07
3550.000000 1.75832000e+07
3570.000000 1.69853000e+07
3590.000000 1.69439000e+07
3610.000000 1.70345000e+07
3630.000000 1.72278000e+07
3640.000000 1.69980000e+07
3650.000000 1.75819000e+07
3670.000000 1.73271000e+07
3690.000000 1.72831000e+07
3710.000000 2.08010000e+07
3730.000000 2.44655000e+07
3750.000000 3.36692000e+07
3770.000000 3.63638000e+07
3790.000000 4.53677000e+07
3810.000000 5.29587000e+07
3830.000000 4.12944000e+07
3850.000000 5.76461000e+07
3870.000000 6.39265000e+07
3890.000000 3.72519000e+07
3910.000000 6.26819000e+07
3930.000000 5.49060000e+07
3950.000000 6.22252000e+07
3970.000000 3.39778000e+07
3990.000000 6.13010000e+07
4010.000000 6.59155000e+07
4030.000000 6.51724000e+07
4050.000000 6.45556000e+07
4070.000000 6.21079000e+07
4090.000000 5.16874000e+07
4110.000000 3.93900000e+07
4130.000000 5.95809000e+07
4150.000000 6.14448000e+07
4170.000000 6.04387000e+07
4190.000000 5.97408000e+07
4210.000000 5.94402000e+07
4230.000000 5.80288000e+07
4250.000000 5.77947000e+07
4270.000000 5.62979000e+07
4290.000000 5.61222000e+07
4310.000000 5.24348000e+07
4330.000000 4.26985000e+07
4350.000000 3.63978000e+07
4370.000000 5.28355000e+07
4390.000000 5.29690000e+07
4410.000000 5.19337000e+07
4430.000000 5.19726000e+07
4450.000000 5.19992000e+07
4470.000000 5.14256000e+07
4490.000000 5.08881000e+07
4510.000000 5.12694000e+07
4530.000000 4.96868000e+07
4550.000000 4.85631000e+07
4570.000000 4.96037000e+07
4590.000000 4.81638000e+07
4610.000000 4.88920000e+07
4630.000000 4.75110000e+07
4650.000000 4.77147000e+07
4670.000000 4.72430000e+07
4690.000000 4.60342000e+07
4710.000000 4.45386000e+07
4730.000000 4.57237000e+07
4750.000000 4.54947000e+07
4770.000000 4.47481000e+07
4790.000000 4.42077000e+07
4810.000000 4.34582000e+07
4830.000000 4.20042000e+07
4850.000000 3.42720000e+07
4870.000000 2.74848000e+07
4890.000000 3.98123000e+07
4910.000000 4.10013000e+07
4930.000000 4.02895000e+07
4950.000000 4.05243000e+07
4970.000000 4.05846000e+07
4990.000000 3.95489000e+07
5010.000000 3.84292000e+07
5030.000000 3.89134000e+07
5050.000000 3.83163000e+07
5070.000000 3.84176000e+07
5090.000000 3.79389000e+07
5110.000000 3.76526000e+07
5130.000000 3.69588000e+07
5150.000000 3.63697000e+07
5170.000000 3.54377000e+07
5190.000000 3.51273000e+07
5210.000000 3.51635000e+07
5230.000000 3.46238000e+07
5250.000000 3.50288000e+07
5270.000000 3.35467000e+07
5290.000000 3.42359000e+07
5310.000000 3.36284000e+07
5330.000000 3.29310000e+07
5350.000000 3.33881000e+07
5370.000000 3.28524000e+07
5390.000000 3.25390000e+07
5410.000000 3.19990000e+07
5430.000000 3.18391000e+07
5450.000000 3.17796000e+07
5470.000000 3.14821000e+07
5490.000000 3.13057000e+07
5510.000000 3.09895000e+07
5530.000000 3.05637000e+07
5550.000000 3.05285000e+07
5570.000000 3.01020000e+07
5590.000000 2.97749000e+07
5610.000000 2.95893000e+07
5630.000000 2.94353000e+07
5650.000000 2.90750000e+07
5670.000000 2.87496000e+07
5690.000000 2.86095000e+07
5710.000000 2.83436000e+07
5730.000000 2.82069000e+07
5750.000000 2.78834000e+07
5770.000000 2.76587000e+07
5790.000000 2.73803000e+07
5810.000000 2.71576000e+07
5830.000000 2.69283000e+07
5850.000000 2.66542000e+07
5870.000000 2.64336000e+07
5890.000000 2.58971000e+07
5910.000000 2.59637000e+07
5930.000000 2.57342000e+07
5950.000000 2.54955000e+07
5970.000000 2.52944000e+07
5990.000000 2.50134000e+07
6010.000000 2.47627000e+07
6030.000000 2.45946000e+07
6050.000000 2.43931000e+07
6070.000000 2.42193000e+07
6090.000000 2.39772000e+07
6110.000000 2.37388000e+07
6130.000000 2.34307000e+07
6150.000000 2.30624000e+07
6170.000000 2.30032000e+07
6190.000000 2.29699000e+07
6210.000000 2.27860000e+07
6230.000000 2.25264000e+07
6250.000000 2.20728000e+07
6270.000000 2.22169000e+07
6290.000000 2.20282000e+07
6310.000000 2.17459000e+07
6330.000000 2.16162000e+07
6350.000000 2.13317000e+07
6370.000000 2.11738000e+07
6390.000000 2.10775000e+07
6410.000000 2.08096000e+07
6430.000000 2.06994000e+07
6450.000000 2.03630000e+07
6470.000000 2.03336000e+07
6490.000000 2.00010000e+07
6510.000000 1.98694000e+07
6530.000000 1.94775000e+07
6550.000000 1.74216000e+07
6570.000000 1.38744000e+07
6590.000000 1.85909000e+07
6610.000000 1.90425000e+07
6630.000000 1.90323000e+07
6650.000000 1.89146000e+07
6670.000000 1.87751000e+07
6690.000000 1.86597000e+07
6710.000000 1.85068000e+07
6730.000000 1.83570000e+07
6750.000000 1.81798000e+07
6770.000000 1.80848000e+07
6790.000000 1.79327000e+07
6810.000000 1.77934000e+07
6830.000000 1.76272000e+07
6850.000000 1.74979000e+07
6870.000000 1.73746000e+07
6890.000000 1.72405000e+07
6910.000000 1.71022000e+07
6930.000000 1.69629000e+07
6950.000000 1.68334000e+07
6970.000000 1.66974000e+07
6990.000000 1.65758000e+07
7010.000000 1.63947000e+07
7030.000000 1.62954000e+07
7050.000000 1.61849000e+07
7070.000000 1.60648000e+07
7090.000000 1.59436000e+07
7110.000000 1.56394000e+07
7130.000000 1.56533000e+07
7150.000000 1.55474000e+07
7170.000000 1.54337000e+07
7190.000000 1.52984000e+07
7210.000000 1.51912000e+07
7230.000000 1.50698000e+07
7250.000000 1.49595000e+07
7270.000000 1.48716000e+07
7290.000000 1.47235000e+07
7310.000000 1.46106000e+07
7330.000000 1.45114000e+07
7350.000000 1.44248000e+07
7370.000000 1.43286000e+07
7390.000000 1.41967000e+07
7410.000000 1.40577000e+07
7430.000000 1.39459000e+07
7450.000000 1.38589000e+07
7470.000000 1.37079000e+07
7490.000000 1.36341000e+07
7510.000000 1.35596000e+07
7530.000000 1.34797000e+07
7550.000000 1.34030000e+07
7570.000000 1.32909000e+07
7590.000000 1.32013000e+07
7610.000000 1.31047000e+07
7630.000000 1.30102000e+07
7650.000000 1.29004000e+07
7670.000000 1.27852000e+07
7690.000000 1.27124000e+07
7710.000000 1.25959000e+07
7730.000000 1.25421000e+07
7750.000000 1.24423000e+07
7770.000000 1.21419000e+07
7790.000000 1.22795000e+07
7810.000000 1.21870000e+07
7830.000000 1.20769000e+07
7850.000000 1.19715000e+07
7870.000000 1.18827000e+07
7890.000000 1.17862000e+07
7910.000000 1.17237000e+07
7930.000000 1.16335000e+07
7950.000000 1.15417000e+07
7970.000000 1.15135000e+07
7990.000000 1.13697000e+07
8010.000000 1.13365000e+07
8030.000000 1.12515000e+07
8050.000000 1.11805000e+07
8070.000000 1.10997000e+07
8090.000000 1.10196000e+07
8110.000000 1.09567000e+07
8130.000000 1.08841000e+07
8150.000000 1.08075000e+07
8170.000000 1.07320000e+07
8190.000000 1.05662000e+07
8210.000000 1.05450000e+07
8230.000000 1.04671000e+07
8250.000000 1.03943000e+07
8270.000000 1.04041000e+07
8290.000000 1.03287000e+07
8310.000000 1.02480000e+07
8330.000000 1.00854000e+07
8350.000000 1.00928000e+07
8370.000000 9.96285000e+06
8390.000000 9.86403000e+06
8410.000000 9.77137000e+06
8430.000000 9.79556000e+06
8450.000000 9.64320000e+06
8470.000000 9.31782000e+06
8490.000000 9.90115000e+06
8510.000000 8.95889000e+06
8530.000000 9.97782000e+06
8550.000000 8.41505000e+06
8570.000000 1.01244000e+07
8590.000000 9.35440000e+06
8610.000000 9.03759000e+06
8630.000000 1.02573000e+07
8650.000000 9.92243000e+06
8670.000000 7.97423000e+06
8690.000000 1.00104000e+07
8710.000000 1.03712000e+07
8730.000000 1.00415000e+07
8750.000000 7.94816000e+06
8770.000000 9.62826000e+06
8790.000000 1.02257000e+07
8810.000000 1.01953000e+07
8830.000000 9.96509000e+06
8850.000000 9.14858000e+06
8870.000000 7.72163000e+06
8890.000000 9.62939000e+06
8910.000000 9.84579000e+06
8930.000000 9.83102000e+06
8950.000000 9.84545000e+06
8970.000000 9.71311000e+06
8990.000000 9.39305000e+06
9010.000000 7.60744000e+06
9030.000000 8.39847000e+06
9050.000000 9.32825000e+06
9070.000000 9.24869000e+06
9090.000000 9.14284000e+06
9110.000000 9.28159000e+06
9130.000000 9.29023000e+06
9150.000000 9.24201000e+06
9170.000000 9.14126000e+06
9190.000000 8.97662000e+06
9210.000000 8.48244000e+06
9230.000000 6.72288000e+06
9250.000000 8.19305000e+06
9270.000000 8.57597000e+06
9290.000000 8.78615000e+06
9310.000000 8.76496000e+06
9330.000000 8.71357000e+06
9350.000000 8.67677000e+06
9370.000000 8.62561000e+06
9390.000000 8.53763000e+06
9410.000000 8.32056000e+06
9430.000000 8.41070000e+06
9450.000000 8.36164000e+06
9470.000000 8.31082000e+06
9490.000000 8.23148000e+06
9510.000000 8.07485000e+06
9530.000000 7.57226000e+06
9550.000000 6.14606000e+06
9570.000000 7.59260000e+06
9590.000000 7.89399000e+06
9610.000000 7.86973000e+06
9630.000000 7.79564000e+06
9650.000000 7.84063000e+06
9670.000000 7.73209000e+06
9690.000000 7.72668000e+06
9710.000000 7.72446000e+06
9730.000000 7.67085000e+06
9750.000000 7.59978000e+06
9770.000000 7.57777000e+06
9790.000000 7.52837000e+06
9810.000000 7.47931000e+06
9830.000000 7.42902000e+06
9850.000000 7.35617000e+06
9870.000000 7.31749000e+06
9890.000000 7.24055000e+06
9910.000000 7.22402000e+06
9930.000000 7.17622000e+06
9950.000000 7.13218000e+06
9970.000000 7.08730000e+06
9990.000000 7.02007000e+06
10025.000000 6.52581000e+06
10075.000000 6.20437000e+06
10125.000000 6.70109000e+06
10175.000000 6.65795000e+06
10225.000000 6.56957000e+06
10275.000000 6.47439000e+06
10325.000000 6.35918000e+06
10375.000000 6.27319000e+06
10425.000000 6.18023000e+06
10475.000000 6.04034000e+06
10525.000000 5.97832000e+06
10575.000000 5.89498000e+06
10625.000000 5.80458000e+06
10675.000000 5.63694000e+06
10725.000000 5.60776000e+06
10775.000000 5.53929000e+06
10825.000000 5.45094000e+06
10875.000000 5.34073000e+06
10925.000000 4.65153000e+06
10975.000000 5.01928000e+06
11025.000000 5.15424000e+06
11075.000000 5.10443000e+06
11125.000000 5.02577000e+06
11175.000000 4.95586000e+06
11225.000000 4.89088000e+06
11275.000000 4.76759000e+06
11325.000000 4.70061000e+06
11375.000000 4.67190000e+06
11425.000000 4.59300000e+06
11475.000000 4.55678000e+06
11525.000000 4.49577000e+06
11575.000000 4.43030000e+06
11625.000000 4.33513000e+06
11675.000000 4.25385000e+06
11725.000000 4.25245000e+06
11775.000000 4.13219000e+06
11825.000000 4.10648000e+06
11875.000000 4.03430000e+06
11925.000000 4.02809000e+06
11975.000000 3.94329000e+06
12025.000000 3.91005000e+06
12075.000000 3.84957000e+06
12125.000000 3.80200000e+06
12175.000000 3.76143000e+06
12225.000000 3.70880000e+06
12275.000000 3.65364000e+06
12325.000000 3.60893000e+06
12375.000000 3.56506000e+06
12425.000000 3.52276000e+06
12475.000000 3.47183000e+06
12525.000000 3.42591000e+06
12575.000000 3.36632000e+06
12625.000000 3.32978000e+06
12675.000000 3.29723000e+06
12725.000000 3.24694000e+06
12775.000000 3.15117000e+06
12825.000000 2.75217000e+06
12875.000000 3.08809000e+06
12925.000000 3.08432000e+06
12975.000000 3.05276000e+06
13025.000000 3.01604000e+06
13075.000000 2.97936000e+06
13125.000000 2.93964000e+06
13175.000000 2.89676000e+06
13225.000000 2.86822000e+06
13275.000000 2.83211000e+06
13325.000000 2.79753000e+06
13375.000000 2.76276000e+06
13425.000000 2.72863000e+06
13475.000000 2.69472000e+06
13525.000000 2.65713000e+06
13575.000000 2.62450000e+06
13625.000000 2.59655000e+06
13675.000000 2.56329000e+06
13725.000000 2.51605000e+06
13775.000000 2.49842000e+06
13825.000000 2.46954000e+06
13875.000000 2.44453000e+06
13925.000000 2.40972000e+06
13975.000000 2.38402000e+06
14025.000000 2.35594000e+06
14075.000000 2.32915000e+06
14125.000000 2.29947000e+06
14175.000000 2.27334000e+06
14225.000000 2.24510000e+06
14275.000000 2.21776000e+06
14325.000000 2.19367000e+06
14375.000000 2.16914000e+06
14425.000000 2.11357000e+06
14475.000000 2.11734000e+06
14525.000000 2.07832000e+06
14570.000000 2.07012000e+06
14620.000000 2.04224000e+06
14675.000000 2.02258000e+06
14725.000000 1.99758000e+06
14775.000000 1.96941000e+06
14825.000000 1.95118000e+06
14875.000000 1.92259000e+06
14925.000000 1.91311000e+06
14975.000000 1.88860000e+06
15025.000000 1.85836000e+06
