# Kurucz ODFNEW /NOVER, alpha: 0.0 (2003)
# teff = 8250 K (value for the effective temperature for the model. Temperatures are given in K)
# logg = 5 log(cm/s2) (value for Log(G) for the model.)
# lh = 1.25  (l/Hp where l is the  mixing length of the convective element and Hp is the pressure scale height)
# meta = 0  (value for the Metallicity for the model.)
# vtur = 2 km/s (Microturbulence velocity)
# alpha = 0  (Alpha)
#
# column 1: WAVELENGTH (ANGSTROM), Wavelength in Angstrom
# column 2: FLUX (ERG/CM2/S/A), Flux in erg/cm2/s/A
318.000000 6.22145000e-23
328.000000 7.86627000e-22
338.000000 7.94191000e-21
348.000000 6.97160000e-20
357.000000 4.42177000e-19
366.000000 2.55293000e-18
375.000000 1.35100000e-17
385.000000 6.22566000e-18
395.000000 2.99452000e-17
405.000000 1.32614000e-16
414.000000 4.74088000e-16
422.000000 1.40039000e-15
430.000000 3.96147000e-15
441.000000 1.54939000e-14
451.000000 5.02841000e-14
460.000000 1.38396000e-13
470.000000 4.05943000e-13
480.000000 1.13398000e-12
490.000000 3.02827000e-12
500.000000 7.74194000e-12
506.000000 1.76258000e-11
512.000000 3.38022000e-11
520.000000 6.69252000e-11
530.000000 1.53401000e-10
540.000000 3.33915000e-10
550.000000 7.15250000e-10
560.000000 1.47676000e-09
570.000000 2.96363000e-09
580.000000 5.72082000e-09
590.000000 1.10281000e-08
600.000000 2.05066000e-08
610.000000 3.73145000e-08
620.000000 6.63824000e-08
630.000000 1.15714000e-07
640.000000 1.97857000e-07
650.000000 3.32262000e-07
658.000000 4.96506000e-07
665.000000 6.98520000e-07
675.000000 1.12401000e-06
685.000000 1.78046000e-06
695.000000 2.77790000e-06
705.000000 4.25531000e-06
716.000000 6.74563000e-06
726.000000 1.00830000e-05
735.000000 1.43230000e-05
745.000000 2.09079000e-05
755.000000 3.01853000e-05
765.000000 4.31064000e-05
775.000000 6.09008000e-05
785.000000 8.52345000e-05
795.000000 1.16936000e-04
805.000000 1.61272000e-04
815.000000 2.19932000e-04
825.000000 2.96463000e-04
835.000000 3.96276000e-04
845.000000 5.25477000e-04
855.000000 6.91386000e-04
865.000000 9.02771000e-04
875.000000 1.16691000e-03
885.000000 1.50639000e-03
895.000000 1.92643000e-03
905.000000 2.43850000e-03
915.000000 7.93079000e-01
925.000000 2.84375000e+00
935.000000 3.76499000e+00
945.000000 4.95683000e+00
955.000000 6.68057000e+00
965.000000 8.49722000e+00
975.000000 1.00695000e+01
985.000000 1.28998000e+01
995.000000 1.54733000e+01
1005.000000 1.99218000e+01
1015.000000 2.43321000e+01
1025.000000 2.74870000e+01
1035.000000 3.56112000e+01
1045.000000 4.32918000e+01
1055.000000 5.21655000e+01
1065.000000 6.16498000e+01
1075.000000 7.47672000e+01
1085.000000 8.97385000e+01
1095.000000 1.04957000e+02
1105.000000 2.61496000e+02
1115.000000 7.50413000e+02
1125.000000 1.03840000e+03
1135.000000 1.42822000e+03
1145.000000 1.74623000e+03
1155.000000 1.88847000e+03
1165.000000 2.47240000e+03
1175.000000 2.87658000e+03
1185.000000 2.98840000e+03
1195.000000 1.92110000e+03
1205.000000 1.84885000e+03
1215.000000 5.03990000e+02
1225.000000 2.07795000e+03
1235.000000 4.33237000e+03
1245.000000 7.74324000e+03
1255.000000 1.43712000e+04
1265.000000 1.45706000e+04
1275.000000 2.00292000e+04
1285.000000 2.73440000e+04
1295.000000 3.21484000e+04
1305.000000 3.02950000e+04
1315.000000 3.95700000e+04
1325.000000 4.52451000e+04
1335.000000 4.96134000e+04
1345.000000 5.83725000e+04
1355.000000 5.98676000e+04
1365.000000 6.61006000e+04
1375.000000 7.12799000e+04
1385.000000 7.50071000e+04
1395.000000 8.43681000e+04
1405.000000 9.23949000e+04
1415.000000 9.74626000e+04
1425.000000 1.06585000e+05
1435.000000 1.07928000e+05
1442.000000 1.23654000e+05
1447.000000 1.28418000e+05
1455.000000 1.41120000e+05
1465.000000 1.42886000e+05
1475.000000 1.55090000e+05
1485.000000 1.68371000e+05
1495.000000 1.85463000e+05
1505.000000 2.01885000e+05
1512.000000 2.05194000e+05
1517.000000 2.18037000e+05
1525.000000 2.31096000e+05
1535.000000 3.12403000e+05
1545.000000 4.41607000e+05
1555.000000 4.54922000e+05
1565.000000 4.12749000e+05
1575.000000 5.68262000e+05
1585.000000 6.68095000e+05
1595.000000 7.32483000e+05
1605.000000 7.74730000e+05
1615.000000 9.32484000e+05
1625.000000 1.07738000e+06
1635.000000 1.85544000e+06
1645.000000 4.33652000e+06
1655.000000 2.44782000e+06
1665.000000 5.83272000e+06
1672.000000 3.54806000e+06
1677.000000 8.29110000e+06
1685.000000 1.18017000e+07
1695.000000 7.09735000e+06
1705.000000 9.78335000e+06
1715.000000 1.49848000e+07
1725.000000 1.60383000e+07
1735.000000 2.09313000e+07
1745.000000 1.99300000e+07
1755.000000 2.51171000e+07
1765.000000 1.56679000e+07
1775.000000 2.27762000e+07
1785.000000 2.42315000e+07
1795.000000 3.01779000e+07
1805.000000 2.44676000e+07
1815.000000 2.54018000e+07
1825.000000 2.27624000e+07
1835.000000 2.22655000e+07
1845.000000 1.80804000e+07
1855.000000 2.21109000e+07
1865.000000 2.66759000e+07
1875.000000 2.57781000e+07
1885.000000 2.67172000e+07
1895.000000 2.82519000e+07
1905.000000 2.58404000e+07
1915.000000 2.90794000e+07
1925.000000 2.78875000e+07
1935.000000 1.98516000e+07
1945.000000 3.06341000e+07
1955.000000 3.13022000e+07
1967.000000 3.46176000e+07
1976.000000 3.34829000e+07
1984.000000 3.13969000e+07
1995.000000 3.13128000e+07
2005.000000 2.83173000e+07
2015.000000 2.89073000e+07
2025.000000 2.59160000e+07
2035.000000 3.07244000e+07
2045.000000 3.35199000e+07
2055.000000 3.20651000e+07
2065.000000 3.09222000e+07
2074.000000 3.57683000e+07
2078.000000 3.81669000e+07
2085.000000 3.65661000e+07
2095.000000 3.40153000e+07
2105.000000 3.13990000e+07
2115.000000 3.26525000e+07
2125.000000 3.36966000e+07
2135.000000 2.72425000e+07
2145.000000 3.28779000e+07
2155.000000 3.24721000e+07
2165.000000 2.96306000e+07
2175.000000 2.93563000e+07
2185.000000 3.21120000e+07
2195.000000 3.47507000e+07
2205.000000 3.27099000e+07
2215.000000 2.86228000e+07
2225.000000 2.89132000e+07
2235.000000 3.44162000e+07
2245.000000 3.06674000e+07
2255.000000 2.82157000e+07
2265.000000 2.76476000e+07
2275.000000 3.00852000e+07
2285.000000 3.25022000e+07
2295.000000 2.88443000e+07
2305.000000 3.04403000e+07
2315.000000 2.95958000e+07
2325.000000 2.89215000e+07
2335.000000 2.55132000e+07
2345.000000 2.06717000e+07
2355.000000 2.89896000e+07
2365.000000 2.19724000e+07
2375.000000 2.55226000e+07
2385.000000 1.90589000e+07
2395.000000 2.21439000e+07
2405.000000 2.16931000e+07
2415.000000 2.19175000e+07
2425.000000 2.70307000e+07
2435.000000 2.56337000e+07
2445.000000 2.83674000e+07
2455.000000 2.81086000e+07
2465.000000 2.83510000e+07
2475.000000 2.56777000e+07
2485.000000 2.56935000e+07
2495.000000 2.41705000e+07
2505.000000 3.04450000e+07
2513.000000 2.45252000e+07
2518.000000 2.42931000e+07
2525.000000 2.20142000e+07
2535.000000 2.08618000e+07
2545.000000 1.91127000e+07
2555.000000 2.17155000e+07
2565.000000 2.22268000e+07
2575.000000 2.67953000e+07
2585.000000 2.74216000e+07
2595.000000 2.68677000e+07
2605.000000 2.49892000e+07
2615.000000 2.34415000e+07
2625.000000 2.85512000e+07
2635.000000 2.93544000e+07
2645.000000 3.50434000e+07
2655.000000 3.63730000e+07
2665.000000 3.00859000e+07
2675.000000 3.30687000e+07
2685.000000 3.34975000e+07
2695.000000 2.99157000e+07
2705.000000 3.19233000e+07
2715.000000 2.86502000e+07
2725.000000 2.93373000e+07
2735.000000 3.21953000e+07
2745.000000 2.41426000e+07
2755.000000 2.61163000e+07
2765.000000 2.81359000e+07
2775.000000 3.14025000e+07
2785.000000 2.76229000e+07
2795.000000 1.37888000e+07
2805.000000 1.76715000e+07
2815.000000 3.28830000e+07
2825.000000 3.53508000e+07
2835.000000 3.35438000e+07
2845.000000 3.15388000e+07
2855.000000 2.77608000e+07
2865.000000 3.33260000e+07
2875.000000 3.28124000e+07
2885.000000 3.28700000e+07
2895.000000 3.13978000e+07
2910.000000 3.65776000e+07
2930.000000 3.43462000e+07
2950.000000 3.40985000e+07
2970.000000 3.55426000e+07
2990.000000 3.54863000e+07
3010.000000 3.60413000e+07
3030.000000 3.57095000e+07
3050.000000 3.57003000e+07
3070.000000 3.61148000e+07
3090.000000 3.63819000e+07
3110.000000 3.53916000e+07
3130.000000 3.52350000e+07
3150.000000 3.60950000e+07
3170.000000 3.58562000e+07
3190.000000 3.34725000e+07
3210.000000 3.45126000e+07
3230.000000 3.26652000e+07
3250.000000 3.41601000e+07
3270.000000 3.51814000e+07
3290.000000 3.52154000e+07
3310.000000 3.57539000e+07
3330.000000 3.49112000e+07
3350.000000 3.44050000e+07
3370.000000 3.38618000e+07
3390.000000 3.39552000e+07
3410.000000 3.39047000e+07
3430.000000 3.39940000e+07
3450.000000 3.37909000e+07
3470.000000 3.34119000e+07
3490.000000 3.34754000e+07
3510.000000 3.39390000e+07
3530.000000 3.34497000e+07
3550.000000 3.43443000e+07
3570.000000 3.26807000e+07
3590.000000 3.23263000e+07
3610.000000 3.24085000e+07
3630.000000 3.25956000e+07
3640.000000 3.21921000e+07
3650.000000 3.37013000e+07
3670.000000 3.34133000e+07
3690.000000 3.24600000e+07
3710.000000 3.19304000e+07
3730.000000 3.00075000e+07
3750.000000 3.36639000e+07
3770.000000 3.51207000e+07
3790.000000 4.15831000e+07
3810.000000 4.76696000e+07
3830.000000 3.81226000e+07
3850.000000 5.25731000e+07
3870.000000 5.87095000e+07
3890.000000 3.56711000e+07
3910.000000 5.88106000e+07
3930.000000 5.27717000e+07
3950.000000 5.85503000e+07
3970.000000 3.34663000e+07
3990.000000 5.82767000e+07
4010.000000 6.71104000e+07
4030.000000 6.78934000e+07
4050.000000 6.67950000e+07
4070.000000 6.27469000e+07
4090.000000 4.93993000e+07
4110.000000 3.85603000e+07
4130.000000 6.00800000e+07
4150.000000 6.47631000e+07
4170.000000 6.55148000e+07
4190.000000 6.47664000e+07
4210.000000 6.48518000e+07
4230.000000 6.28356000e+07
4250.000000 6.33364000e+07
4270.000000 6.09469000e+07
4290.000000 6.06891000e+07
4310.000000 5.49394000e+07
4330.000000 4.25699000e+07
4350.000000 3.66466000e+07
4370.000000 5.54533000e+07
4390.000000 5.82547000e+07
4410.000000 5.81557000e+07
4430.000000 5.73764000e+07
4450.000000 5.83648000e+07
4470.000000 5.81736000e+07
4490.000000 5.74472000e+07
4510.000000 5.86743000e+07
4530.000000 5.67401000e+07
4550.000000 5.60131000e+07
4570.000000 5.71618000e+07
4590.000000 5.54810000e+07
4610.000000 5.59915000e+07
4630.000000 5.46758000e+07
4650.000000 5.47919000e+07
4670.000000 5.46726000e+07
4690.000000 5.25699000e+07
4710.000000 5.04007000e+07
4730.000000 5.27690000e+07
4750.000000 5.24073000e+07
4770.000000 5.15830000e+07
4790.000000 5.06934000e+07
4810.000000 4.91769000e+07
4830.000000 4.60074000e+07
4850.000000 3.55196000e+07
4870.000000 2.88827000e+07
4890.000000 4.29207000e+07
4910.000000 4.62284000e+07
4930.000000 4.62803000e+07
4950.000000 4.71156000e+07
4970.000000 4.74067000e+07
4990.000000 4.59911000e+07
5010.000000 4.47751000e+07
5030.000000 4.56973000e+07
5050.000000 4.48633000e+07
5070.000000 4.53587000e+07
5090.000000 4.47295000e+07
5110.000000 4.46470000e+07
5130.000000 4.38386000e+07
5150.000000 4.29505000e+07
5170.000000 4.18422000e+07
5190.000000 4.14868000e+07
5210.000000 4.17768000e+07
5230.000000 4.13463000e+07
5250.000000 4.18834000e+07
5270.000000 3.95396000e+07
5290.000000 4.09132000e+07
5310.000000 4.04826000e+07
5330.000000 3.89342000e+07
5350.000000 3.98269000e+07
5370.000000 3.92996000e+07
5390.000000 3.89799000e+07
5410.000000 3.80693000e+07
5430.000000 3.83285000e+07
5450.000000 3.82190000e+07
5470.000000 3.78078000e+07
5490.000000 3.75528000e+07
5510.000000 3.73825000e+07
5530.000000 3.68637000e+07
5550.000000 3.68248000e+07
5570.000000 3.62086000e+07
5590.000000 3.57764000e+07
5610.000000 3.56738000e+07
5630.000000 3.56121000e+07
5650.000000 3.52684000e+07
5670.000000 3.47388000e+07
5690.000000 3.46300000e+07
5710.000000 3.42896000e+07
5730.000000 3.43674000e+07
5750.000000 3.38256000e+07
5770.000000 3.36413000e+07
5790.000000 3.33048000e+07
5810.000000 3.30904000e+07
5830.000000 3.28726000e+07
5850.000000 3.24754000e+07
5870.000000 3.22107000e+07
5890.000000 3.14896000e+07
5910.000000 3.16802000e+07
5930.000000 3.14176000e+07
5950.000000 3.11599000e+07
5970.000000 3.09230000e+07
5990.000000 3.05877000e+07
6010.000000 3.01925000e+07
6030.000000 3.00040000e+07
6050.000000 2.98533000e+07
6070.000000 2.96916000e+07
6090.000000 2.93669000e+07
6110.000000 2.90428000e+07
6130.000000 2.85327000e+07
6150.000000 2.81562000e+07
6170.000000 2.79532000e+07
6190.000000 2.81740000e+07
6210.000000 2.79586000e+07
6230.000000 2.75785000e+07
6250.000000 2.70088000e+07
6270.000000 2.72795000e+07
6290.000000 2.70672000e+07
6310.000000 2.66528000e+07
6330.000000 2.64940000e+07
6350.000000 2.60966000e+07
6370.000000 2.59302000e+07
6390.000000 2.58456000e+07
6410.000000 2.54352000e+07
6430.000000 2.53274000e+07
6450.000000 2.48473000e+07
6470.000000 2.47200000e+07
6490.000000 2.42414000e+07
6510.000000 2.38340000e+07
6530.000000 2.27022000e+07
6550.000000 1.93438000e+07
6570.000000 1.56321000e+07
6590.000000 2.12055000e+07
6610.000000 2.26708000e+07
6630.000000 2.30305000e+07
6650.000000 2.30617000e+07
6670.000000 2.29397000e+07
6690.000000 2.28877000e+07
6710.000000 2.27180000e+07
6730.000000 2.25657000e+07
6750.000000 2.22933000e+07
6770.000000 2.22727000e+07
6790.000000 2.20943000e+07
6810.000000 2.19176000e+07
6830.000000 2.17248000e+07
6850.000000 2.15396000e+07
6870.000000 2.14223000e+07
6890.000000 2.12632000e+07
6910.000000 2.10882000e+07
6930.000000 2.09149000e+07
6950.000000 2.07635000e+07
6970.000000 2.05895000e+07
6990.000000 2.04556000e+07
7010.000000 2.01497000e+07
7030.000000 2.00748000e+07
7050.000000 1.99641000e+07
7070.000000 1.98189000e+07
7090.000000 1.96683000e+07
7110.000000 1.92016000e+07
7130.000000 1.92697000e+07
7150.000000 1.91443000e+07
7170.000000 1.89900000e+07
7190.000000 1.88131000e+07
7210.000000 1.87241000e+07
7230.000000 1.85875000e+07
7250.000000 1.84134000e+07
7270.000000 1.83486000e+07
7290.000000 1.81070000e+07
7310.000000 1.80426000e+07
7330.000000 1.78945000e+07
7350.000000 1.78154000e+07
7370.000000 1.76827000e+07
7390.000000 1.74754000e+07
7410.000000 1.72673000e+07
7430.000000 1.71397000e+07
7450.000000 1.70661000e+07
7470.000000 1.68850000e+07
7490.000000 1.67883000e+07
7510.000000 1.67310000e+07
7530.000000 1.66257000e+07
7550.000000 1.65476000e+07
7570.000000 1.64064000e+07
7590.000000 1.62932000e+07
7610.000000 1.61641000e+07
7630.000000 1.60562000e+07
7650.000000 1.59176000e+07
7670.000000 1.57188000e+07
7690.000000 1.56435000e+07
7710.000000 1.55466000e+07
7730.000000 1.54757000e+07
7750.000000 1.53232000e+07
7770.000000 1.49455000e+07
7790.000000 1.51638000e+07
7810.000000 1.50349000e+07
7830.000000 1.48685000e+07
7850.000000 1.47348000e+07
7870.000000 1.46350000e+07
7890.000000 1.45137000e+07
7910.000000 1.44188000e+07
7930.000000 1.42616000e+07
7950.000000 1.41661000e+07
7970.000000 1.42019000e+07
7990.000000 1.39999000e+07
8010.000000 1.39664000e+07
8030.000000 1.38496000e+07
8050.000000 1.37704000e+07
8070.000000 1.36786000e+07
8090.000000 1.35673000e+07
8110.000000 1.35090000e+07
8130.000000 1.34312000e+07
8150.000000 1.33325000e+07
8170.000000 1.32385000e+07
8190.000000 1.29644000e+07
8210.000000 1.29243000e+07
8230.000000 1.28276000e+07
8250.000000 1.27655000e+07
8270.000000 1.28118000e+07
8290.000000 1.27139000e+07
8310.000000 1.25955000e+07
8330.000000 1.24123000e+07
8350.000000 1.24448000e+07
8370.000000 1.23967000e+07
8390.000000 1.22718000e+07
8410.000000 1.22258000e+07
8430.000000 1.21127000e+07
8450.000000 1.18739000e+07
8470.000000 1.19104000e+07
8490.000000 1.18412000e+07
8510.000000 1.14600000e+07
8530.000000 1.16818000e+07
8550.000000 1.07583000e+07
8570.000000 1.16274000e+07
8590.000000 1.12486000e+07
8610.000000 1.11110000e+07
8630.000000 1.14490000e+07
8650.000000 1.11379000e+07
8670.000000 9.89374000e+06
8690.000000 1.09832000e+07
8710.000000 1.12879000e+07
8730.000000 1.09208000e+07
8750.000000 9.49420000e+06
8770.000000 1.05442000e+07
8790.000000 1.10828000e+07
8810.000000 1.10763000e+07
8830.000000 1.07662000e+07
8850.000000 9.83592000e+06
8870.000000 8.74585000e+06
8890.000000 1.03425000e+07
8910.000000 1.07446000e+07
8930.000000 1.07990000e+07
8950.000000 1.08416000e+07
8970.000000 1.05966000e+07
8990.000000 1.00559000e+07
9010.000000 8.30446000e+06
9030.000000 8.94041000e+06
9050.000000 1.00555000e+07
9070.000000 1.01618000e+07
9090.000000 1.00976000e+07
9110.000000 1.03365000e+07
9130.000000 1.03830000e+07
9150.000000 1.03076000e+07
9170.000000 1.01094000e+07
9190.000000 9.76749000e+06
9210.000000 8.98697000e+06
9230.000000 7.26503000e+06
9250.000000 8.65184000e+06
9270.000000 9.31029000e+06
9290.000000 9.72422000e+06
9310.000000 9.80679000e+06
9330.000000 9.79725000e+06
9350.000000 9.77995000e+06
9370.000000 9.74296000e+06
9390.000000 9.63955000e+06
9410.000000 9.26761000e+06
9430.000000 9.44864000e+06
9450.000000 9.38422000e+06
9470.000000 9.30640000e+06
9490.000000 9.12039000e+06
9510.000000 8.76216000e+06
9530.000000 7.98250000e+06
9550.000000 6.55623000e+06
9570.000000 8.03603000e+06
9590.000000 8.60675000e+06
9610.000000 8.73943000e+06
9630.000000 8.72267000e+06
9650.000000 8.82612000e+06
9670.000000 8.72076000e+06
9690.000000 8.71930000e+06
9710.000000 8.77772000e+06
9730.000000 8.72297000e+06
9750.000000 8.62341000e+06
9770.000000 8.62564000e+06
9790.000000 8.57196000e+06
9810.000000 8.52217000e+06
9830.000000 8.45672000e+06
9850.000000 8.36961000e+06
9870.000000 8.30827000e+06
9890.000000 8.20075000e+06
9910.000000 8.16730000e+06
9930.000000 8.13443000e+06
9950.000000 8.06028000e+06
9970.000000 7.96999000e+06
9990.000000 7.81430000e+06
10025.000000 6.99775000e+06
10075.000000 6.65123000e+06
10125.000000 7.49853000e+06
10175.000000 7.54364000e+06
10225.000000 7.49923000e+06
10275.000000 7.41037000e+06
10325.000000 7.29071000e+06
10375.000000 7.18911000e+06
10425.000000 7.08357000e+06
10475.000000 6.90418000e+06
10525.000000 6.84792000e+06
10575.000000 6.74963000e+06
10625.000000 6.65455000e+06
10675.000000 6.41681000e+06
10725.000000 6.40265000e+06
10775.000000 6.31546000e+06
10825.000000 6.16980000e+06
10875.000000 5.93896000e+06
10925.000000 4.96464000e+06
10975.000000 5.40836000e+06
11025.000000 5.80387000e+06
11075.000000 5.82990000e+06
11125.000000 5.75966000e+06
11175.000000 5.69073000e+06
11225.000000 5.63327000e+06
11275.000000 5.46251000e+06
11325.000000 5.39647000e+06
11375.000000 5.37271000e+06
11425.000000 5.27182000e+06
11475.000000 5.25802000e+06
11525.000000 5.19123000e+06
11575.000000 5.11442000e+06
11625.000000 4.98661000e+06
11675.000000 4.88705000e+06
11725.000000 4.91507000e+06
11775.000000 4.74435000e+06
11825.000000 4.73206000e+06
11875.000000 4.64020000e+06
11925.000000 4.66284000e+06
11975.000000 4.54175000e+06
12025.000000 4.51266000e+06
12075.000000 4.44152000e+06
12125.000000 4.38907000e+06
12175.000000 4.35411000e+06
12225.000000 4.29160000e+06
12275.000000 4.22345000e+06
12325.000000 4.17388000e+06
12375.000000 4.12669000e+06
12425.000000 4.08207000e+06
12475.000000 4.02061000e+06
12525.000000 3.96024000e+06
12575.000000 3.88163000e+06
12625.000000 3.83724000e+06
12675.000000 3.78709000e+06
12725.000000 3.69364000e+06
12775.000000 3.46096000e+06
12825.000000 2.91776000e+06
12875.000000 3.41627000e+06
12925.000000 3.51662000e+06
12975.000000 3.51486000e+06
13025.000000 3.48593000e+06
13075.000000 3.45359000e+06
13125.000000 3.40611000e+06
13175.000000 3.35643000e+06
13225.000000 3.33412000e+06
13275.000000 3.29045000e+06
13325.000000 3.25286000e+06
13375.000000 3.21195000e+06
13425.000000 3.17386000e+06
13475.000000 3.13478000e+06
13525.000000 3.08920000e+06
13575.000000 3.04829000e+06
13625.000000 3.02109000e+06
13675.000000 2.98071000e+06
13725.000000 2.92243000e+06
13775.000000 2.90423000e+06
13825.000000 2.87144000e+06
13875.000000 2.84804000e+06
13925.000000 2.80101000e+06
13975.000000 2.77367000e+06
14025.000000 2.74129000e+06
14075.000000 2.71310000e+06
14125.000000 2.67429000e+06
14175.000000 2.64795000e+06
14225.000000 2.61057000e+06
14275.000000 2.57604000e+06
14325.000000 2.55479000e+06
14375.000000 2.52902000e+06
14425.000000 2.44671000e+06
14475.000000 2.46687000e+06
14525.000000 2.41260000e+06
14570.000000 2.40961000e+06
14620.000000 2.37623000e+06
14675.000000 2.35426000e+06
14725.000000 2.32092000e+06
14775.000000 2.28626000e+06
14825.000000 2.26829000e+06
