# Kurucz ODFNEW /NOVER, alpha: 0.0 (2003)
# teff = 26000 K (value for the effective temperature for the model. Temperatures are given in K)
# logg = 3.5 log(cm/s2) (value for Log(G) for the model.)
# lh = 1.25  (l/Hp where l is the  mixing length of the convective element and Hp is the pressure scale height)
# meta = -2  (value for the Metallicity for the model.)
# vtur = 2 km/s (Microturbulence velocity)
# alpha = 0  (Alpha)
#
# column 1: WAVELENGTH (ANGSTROM), Wavelength in Angstrom
# column 2: FLUX (ERG/CM2/S/A), Flux in erg/cm2/s/A
147.200000 1.39188000e-12
151.000000 6.05698000e-12
155.200000 2.82637000e-11
158.800000 9.90995000e-11
162.000000 2.88318000e-10
166.000000 1.03353000e-09
170.300000 3.80703000e-09
173.400000 9.35710000e-09
176.800000 2.41646000e-08
180.200000 6.01615000e-08
181.700000 8.89742000e-08
186.100000 2.70365000e-07
191.000000 8.76512000e-07
193.900000 1.70833000e-06
198.400000 4.62229000e-06
201.800000 9.51462000e-06
205.000000 1.83537000e-05
210.500000 5.40988000e-05
216.200000 1.56390000e-04
219.800000 2.96716000e-04
223.000000 5.14993000e-04
226.800000 9.70785000e-04
230.000000 5.23134000e-02
234.000000 1.25680000e-01
240.000000 2.79068000e-01
246.500000 6.40466000e-01
252.400000 1.31832000e+00
256.800000 1.95082000e+00
260.000000 3.09771000e+00
264.000000 4.70842000e+00
268.500000 7.52651000e+00
273.500000 1.23808000e+01
278.500000 1.99837000e+01
284.000000 3.32838000e+01
290.000000 5.63302000e+01
296.000000 9.29526000e+01
301.000000 1.35920000e+02
308.000000 2.16449000e+02
318.000000 4.98722000e+02
328.000000 9.80167000e+02
338.000000 1.87085000e+03
348.000000 3.40476000e+03
357.000000 5.69725000e+03
366.000000 9.29590000e+03
375.000000 1.44849000e+04
385.000000 2.35203000e+04
395.000000 3.68508000e+04
405.000000 5.63607000e+04
414.000000 8.13922000e+04
422.000000 1.10169000e+05
430.000000 1.47562000e+05
441.000000 2.17905000e+05
451.000000 3.04957000e+05
460.000000 4.04112000e+05
470.000000 5.49234000e+05
480.000000 7.31794000e+05
490.000000 9.63900000e+05
500.000000 1.25481000e+06
506.000000 9.31436000e+06
512.000000 2.72346000e+07
520.000000 3.02484000e+07
530.000000 3.61293000e+07
540.000000 3.68978000e+07
550.000000 4.69150000e+07
560.000000 5.22412000e+07
570.000000 5.94639000e+07
580.000000 5.84614000e+07
590.000000 7.11998000e+07
600.000000 7.96940000e+07
610.000000 8.89409000e+07
620.000000 9.69500000e+07
630.000000 1.06954000e+08
640.000000 1.13405000e+08
650.000000 1.25003000e+08
658.000000 1.35147000e+08
665.000000 1.42863000e+08
675.000000 1.50609000e+08
685.000000 1.60142000e+08
695.000000 1.80134000e+08
705.000000 1.88855000e+08
716.000000 2.07032000e+08
726.000000 2.19351000e+08
735.000000 2.33607000e+08
745.000000 2.51203000e+08
755.000000 2.66766000e+08
765.000000 2.82625000e+08
775.000000 3.00926000e+08
785.000000 3.19907000e+08
795.000000 3.35324000e+08
805.000000 3.53577000e+08
815.000000 3.69007000e+08
825.000000 3.90681000e+08
835.000000 3.94882000e+08
845.000000 4.24529000e+08
855.000000 4.42712000e+08
865.000000 4.64451000e+08
875.000000 4.87990000e+08
885.000000 5.09809000e+08
895.000000 5.30133000e+08
905.000000 5.45850000e+08
915.000000 9.50525000e+08
925.000000 9.52495000e+09
935.000000 1.86584000e+10
945.000000 3.10171000e+10
955.000000 3.40245000e+10
965.000000 3.90223000e+10
975.000000 2.16045000e+10
985.000000 3.73458000e+10
995.000000 3.54166000e+10
1005.000000 3.66355000e+10
1015.000000 3.53013000e+10
1025.000000 2.27097000e+10
1035.000000 3.31452000e+10
1045.000000 3.62266000e+10
1055.000000 3.52317000e+10
1065.000000 3.25491000e+10
1075.000000 3.33331000e+10
1085.000000 3.12325000e+10
1095.000000 3.27424000e+10
1105.000000 3.16156000e+10
1115.000000 3.11177000e+10
1125.000000 2.92180000e+10
1135.000000 3.01623000e+10
1145.000000 2.88993000e+10
1155.000000 2.90901000e+10
1165.000000 2.86761000e+10
1175.000000 2.46982000e+10
1185.000000 2.72629000e+10
1195.000000 2.63418000e+10
1205.000000 2.44247000e+10
1215.000000 1.56048000e+10
1225.000000 2.47421000e+10
1235.000000 2.51198000e+10
1245.000000 2.44481000e+10
1255.000000 2.42873000e+10
1265.000000 2.38177000e+10
1275.000000 2.35614000e+10
1285.000000 2.31346000e+10
1295.000000 2.16139000e+10
1305.000000 2.17531000e+10
1315.000000 2.18753000e+10
1325.000000 2.12084000e+10
1335.000000 2.05298000e+10
1345.000000 2.05689000e+10
1355.000000 2.03454000e+10
1365.000000 1.98458000e+10
1375.000000 1.94930000e+10
1385.000000 1.91844000e+10
1395.000000 1.80144000e+10
1405.000000 1.79307000e+10
1415.000000 1.80533000e+10
1425.000000 1.76660000e+10
1435.000000 1.75033000e+10
1442.000000 1.73751000e+10
1447.000000 1.71895000e+10
1455.000000 1.69126000e+10
1465.000000 1.65852000e+10
1475.000000 1.62998000e+10
1485.000000 1.60363000e+10
1495.000000 1.57212000e+10
1505.000000 1.53233000e+10
1512.000000 1.51099000e+10
1517.000000 1.50208000e+10
1525.000000 1.47834000e+10
1535.000000 1.41282000e+10
1545.000000 1.38816000e+10
1555.000000 1.35389000e+10
1565.000000 1.36135000e+10
1575.000000 1.35440000e+10
1585.000000 1.33610000e+10
1595.000000 1.31577000e+10
1605.000000 1.26860000e+10
1615.000000 1.24566000e+10
1625.000000 1.23615000e+10
1635.000000 1.22186000e+10
1645.000000 1.17675000e+10
1655.000000 1.19001000e+10
1665.000000 1.17206000e+10
1672.000000 1.15339000e+10
1677.000000 1.16293000e+10
1685.000000 1.14317000e+10
1695.000000 1.11970000e+10
1705.000000 1.09645000e+10
1715.000000 1.06925000e+10
1725.000000 1.05555000e+10
1735.000000 1.04799000e+10
1745.000000 1.02935000e+10
1755.000000 1.01686000e+10
1765.000000 9.90491000e+09
1775.000000 9.77999000e+09
1785.000000 9.69555000e+09
1795.000000 9.56139000e+09
1805.000000 9.45748000e+09
1815.000000 9.23976000e+09
1825.000000 9.11808000e+09
1835.000000 8.98809000e+09
1845.000000 8.65652000e+09
1855.000000 8.45889000e+09
1865.000000 8.43189000e+09
1875.000000 8.40659000e+09
1885.000000 8.05978000e+09
1895.000000 7.82167000e+09
1905.000000 7.92995000e+09
1915.000000 7.67384000e+09
1925.000000 7.52132000e+09
1935.000000 7.54903000e+09
1945.000000 7.52408000e+09
1955.000000 7.18600000e+09
1967.000000 7.25867000e+09
1976.000000 7.26342000e+09
1984.000000 7.05393000e+09
1995.000000 6.83911000e+09
2005.000000 6.89420000e+09
2015.000000 6.85674000e+09
2025.000000 6.79682000e+09
2035.000000 6.62256000e+09
2045.000000 6.52696000e+09
2055.000000 6.17162000e+09
2065.000000 6.06516000e+09
2074.000000 6.16048000e+09
2078.000000 6.04099000e+09
2085.000000 6.09937000e+09
2095.000000 6.01656000e+09
2105.000000 6.02169000e+09
2115.000000 5.97372000e+09
2125.000000 5.91755000e+09
2135.000000 5.82629000e+09
2145.000000 5.72157000e+09
2155.000000 5.67119000e+09
2165.000000 5.59047000e+09
2175.000000 5.51776000e+09
2185.000000 5.43873000e+09
2195.000000 5.38170000e+09
2205.000000 5.30735000e+09
2215.000000 5.22782000e+09
2225.000000 5.16176000e+09
2235.000000 5.08822000e+09
2245.000000 5.02871000e+09
2255.000000 4.94821000e+09
2265.000000 4.89587000e+09
2275.000000 4.83153000e+09
2285.000000 4.76841000e+09
2295.000000 4.63761000e+09
2305.000000 4.63369000e+09
2315.000000 4.57771000e+09
2325.000000 4.51863000e+09
2335.000000 4.45575000e+09
2345.000000 4.40454000e+09
2355.000000 4.34847000e+09
2365.000000 4.29291000e+09
2375.000000 4.23573000e+09
2385.000000 4.17386000e+09
2395.000000 4.12719000e+09
2405.000000 4.07594000e+09
2415.000000 4.02256000e+09
2425.000000 3.97465000e+09
2435.000000 3.92167000e+09
2445.000000 3.87410000e+09
2455.000000 3.82685000e+09
2465.000000 3.77887000e+09
2475.000000 3.73124000e+09
2485.000000 3.68468000e+09
2495.000000 3.54124000e+09
2505.000000 3.59305000e+09
2513.000000 3.52935000e+09
2518.000000 3.53353000e+09
2525.000000 3.50652000e+09
2535.000000 3.46396000e+09
2545.000000 3.41039000e+09
2555.000000 3.37711000e+09
2565.000000 3.33886000e+09
2575.000000 3.29934000e+09
2585.000000 3.25965000e+09
2595.000000 3.22071000e+09
2605.000000 3.20025000e+09
2615.000000 3.16193000e+09
2625.000000 3.12258000e+09
2635.000000 3.07993000e+09
2645.000000 3.04403000e+09
2655.000000 3.00543000e+09
2665.000000 2.96632000e+09
2675.000000 2.92997000e+09
2685.000000 2.91085000e+09
2695.000000 2.85723000e+09
2705.000000 2.84207000e+09
2715.000000 2.80972000e+09
2725.000000 2.75930000e+09
2735.000000 2.74103000e+09
2745.000000 2.71304000e+09
2755.000000 2.68261000e+09
2765.000000 2.63279000e+09
2775.000000 2.62246000e+09
2785.000000 2.59225000e+09
2795.000000 2.55116000e+09
2805.000000 2.53104000e+09
2815.000000 2.50586000e+09
2825.000000 2.45695000e+09
2835.000000 2.43735000e+09
2845.000000 2.42272000e+09
2855.000000 2.39524000e+09
2865.000000 2.36900000e+09
2875.000000 2.34288000e+09
2885.000000 2.31730000e+09
2895.000000 2.29157000e+09
2910.000000 2.25363000e+09
2930.000000 2.20498000e+09
2950.000000 2.14453000e+09
2970.000000 2.11122000e+09
2990.000000 2.06605000e+09
3010.000000 2.02147000e+09
3030.000000 1.97989000e+09
3050.000000 1.93846000e+09
3070.000000 1.89818000e+09
3090.000000 1.85660000e+09
3110.000000 1.82033000e+09
3130.000000 1.78434000e+09
3150.000000 1.74786000e+09
3170.000000 1.71178000e+09
3190.000000 1.66491000e+09
3210.000000 1.64240000e+09
3230.000000 1.61021000e+09
3250.000000 1.57800000e+09
3270.000000 1.54840000e+09
3290.000000 1.51585000e+09
3310.000000 1.48834000e+09
3330.000000 1.45927000e+09
3350.000000 1.42850000e+09
3370.000000 1.40347000e+09
3390.000000 1.37660000e+09
3410.000000 1.35042000e+09
3430.000000 1.31845000e+09
3450.000000 1.28906000e+09
3470.000000 1.26858000e+09
3490.000000 1.24496000e+09
3510.000000 1.22742000e+09
3530.000000 1.20569000e+09
3550.000000 1.18389000e+09
3570.000000 1.16726000e+09
3590.000000 1.13988000e+09
3610.000000 1.12076000e+09
3630.000000 1.09878000e+09
3640.000000 1.09553000e+09
3650.000000 1.07362000e+09
3670.000000 1.05840000e+09
3690.000000 1.02988000e+09
3710.000000 1.00195000e+09
3730.000000 9.75799000e+08
3750.000000 1.04051000e+09
3770.000000 1.03886000e+09
3790.000000 1.06705000e+09
3810.000000 1.10028000e+09
3830.000000 9.83422000e+08
3850.000000 1.10583000e+09
3870.000000 1.09397000e+09
3890.000000 9.37660000e+08
3910.000000 1.06934000e+09
3930.000000 1.04743000e+09
3950.000000 1.03285000e+09
3970.000000 8.68962000e+08
3990.000000 9.94848000e+08
4010.000000 9.79139000e+08
4030.000000 9.37480000e+08
4050.000000 9.52245000e+08
4070.000000 9.33449000e+08
4090.000000 8.89300000e+08
4110.000000 7.95895000e+08
4130.000000 8.79688000e+08
4150.000000 8.67292000e+08
4170.000000 8.57585000e+08
4190.000000 8.44911000e+08
4210.000000 8.30930000e+08
4230.000000 8.17385000e+08
4250.000000 8.03599000e+08
4270.000000 7.89229000e+08
4290.000000 7.77343000e+08
4310.000000 7.63372000e+08
4330.000000 7.18299000e+08
4350.000000 6.61837000e+08
4370.000000 7.26279000e+08
4390.000000 7.04311000e+08
4410.000000 7.04717000e+08
4430.000000 6.91765000e+08
4450.000000 6.83088000e+08
4470.000000 6.53364000e+08
4490.000000 6.61646000e+08
4510.000000 6.51494000e+08
4530.000000 6.41311000e+08
4550.000000 6.30955000e+08
4570.000000 6.21295000e+08
4590.000000 6.11762000e+08
4610.000000 6.02459000e+08
4630.000000 5.93241000e+08
4650.000000 5.82765000e+08
4670.000000 5.75159000e+08
4690.000000 5.65400000e+08
4710.000000 5.52083000e+08
4730.000000 5.49664000e+08
4750.000000 5.41305000e+08
4770.000000 5.33563000e+08
4790.000000 5.25636000e+08
4810.000000 5.17789000e+08
4830.000000 5.09182000e+08
4850.000000 4.84715000e+08
4870.000000 4.39776000e+08
4890.000000 4.86412000e+08
4910.000000 4.80848000e+08
4930.000000 4.66074000e+08
4950.000000 4.67112000e+08
4970.000000 4.60508000e+08
4990.000000 4.53904000e+08
5010.000000 4.42843000e+08
5030.000000 4.41056000e+08
5050.000000 4.32665000e+08
5070.000000 4.28672000e+08
5090.000000 4.22634000e+08
5110.000000 4.16706000e+08
5130.000000 4.10844000e+08
5150.000000 4.05102000e+08
5170.000000 3.99522000e+08
5190.000000 3.94001000e+08
5210.000000 3.88567000e+08
5230.000000 3.83232000e+08
5250.000000 3.77980000e+08
5270.000000 3.72824000e+08
5290.000000 3.67749000e+08
5310.000000 3.62766000e+08
5330.000000 3.57874000e+08
5350.000000 3.53058000e+08
5370.000000 3.48329000e+08
5390.000000 3.43661000e+08
5410.000000 3.38988000e+08
5430.000000 3.34579000e+08
5450.000000 3.30150000e+08
5470.000000 3.25801000e+08
5490.000000 3.21506000e+08
5510.000000 3.17303000e+08
5530.000000 3.13152000e+08
5550.000000 3.09077000e+08
5570.000000 3.05064000e+08
5590.000000 3.01113000e+08
5610.000000 2.97234000e+08
5630.000000 2.93414000e+08
5650.000000 2.89653000e+08
5670.000000 2.85914000e+08
5690.000000 2.82209000e+08
5710.000000 2.78722000e+08
5730.000000 2.75196000e+08
5750.000000 2.71701000e+08
5770.000000 2.68327000e+08
5790.000000 2.64959000e+08
5810.000000 2.61654000e+08
5830.000000 2.58388000e+08
5850.000000 2.55193000e+08
5870.000000 2.45913000e+08
5890.000000 2.48785000e+08
5910.000000 2.45853000e+08
5930.000000 2.42826000e+08
5950.000000 2.39855000e+08
5970.000000 2.36951000e+08
5990.000000 2.34069000e+08
6010.000000 2.31231000e+08
6030.000000 2.28436000e+08
6050.000000 2.25693000e+08
6070.000000 2.22981000e+08
6090.000000 2.20320000e+08
6110.000000 2.17690000e+08
6130.000000 2.15098000e+08
6150.000000 2.12536000e+08
6170.000000 2.10032000e+08
6190.000000 2.07557000e+08
6210.000000 2.05118000e+08
6230.000000 2.02716000e+08
6250.000000 2.00350000e+08
6270.000000 1.98010000e+08
6290.000000 1.95715000e+08
6310.000000 1.93445000e+08
6330.000000 1.91209000e+08
6350.000000 1.89007000e+08
6370.000000 1.86838000e+08
6390.000000 1.84701000e+08
6410.000000 1.82588000e+08
6430.000000 1.80506000e+08
6450.000000 1.78465000e+08
6470.000000 1.76427000e+08
6490.000000 1.74438000e+08
6510.000000 1.72479000e+08
6530.000000 1.70337000e+08
6550.000000 1.65418000e+08
6570.000000 1.49496000e+08
6590.000000 1.64162000e+08
6610.000000 1.63058000e+08
6630.000000 1.61261000e+08
6650.000000 1.59569000e+08
6670.000000 1.56564000e+08
6690.000000 1.54872000e+08
6710.000000 1.54376000e+08
6730.000000 1.52687000e+08
6750.000000 1.51031000e+08
6770.000000 1.49392000e+08
6790.000000 1.47761000e+08
6810.000000 1.46180000e+08
6830.000000 1.44606000e+08
6850.000000 1.43048000e+08
6870.000000 1.41522000e+08
6890.000000 1.40004000e+08
6910.000000 1.38516000e+08
6930.000000 1.37043000e+08
6950.000000 1.35592000e+08
6970.000000 1.34156000e+08
6990.000000 1.32734000e+08
7010.000000 1.31349000e+08
7030.000000 1.29970000e+08
7050.000000 1.28612000e+08
7070.000000 1.25368000e+08
7090.000000 1.25943000e+08
7110.000000 1.24640000e+08
7130.000000 1.23349000e+08
7150.000000 1.22077000e+08
7170.000000 1.20796000e+08
7190.000000 1.19579000e+08
7210.000000 1.18351000e+08
7230.000000 1.17034000e+08
7250.000000 1.15945000e+08
7270.000000 1.14773000e+08
7290.000000 1.12727000e+08
7310.000000 1.12442000e+08
7330.000000 1.11324000e+08
7350.000000 1.10203000e+08
7370.000000 1.09100000e+08
7390.000000 1.08006000e+08
7410.000000 1.06930000e+08
7430.000000 1.05864000e+08
7450.000000 1.04821000e+08
7470.000000 1.03781000e+08
7490.000000 1.02758000e+08
7510.000000 1.01710000e+08
7530.000000 1.00745000e+08
7550.000000 9.97562000e+07
7570.000000 9.87762000e+07
7590.000000 9.78116000e+07
7610.000000 9.68558000e+07
7630.000000 9.59152000e+07
7650.000000 9.49830000e+07
7670.000000 9.40656000e+07
7690.000000 9.31565000e+07
7710.000000 9.22619000e+07
7730.000000 9.13753000e+07
7750.000000 9.04903000e+07
7770.000000 8.96320000e+07
7790.000000 8.87812000e+07
7810.000000 8.78762000e+07
7830.000000 8.71022000e+07
7850.000000 8.63594000e+07
7870.000000 8.55439000e+07
7890.000000 8.46932000e+07
7910.000000 8.39403000e+07
7930.000000 8.31220000e+07
7950.000000 8.21977000e+07
7970.000000 8.13764000e+07
7990.000000 8.06509000e+07
8010.000000 7.98905000e+07
8030.000000 7.91834000e+07
8050.000000 7.84997000e+07
8070.000000 7.78045000e+07
8090.000000 7.69425000e+07
8110.000000 7.63057000e+07
8130.000000 7.57085000e+07
8150.000000 7.48780000e+07
8170.000000 7.43538000e+07
8190.000000 7.35811000e+07
8210.000000 7.26529000e+07
8230.000000 7.22113000e+07
8250.000000 7.15793000e+07
8270.000000 7.05780000e+07
8290.000000 7.02050000e+07
8310.000000 6.96001000e+07
8330.000000 6.89569000e+07
8350.000000 6.80218000e+07
8370.000000 6.75841000e+07
8390.000000 6.70589000e+07
8410.000000 6.64368000e+07
8430.000000 6.57614000e+07
8450.000000 6.48332000e+07
8470.000000 6.43646000e+07
8490.000000 6.40774000e+07
8510.000000 6.29598000e+07
8530.000000 6.31568000e+07
8550.000000 6.10219000e+07
8570.000000 6.28969000e+07
8590.000000 6.00669000e+07
8610.000000 5.96916000e+07
8630.000000 6.18230000e+07
8650.000000 6.01579000e+07
8670.000000 5.58763000e+07
8690.000000 6.03836000e+07
8710.000000 6.04443000e+07
8730.000000 5.87638000e+07
8750.000000 5.32502000e+07
8770.000000 5.72591000e+07
8790.000000 5.85445000e+07
8810.000000 5.80752000e+07
8830.000000 5.75031000e+07
8850.000000 5.45596000e+07
8870.000000 5.05789000e+07
8890.000000 5.57047000e+07
8910.000000 5.56779000e+07
8930.000000 5.52635000e+07
8950.000000 5.49462000e+07
8970.000000 5.44018000e+07
8990.000000 5.31672000e+07
9010.000000 4.79659000e+07
9030.000000 5.03779000e+07
9050.000000 5.23955000e+07
9070.000000 5.17846000e+07
9090.000000 5.16527000e+07
9110.000000 5.13853000e+07
9130.000000 5.09887000e+07
9150.000000 5.05681000e+07
9170.000000 5.00117000e+07
9190.000000 4.95712000e+07
9210.000000 4.78550000e+07
9230.000000 4.29154000e+07
9250.000000 4.73232000e+07
9270.000000 4.79346000e+07
9290.000000 4.77328000e+07
9310.000000 4.71541000e+07
9330.000000 4.69565000e+07
9350.000000 4.65490000e+07
9370.000000 4.62089000e+07
9390.000000 4.58328000e+07
9410.000000 4.54638000e+07
9430.000000 4.51017000e+07
9450.000000 4.47380000e+07
9470.000000 4.41376000e+07
9490.000000 4.40103000e+07
9510.000000 4.31589000e+07
9530.000000 4.17667000e+07
9550.000000 3.77326000e+07
9570.000000 4.18995000e+07
9590.000000 4.21633000e+07
9610.000000 4.18370000e+07
9630.000000 4.14522000e+07
9650.000000 4.13169000e+07
9670.000000 4.09931000e+07
9690.000000 4.06355000e+07
9710.000000 4.02405000e+07
9730.000000 4.00395000e+07
9750.000000 3.97287000e+07
9770.000000 3.94194000e+07
9790.000000 3.91139000e+07
9810.000000 3.88109000e+07
9830.000000 3.85116000e+07
9850.000000 3.82152000e+07
9870.000000 3.79209000e+07
9890.000000 3.76298000e+07
9910.000000 3.73300000e+07
9930.000000 3.70563000e+07
9950.000000 3.67732000e+07
9970.000000 3.64928000e+07
9990.000000 3.62147000e+07
10025.000000 3.46566000e+07
10075.000000 3.35649000e+07
10125.000000 3.43319000e+07
10175.000000 3.37704000e+07
10225.000000 3.31307000e+07
10275.000000 3.25343000e+07
10325.000000 3.18274000e+07
10375.000000 3.13544000e+07
10425.000000 3.07847000e+07
10475.000000 3.02274000e+07
10525.000000 2.96832000e+07
10575.000000 2.91508000e+07
10625.000000 2.86305000e+07
10675.000000 2.80733000e+07
10725.000000 2.76242000e+07
10775.000000 2.71374000e+07
10825.000000 2.63812000e+07
10875.000000 2.61685000e+07
10925.000000 2.41165000e+07
10975.000000 2.49704000e+07
11025.000000 2.47255000e+07
11075.000000 2.44244000e+07
11125.000000 2.40148000e+07
11175.000000 2.36061000e+07
11225.000000 2.31933000e+07
11275.000000 2.28144000e+07
11325.000000 2.24309000e+07
11375.000000 2.20557000e+07
11425.000000 2.16879000e+07
11475.000000 2.13282000e+07
11525.000000 2.09756000e+07
11575.000000 2.06303000e+07
11625.000000 2.02924000e+07
11675.000000 1.99609000e+07
11725.000000 1.96367000e+07
11775.000000 1.93187000e+07
11825.000000 1.90072000e+07
11875.000000 1.87019000e+07
11925.000000 1.84026000e+07
11975.000000 1.79726000e+07
12025.000000 1.78221000e+07
12075.000000 1.75402000e+07
12125.000000 1.72642000e+07
12175.000000 1.69933000e+07
12225.000000 1.67278000e+07
12275.000000 1.64675000e+07
12325.000000 1.62124000e+07
12375.000000 1.59619000e+07
12425.000000 1.57165000e+07
12475.000000 1.54756000e+07
12525.000000 1.52101000e+07
12575.000000 1.50077000e+07
12625.000000 1.47803000e+07
12675.000000 1.45572000e+07
12725.000000 1.43381000e+07
12775.000000 1.39362000e+07
12825.000000 1.30597000e+07
12875.000000 1.36630000e+07
12925.000000 1.35029000e+07
12975.000000 1.32256000e+07
13025.000000 1.31081000e+07
13075.000000 1.29161000e+07
