# Kurucz ODFNEW /NOVER, alpha: 0.0 (2003)
# teff = 8000 K (value for the effective temperature for the model. Temperatures are given in K)
# logg = 5 log(cm/s2) (value for Log(G) for the model.)
# lh = 1.25  (l/Hp where l is the  mixing length of the convective element and Hp is the pressure scale height)
# meta = 0  (value for the Metallicity for the model.)
# vtur = 2 km/s (Microturbulence velocity)
# alpha = 0  (Alpha)
#
# column 1: WAVELENGTH (ANGSTROM), Wavelength in Angstrom
# column 2: FLUX (ERG/CM2/S/A), Flux in erg/cm2/s/A
328.000000 9.93474000e-24
338.000000 9.50199000e-23
348.000000 7.92972000e-22
357.000000 4.80278000e-21
366.000000 2.65285000e-20
375.000000 1.34195000e-19
385.000000 7.39760000e-19
395.000000 3.71743000e-18
405.000000 1.71620000e-17
414.000000 6.35861000e-17
422.000000 1.93630000e-16
430.000000 5.64055000e-16
441.000000 2.29295000e-15
451.000000 7.69458000e-15
460.000000 2.17973000e-14
470.000000 6.59370000e-14
480.000000 1.89706000e-13
490.000000 5.21129000e-13
500.000000 1.36897000e-12
506.000000 3.16688000e-12
512.000000 6.16318000e-12
520.000000 1.24487000e-11
530.000000 2.92304000e-11
540.000000 6.51396000e-11
550.000000 1.42659000e-10
560.000000 3.00963000e-10
570.000000 6.16693000e-10
580.000000 1.21474000e-09
590.000000 2.38754000e-09
600.000000 4.52389000e-09
610.000000 8.38251000e-09
620.000000 1.51770000e-08
630.000000 2.69111000e-08
640.000000 4.67812000e-08
650.000000 7.98247000e-08
658.000000 1.20781000e-07
665.000000 1.71742000e-07
675.000000 2.80473000e-07
685.000000 4.50743000e-07
695.000000 7.13120000e-07
705.000000 1.10732000e-06
716.000000 1.78100000e-06
726.000000 2.69648000e-06
735.000000 3.87368000e-06
745.000000 5.72372000e-06
755.000000 8.36170000e-06
765.000000 1.20803000e-05
775.000000 1.72582000e-05
785.000000 2.44192000e-05
795.000000 3.38632000e-05
805.000000 4.71876000e-05
815.000000 6.50092000e-05
825.000000 8.84999000e-05
835.000000 1.19450000e-04
845.000000 1.59888000e-04
855.000000 2.12317000e-04
865.000000 2.79738000e-04
875.000000 3.64804000e-04
885.000000 4.74961000e-04
895.000000 6.12531000e-04
905.000000 7.82230000e-04
915.000000 3.06536000e-01
925.000000 1.00304000e+00
935.000000 1.32390000e+00
945.000000 1.75046000e+00
955.000000 2.36300000e+00
965.000000 3.02759000e+00
975.000000 3.66769000e+00
985.000000 4.70919000e+00
995.000000 5.73718000e+00
1005.000000 7.40982000e+00
1015.000000 9.14119000e+00
1025.000000 1.05902000e+01
1035.000000 1.36741000e+01
1045.000000 1.67492000e+01
1055.000000 2.03690000e+01
1065.000000 2.43537000e+01
1075.000000 2.97172000e+01
1085.000000 3.59505000e+01
1095.000000 4.25171000e+01
1105.000000 1.08324000e+02
1115.000000 3.17692000e+02
1125.000000 4.45601000e+02
1135.000000 6.20121000e+02
1145.000000 7.66404000e+02
1155.000000 8.34268000e+02
1165.000000 1.09975000e+03
1175.000000 1.29116000e+03
1185.000000 1.34552000e+03
1195.000000 8.67122000e+02
1205.000000 8.37145000e+02
1215.000000 2.44178000e+02
1225.000000 9.53657000e+02
1235.000000 2.00395000e+03
1245.000000 3.66613000e+03
1255.000000 6.76811000e+03
1265.000000 6.88894000e+03
1275.000000 9.46699000e+03
1285.000000 1.28712000e+04
1295.000000 1.51444000e+04
1305.000000 1.44980000e+04
1315.000000 1.88817000e+04
1325.000000 2.16237000e+04
1335.000000 2.38206000e+04
1345.000000 2.80096000e+04
1355.000000 2.89786000e+04
1365.000000 3.22921000e+04
1375.000000 3.48250000e+04
1385.000000 3.68417000e+04
1395.000000 4.15481000e+04
1405.000000 4.56669000e+04
1415.000000 4.85121000e+04
1425.000000 5.31377000e+04
1435.000000 5.42731000e+04
1442.000000 6.22102000e+04
1447.000000 6.44529000e+04
1455.000000 7.08891000e+04
1465.000000 7.22539000e+04
1475.000000 7.87078000e+04
1485.000000 8.56532000e+04
1495.000000 9.46263000e+04
1505.000000 1.03354000e+05
1512.000000 1.05588000e+05
1517.000000 1.12309000e+05
1525.000000 1.20390000e+05
1535.000000 1.64188000e+05
1545.000000 2.19675000e+05
1555.000000 2.35897000e+05
1565.000000 2.16419000e+05
1575.000000 2.84344000e+05
1585.000000 3.16877000e+05
1595.000000 3.55031000e+05
1605.000000 3.64924000e+05
1615.000000 4.01223000e+05
1625.000000 4.40969000e+05
1635.000000 6.77210000e+05
1645.000000 1.47321000e+06
1655.000000 8.86578000e+05
1665.000000 2.21440000e+06
1672.000000 1.41025000e+06
1677.000000 3.64308000e+06
1685.000000 5.61228000e+06
1695.000000 3.39368000e+06
1705.000000 5.31110000e+06
1715.000000 9.24152000e+06
1725.000000 1.02517000e+07
1735.000000 1.39279000e+07
1745.000000 1.32157000e+07
1755.000000 1.71680000e+07
1765.000000 1.01289000e+07
1775.000000 1.52814000e+07
1785.000000 1.65733000e+07
1795.000000 2.13128000e+07
1805.000000 1.66995000e+07
1815.000000 1.73897000e+07
1825.000000 1.54815000e+07
1835.000000 1.51856000e+07
1845.000000 1.19238000e+07
1855.000000 1.52267000e+07
1865.000000 1.92252000e+07
1875.000000 1.82641000e+07
1885.000000 1.90866000e+07
1895.000000 2.03691000e+07
1905.000000 1.85727000e+07
1915.000000 2.10214000e+07
1925.000000 1.96110000e+07
1935.000000 1.28497000e+07
1945.000000 2.21306000e+07
1955.000000 2.29042000e+07
1967.000000 2.56616000e+07
1976.000000 2.46864000e+07
1984.000000 2.29507000e+07
1995.000000 2.31716000e+07
2005.000000 2.07069000e+07
2015.000000 2.12590000e+07
2025.000000 1.87794000e+07
2035.000000 2.29555000e+07
2045.000000 2.50791000e+07
2055.000000 2.39846000e+07
2065.000000 2.30770000e+07
2074.000000 2.70793000e+07
2078.000000 2.96108000e+07
2085.000000 2.81991000e+07
2095.000000 2.59254000e+07
2105.000000 2.39351000e+07
2115.000000 2.52328000e+07
2125.000000 2.58752000e+07
2135.000000 2.10117000e+07
2145.000000 2.57003000e+07
2155.000000 2.53788000e+07
2165.000000 2.30367000e+07
2175.000000 2.28843000e+07
2185.000000 2.54624000e+07
2195.000000 2.75907000e+07
2205.000000 2.58231000e+07
2215.000000 2.23155000e+07
2225.000000 2.26702000e+07
2235.000000 2.73216000e+07
2245.000000 2.44888000e+07
2255.000000 2.20725000e+07
2265.000000 2.15806000e+07
2275.000000 2.36215000e+07
2285.000000 2.58721000e+07
2295.000000 2.26137000e+07
2305.000000 2.43125000e+07
2315.000000 2.35722000e+07
2325.000000 2.30284000e+07
2335.000000 1.97616000e+07
2345.000000 1.54589000e+07
2355.000000 2.28699000e+07
2365.000000 1.65537000e+07
2375.000000 1.98035000e+07
2385.000000 1.40308000e+07
2395.000000 1.66703000e+07
2405.000000 1.64616000e+07
2415.000000 1.67106000e+07
2425.000000 2.15213000e+07
2435.000000 2.03708000e+07
2445.000000 2.28173000e+07
2455.000000 2.27593000e+07
2465.000000 2.28739000e+07
2475.000000 2.05160000e+07
2485.000000 2.01310000e+07
2495.000000 1.89707000e+07
2505.000000 2.45657000e+07
2513.000000 1.91671000e+07
2518.000000 1.87220000e+07
2525.000000 1.68717000e+07
2535.000000 1.58079000e+07
2545.000000 1.43595000e+07
2555.000000 1.68656000e+07
2565.000000 1.72428000e+07
2575.000000 2.13204000e+07
2585.000000 2.18036000e+07
2595.000000 2.13779000e+07
2605.000000 1.96530000e+07
2615.000000 1.82133000e+07
2625.000000 2.28871000e+07
2635.000000 2.40582000e+07
2645.000000 2.91377000e+07
2655.000000 3.07940000e+07
2665.000000 2.48362000e+07
2675.000000 2.76186000e+07
2685.000000 2.81449000e+07
2695.000000 2.47392000e+07
2705.000000 2.67489000e+07
2715.000000 2.36477000e+07
2725.000000 2.42436000e+07
2735.000000 2.66463000e+07
2745.000000 1.92624000e+07
2755.000000 2.12730000e+07
2765.000000 2.33225000e+07
2775.000000 2.62354000e+07
2785.000000 2.22685000e+07
2795.000000 1.02154000e+07
2805.000000 1.33617000e+07
2815.000000 2.74690000e+07
2825.000000 3.02356000e+07
2835.000000 2.85898000e+07
2845.000000 2.67387000e+07
2855.000000 2.25880000e+07
2865.000000 2.84458000e+07
2875.000000 2.81890000e+07
2885.000000 2.79763000e+07
2895.000000 2.68780000e+07
2910.000000 3.16844000e+07
2930.000000 2.95845000e+07
2950.000000 2.93695000e+07
2970.000000 3.08562000e+07
2990.000000 3.07528000e+07
3010.000000 3.13547000e+07
3030.000000 3.10919000e+07
3050.000000 3.11747000e+07
3070.000000 3.16800000e+07
3090.000000 3.19388000e+07
3110.000000 3.10974000e+07
3130.000000 3.09350000e+07
3150.000000 3.16996000e+07
3170.000000 3.15468000e+07
3190.000000 2.92677000e+07
3210.000000 3.03040000e+07
3230.000000 2.84390000e+07
3250.000000 3.00224000e+07
3270.000000 3.11660000e+07
3290.000000 3.11255000e+07
3310.000000 3.17171000e+07
3330.000000 3.09961000e+07
3350.000000 3.05435000e+07
3370.000000 2.99429000e+07
3390.000000 3.01469000e+07
3410.000000 2.99904000e+07
3430.000000 3.00999000e+07
3450.000000 3.00045000e+07
3470.000000 2.96846000e+07
3490.000000 2.98232000e+07
3510.000000 3.02497000e+07
3530.000000 2.97144000e+07
3550.000000 3.07661000e+07
3570.000000 2.90280000e+07
3590.000000 2.86780000e+07
3610.000000 2.88240000e+07
3630.000000 2.90047000e+07
3640.000000 2.86579000e+07
3650.000000 3.02656000e+07
3670.000000 2.99310000e+07
3690.000000 2.90928000e+07
3710.000000 2.87034000e+07
3730.000000 2.69263000e+07
3750.000000 3.00607000e+07
3770.000000 3.14363000e+07
3790.000000 3.68544000e+07
3810.000000 4.19133000e+07
3830.000000 3.35307000e+07
3850.000000 4.58683000e+07
3870.000000 5.06426000e+07
3890.000000 3.20039000e+07
3910.000000 5.05506000e+07
3930.000000 4.33687000e+07
3950.000000 5.00753000e+07
3970.000000 2.96347000e+07
3990.000000 5.05056000e+07
4010.000000 5.71088000e+07
4030.000000 5.75896000e+07
4050.000000 5.66179000e+07
4070.000000 5.37181000e+07
4090.000000 4.38141000e+07
4110.000000 3.46642000e+07
4130.000000 5.19610000e+07
4150.000000 5.54469000e+07
4170.000000 5.58804000e+07
4190.000000 5.52001000e+07
4210.000000 5.52975000e+07
4230.000000 5.34979000e+07
4250.000000 5.41614000e+07
4270.000000 5.22213000e+07
4290.000000 5.20651000e+07
4310.000000 4.74844000e+07
4330.000000 3.82297000e+07
4350.000000 3.30909000e+07
4370.000000 4.85744000e+07
4390.000000 5.03769000e+07
4410.000000 5.01612000e+07
4430.000000 4.94598000e+07
4450.000000 5.02128000e+07
4470.000000 5.01454000e+07
4490.000000 4.96193000e+07
4510.000000 5.08749000e+07
4530.000000 4.89892000e+07
4550.000000 4.85122000e+07
4570.000000 4.96614000e+07
4590.000000 4.80780000e+07
4610.000000 4.85747000e+07
4630.000000 4.74670000e+07
4650.000000 4.75927000e+07
4670.000000 4.76144000e+07
4690.000000 4.58253000e+07
4710.000000 4.39102000e+07
4730.000000 4.60453000e+07
4750.000000 4.57853000e+07
4770.000000 4.51389000e+07
4790.000000 4.44359000e+07
4810.000000 4.32872000e+07
4830.000000 4.09319000e+07
4850.000000 3.23693000e+07
4870.000000 2.64333000e+07
4890.000000 3.83550000e+07
4910.000000 4.07887000e+07
4930.000000 4.06662000e+07
4950.000000 4.14329000e+07
4970.000000 4.16950000e+07
4990.000000 4.02993000e+07
5010.000000 3.92022000e+07
5030.000000 4.01657000e+07
5050.000000 3.94523000e+07
5070.000000 3.99682000e+07
5090.000000 3.93596000e+07
5110.000000 3.93536000e+07
5130.000000 3.86236000e+07
5150.000000 3.78043000e+07
5170.000000 3.68020000e+07
5190.000000 3.64784000e+07
5210.000000 3.68373000e+07
5230.000000 3.65506000e+07
5250.000000 3.70654000e+07
5270.000000 3.48082000e+07
5290.000000 3.62175000e+07
5310.000000 3.59372000e+07
5330.000000 3.44029000e+07
5350.000000 3.53150000e+07
5370.000000 3.48826000e+07
5390.000000 3.46151000e+07
5410.000000 3.37547000e+07
5430.000000 3.40763000e+07
5450.000000 3.40207000e+07
5470.000000 3.36453000e+07
5490.000000 3.34156000e+07
5510.000000 3.33012000e+07
5530.000000 3.28698000e+07
5550.000000 3.28719000e+07
5570.000000 3.22853000e+07
5590.000000 3.19052000e+07
5610.000000 3.18553000e+07
5630.000000 3.18385000e+07
5650.000000 3.15439000e+07
5670.000000 3.10417000e+07
5690.000000 3.09879000e+07
5710.000000 3.06799000e+07
5730.000000 3.08494000e+07
5750.000000 3.03309000e+07
5770.000000 3.02014000e+07
5790.000000 2.98919000e+07
5810.000000 2.97356000e+07
5830.000000 2.95674000e+07
5850.000000 2.91938000e+07
5870.000000 2.89756000e+07
5890.000000 2.82883000e+07
5910.000000 2.85232000e+07
5930.000000 2.82958000e+07
5950.000000 2.80899000e+07
5970.000000 2.78830000e+07
5990.000000 2.75879000e+07
6010.000000 2.72346000e+07
6030.000000 2.70553000e+07
6050.000000 2.69693000e+07
6070.000000 2.68410000e+07
6090.000000 2.65339000e+07
6110.000000 2.62414000e+07
6130.000000 2.57496000e+07
6150.000000 2.54540000e+07
6170.000000 2.52368000e+07
6190.000000 2.55065000e+07
6210.000000 2.53308000e+07
6230.000000 2.49656000e+07
6250.000000 2.44289000e+07
6270.000000 2.47410000e+07
6290.000000 2.45630000e+07
6310.000000 2.41634000e+07
6330.000000 2.40354000e+07
6350.000000 2.37076000e+07
6370.000000 2.35590000e+07
6390.000000 2.34929000e+07
6410.000000 2.31063000e+07
6430.000000 2.30339000e+07
6450.000000 2.26178000e+07
6470.000000 2.25133000e+07
6490.000000 2.20993000e+07
6510.000000 2.18072000e+07
6530.000000 2.09008000e+07
6550.000000 1.80354000e+07
6570.000000 1.46302000e+07
6590.000000 1.96250000e+07
6610.000000 2.08273000e+07
6630.000000 2.10893000e+07
6650.000000 2.10963000e+07
6670.000000 2.09658000e+07
6690.000000 2.09324000e+07
6710.000000 2.07693000e+07
6730.000000 2.06435000e+07
6750.000000 2.03891000e+07
6770.000000 2.03839000e+07
6790.000000 2.02206000e+07
6810.000000 2.00606000e+07
6830.000000 1.98957000e+07
6850.000000 1.97154000e+07
6870.000000 1.96287000e+07
6890.000000 1.94872000e+07
6910.000000 1.93351000e+07
6930.000000 1.91821000e+07
6950.000000 1.90500000e+07
6970.000000 1.88958000e+07
6990.000000 1.87801000e+07
7010.000000 1.84815000e+07
7030.000000 1.84359000e+07
7050.000000 1.83451000e+07
7070.000000 1.82106000e+07
7090.000000 1.80795000e+07
7110.000000 1.76672000e+07
7130.000000 1.77186000e+07
7150.000000 1.76034000e+07
7170.000000 1.74614000e+07
7190.000000 1.72922000e+07
7210.000000 1.72298000e+07
7230.000000 1.71115000e+07
7250.000000 1.69642000e+07
7270.000000 1.69081000e+07
7290.000000 1.66715000e+07
7310.000000 1.66326000e+07
7330.000000 1.64978000e+07
7350.000000 1.64381000e+07
7370.000000 1.63199000e+07
7390.000000 1.61144000e+07
7410.000000 1.59184000e+07
7430.000000 1.58226000e+07
7450.000000 1.57588000e+07
7470.000000 1.56111000e+07
7490.000000 1.55164000e+07
7510.000000 1.54673000e+07
7530.000000 1.53759000e+07
7550.000000 1.53117000e+07
7570.000000 1.51777000e+07
7590.000000 1.50795000e+07
7610.000000 1.49613000e+07
7630.000000 1.48707000e+07
7650.000000 1.47441000e+07
7670.000000 1.45482000e+07
7690.000000 1.44924000e+07
7710.000000 1.44052000e+07
7730.000000 1.43491000e+07
7750.000000 1.41998000e+07
7770.000000 1.38785000e+07
7790.000000 1.40743000e+07
7810.000000 1.39535000e+07
7830.000000 1.37987000e+07
7850.000000 1.36814000e+07
7870.000000 1.36034000e+07
7890.000000 1.34964000e+07
7910.000000 1.34006000e+07
7930.000000 1.32384000e+07
7950.000000 1.31677000e+07
7970.000000 1.32097000e+07
7990.000000 1.30392000e+07
8010.000000 1.29923000e+07
8030.000000 1.28874000e+07
8050.000000 1.28124000e+07
8070.000000 1.27391000e+07
8090.000000 1.26307000e+07
8110.000000 1.25857000e+07
8130.000000 1.25193000e+07
8150.000000 1.24273000e+07
8170.000000 1.23434000e+07
8190.000000 1.20793000e+07
8210.000000 1.20462000e+07
8230.000000 1.19611000e+07
8250.000000 1.19087000e+07
8270.000000 1.19547000e+07
8290.000000 1.18647000e+07
8310.000000 1.17455000e+07
8330.000000 1.15784000e+07
8350.000000 1.16116000e+07
8370.000000 1.15750000e+07
8390.000000 1.14535000e+07
8410.000000 1.14210000e+07
8430.000000 1.13122000e+07
8450.000000 1.10978000e+07
8470.000000 1.11295000e+07
8490.000000 1.10578000e+07
8510.000000 1.06912000e+07
8530.000000 1.09103000e+07
8550.000000 9.99252000e+06
8570.000000 1.08738000e+07
8590.000000 1.05450000e+07
8610.000000 1.04229000e+07
8630.000000 1.07034000e+07
8650.000000 1.04395000e+07
8670.000000 9.27779000e+06
8690.000000 1.02713000e+07
8710.000000 1.05345000e+07
8730.000000 1.02328000e+07
8750.000000 9.02084000e+06
8770.000000 9.92459000e+06
8790.000000 1.03373000e+07
8810.000000 1.03099000e+07
8830.000000 1.00608000e+07
8850.000000 9.30538000e+06
8870.000000 8.34267000e+06
8890.000000 9.71472000e+06
8910.000000 1.00161000e+07
8930.000000 1.00323000e+07
8950.000000 1.00726000e+07
8970.000000 9.87745000e+06
8990.000000 9.45132000e+06
9010.000000 7.91372000e+06
9030.000000 8.49919000e+06
9050.000000 9.43083000e+06
9070.000000 9.46759000e+06
9090.000000 9.37537000e+06
9110.000000 9.58482000e+06
9130.000000 9.63642000e+06
9150.000000 9.57410000e+06
9170.000000 9.41410000e+06
9190.000000 9.14568000e+06
9210.000000 8.49221000e+06
9230.000000 6.94929000e+06
9250.000000 8.19217000e+06
9270.000000 8.73511000e+06
9290.000000 9.06814000e+06
9310.000000 9.12223000e+06
9330.000000 9.10091000e+06
9350.000000 9.08012000e+06
9370.000000 9.04569000e+06
9390.000000 8.95464000e+06
9410.000000 8.59795000e+06
9430.000000 8.77674000e+06
9450.000000 8.72191000e+06
9470.000000 8.67208000e+06
9490.000000 8.52639000e+06
9510.000000 8.23480000e+06
9530.000000 7.58388000e+06
9550.000000 6.27989000e+06
9570.000000 7.62016000e+06
9590.000000 8.08652000e+06
9610.000000 8.16956000e+06
9630.000000 8.13972000e+06
9650.000000 8.22051000e+06
9670.000000 8.11966000e+06
9690.000000 8.11667000e+06
9710.000000 8.17037000e+06
9730.000000 8.12130000e+06
9750.000000 8.02382000e+06
9770.000000 8.02968000e+06
9790.000000 7.98079000e+06
9810.000000 7.93810000e+06
9830.000000 7.87932000e+06
9850.000000 7.80193000e+06
9870.000000 7.74482000e+06
9890.000000 7.65036000e+06
9910.000000 7.61606000e+06
9930.000000 7.59725000e+06
9950.000000 7.53440000e+06
9970.000000 7.46024000e+06
9990.000000 7.33414000e+06
10025.000000 6.64277000e+06
10075.000000 6.32425000e+06
10125.000000 7.03991000e+06
10175.000000 7.05422000e+06
10225.000000 7.01314000e+06
10275.000000 6.93613000e+06
10325.000000 6.81894000e+06
10375.000000 6.72887000e+06
10425.000000 6.63363000e+06
10475.000000 6.46677000e+06
10525.000000 6.42009000e+06
10575.000000 6.32853000e+06
10625.000000 6.24108000e+06
10675.000000 6.02175000e+06
10725.000000 6.01257000e+06
10775.000000 5.93548000e+06
10825.000000 5.80362000e+06
10875.000000 5.61404000e+06
10925.000000 4.75411000e+06
10975.000000 5.15252000e+06
11025.000000 5.48432000e+06
11075.000000 5.49911000e+06
11125.000000 5.42909000e+06
11175.000000 5.36553000e+06
11225.000000 5.31216000e+06
11275.000000 5.15372000e+06
11325.000000 5.09422000e+06
11375.000000 5.07137000e+06
11425.000000 4.97599000e+06
11475.000000 4.96791000e+06
11525.000000 4.90703000e+06
11575.000000 4.83549000e+06
11625.000000 4.71509000e+06
11675.000000 4.62476000e+06
11725.000000 4.65364000e+06
11775.000000 4.49275000e+06
11825.000000 4.48204000e+06
11875.000000 4.39629000e+06
11925.000000 4.42255000e+06
11975.000000 4.30347000e+06
12025.000000 4.28078000e+06
12075.000000 4.21440000e+06
12125.000000 4.16741000e+06
12175.000000 4.13783000e+06
12225.000000 4.07985000e+06
12275.000000 4.01518000e+06
12325.000000 3.97101000e+06
12375.000000 3.92669000e+06
12425.000000 3.88539000e+06
12475.000000 3.83010000e+06
12525.000000 3.77316000e+06
12575.000000 3.70105000e+06
12625.000000 3.66045000e+06
12675.000000 3.61544000e+06
12725.000000 3.53404000e+06
12775.000000 3.32823000e+06
12825.000000 2.81905000e+06
12875.000000 3.28309000e+06
12925.000000 3.36711000e+06
12975.000000 3.36269000e+06
13025.000000 3.33359000e+06
13075.000000 3.30374000e+06
13125.000000 3.25675000e+06
13175.000000 3.21059000e+06
13225.000000 3.19174000e+06
13275.000000 3.14979000e+06
13325.000000 3.11558000e+06
13375.000000 3.07675000e+06
13425.000000 3.04238000e+06
13475.000000 3.00553000e+06
13525.000000 2.96296000e+06
13575.000000 2.92338000e+06
13625.000000 2.89953000e+06
13675.000000 2.86104000e+06
13725.000000 2.80564000e+06
13775.000000 2.78888000e+06
13825.000000 2.75849000e+06
13875.000000 2.73767000e+06
13925.000000 2.69279000e+06
13975.000000 2.66700000e+06
14025.000000 2.63595000e+06
14075.000000 2.61079000e+06
14125.000000 2.57251000e+06
14175.000000 2.54971000e+06
14225.000000 2.51227000e+06
14275.000000 2.47880000e+06
14325.000000 2.46171000e+06
14375.000000 2.43805000e+06
14425.000000 2.35546000e+06
14475.000000 2.37931000e+06
14525.000000 2.32510000e+06
14570.000000 2.32425000e+06
14620.000000 2.29251000e+06
14675.000000 2.27204000e+06
14725.000000 2.23856000e+06
14775.000000 2.20635000e+06
14825.000000 2.18995000e+06
14875.000000 2.14938000e+06
