# Kurucz ODFNEW /NOVER, alpha: 0.0 (2003)
# teff = 29000 K (value for the effective temperature for the model. Temperatures are given in K)
# logg = 5 log(cm/s2) (value for Log(G) for the model.)
# lh = 1.25  (l/Hp where l is the  mixing length of the convective element and Hp is the pressure scale height)
# meta = 0  (value for the Metallicity for the model.)
# vtur = 2 km/s (Microturbulence velocity)
# alpha = 0  (Alpha)
#
# column 1: WAVELENGTH (ANGSTROM), Wavelength in Angstrom
# column 2: FLUX (ERG/CM2/S/A), Flux in erg/cm2/s/A
147.200000 9.64433000e-10
151.000000 3.12556000e-09
155.200000 1.07746000e-08
158.800000 2.96798000e-08
162.000000 7.06217000e-08
166.000000 1.99903000e-07
170.300000 5.81602000e-07
173.400000 1.22195000e-06
176.800000 2.67666000e-06
180.200000 5.70616000e-06
181.700000 7.90010000e-06
186.100000 1.99878000e-05
191.000000 5.36608000e-05
193.900000 9.41633000e-05
198.400000 2.18577000e-04
201.800000 4.03444000e-04
205.000000 7.05795000e-04
210.500000 1.77915000e-03
216.200000 4.42227000e-03
219.800000 7.67876000e-03
223.000000 1.23619000e-02
226.800000 2.15074000e-02
230.000000 2.52309000e+00
234.000000 5.55345000e+00
240.000000 1.07708000e+01
246.500000 2.16773000e+01
252.400000 3.99250000e+01
256.800000 5.82179000e+01
260.000000 8.90330000e+01
264.000000 1.27582000e+02
268.500000 1.94358000e+02
273.500000 2.98917000e+02
278.500000 4.47054000e+02
284.000000 7.68770000e+02
290.000000 1.20388000e+03
296.000000 1.85166000e+03
301.000000 2.58992000e+03
308.000000 4.26712000e+03
318.000000 8.79348000e+03
328.000000 1.53621000e+04
338.000000 2.79160000e+04
348.000000 4.73338000e+04
357.000000 1.38585000e+05
366.000000 2.46859000e+05
375.000000 3.39961000e+05
385.000000 5.18538000e+05
395.000000 8.61993000e+05
405.000000 1.18342000e+06
414.000000 1.63584000e+06
422.000000 2.04017000e+06
430.000000 2.67806000e+06
441.000000 3.65841000e+06
451.000000 4.67076000e+06
460.000000 5.72447000e+06
470.000000 7.46774000e+06
480.000000 9.43034000e+06
490.000000 1.18860000e+07
500.000000 1.46765000e+07
506.000000 5.09985000e+07
512.000000 3.04092000e+08
520.000000 3.15190000e+08
530.000000 3.39432000e+08
540.000000 3.31667000e+08
550.000000 4.38550000e+08
560.000000 4.98169000e+08
570.000000 5.50287000e+08
580.000000 5.20579000e+08
590.000000 6.18059000e+08
600.000000 6.31932000e+08
610.000000 7.06309000e+08
620.000000 7.67679000e+08
630.000000 7.86538000e+08
640.000000 7.47591000e+08
650.000000 7.83249000e+08
658.000000 8.43100000e+08
665.000000 9.17236000e+08
675.000000 9.39209000e+08
685.000000 9.09979000e+08
695.000000 1.14370000e+09
705.000000 1.11846000e+09
716.000000 1.25161000e+09
726.000000 1.26533000e+09
735.000000 1.28586000e+09
745.000000 1.40483000e+09
755.000000 1.44869000e+09
765.000000 1.51574000e+09
775.000000 1.57779000e+09
785.000000 1.65933000e+09
795.000000 1.68228000e+09
805.000000 1.70777000e+09
815.000000 1.72392000e+09
825.000000 1.83254000e+09
835.000000 1.64530000e+09
845.000000 1.83926000e+09
855.000000 1.85220000e+09
865.000000 1.93675000e+09
875.000000 2.01462000e+09
885.000000 2.11644000e+09
895.000000 2.17306000e+09
905.000000 2.14817000e+09
915.000000 2.33833000e+09
925.000000 8.43874000e+09
935.000000 1.83977000e+10
945.000000 3.94791000e+10
955.000000 5.15139000e+10
965.000000 6.70950000e+10
975.000000 1.54132000e+10
985.000000 6.28293000e+10
995.000000 5.69989000e+10
1005.000000 6.34680000e+10
1015.000000 6.19822000e+10
1025.000000 2.68671000e+10
1035.000000 5.22739000e+10
1045.000000 7.29879000e+10
1055.000000 6.81144000e+10
1065.000000 5.52228000e+10
1075.000000 6.15090000e+10
1085.000000 5.50041000e+10
1095.000000 6.08473000e+10
1105.000000 5.62861000e+10
1115.000000 5.50810000e+10
1125.000000 4.41404000e+10
1135.000000 5.39173000e+10
1145.000000 4.85716000e+10
1155.000000 4.92083000e+10
1165.000000 4.79619000e+10
1175.000000 3.01629000e+10
1185.000000 4.42908000e+10
1195.000000 4.16558000e+10
1205.000000 3.35211000e+10
1215.000000 1.87542000e+10
1225.000000 3.58171000e+10
1235.000000 4.13971000e+10
1245.000000 4.01466000e+10
1255.000000 3.96409000e+10
1265.000000 4.02714000e+10
1275.000000 4.09794000e+10
1285.000000 4.05220000e+10
1295.000000 3.27774000e+10
1305.000000 3.42104000e+10
1315.000000 3.88445000e+10
1325.000000 3.62926000e+10
1335.000000 3.52098000e+10
1345.000000 3.47757000e+10
1355.000000 3.46049000e+10
1365.000000 3.20818000e+10
1375.000000 3.11367000e+10
1385.000000 3.02605000e+10
1395.000000 2.29113000e+10
1405.000000 2.42810000e+10
1415.000000 2.71395000e+10
1425.000000 2.56505000e+10
1435.000000 2.65932000e+10
1442.000000 2.70821000e+10
1447.000000 2.65948000e+10
1455.000000 2.56572000e+10
1465.000000 2.40250000e+10
1475.000000 2.41765000e+10
1485.000000 2.37990000e+10
1495.000000 2.32289000e+10
1505.000000 2.11947000e+10
1512.000000 1.94170000e+10
1517.000000 1.98376000e+10
1525.000000 2.01014000e+10
1535.000000 1.70951000e+10
1545.000000 1.63174000e+10
1555.000000 1.58200000e+10
1565.000000 1.71182000e+10
1575.000000 1.80056000e+10
1585.000000 1.79305000e+10
1595.000000 1.77908000e+10
1605.000000 1.75757000e+10
1615.000000 1.68748000e+10
1625.000000 1.68932000e+10
1635.000000 1.74749000e+10
1645.000000 1.72645000e+10
1655.000000 1.72477000e+10
1665.000000 1.72205000e+10
1672.000000 1.63745000e+10
1677.000000 1.79595000e+10
1685.000000 1.72056000e+10
1695.000000 1.63908000e+10
1705.000000 1.58738000e+10
1715.000000 1.51795000e+10
1725.000000 1.46697000e+10
1735.000000 1.51369000e+10
1745.000000 1.48736000e+10
1755.000000 1.48122000e+10
1765.000000 1.45154000e+10
1775.000000 1.37485000e+10
1785.000000 1.39165000e+10
1795.000000 1.40390000e+10
1805.000000 1.40399000e+10
1815.000000 1.29136000e+10
1825.000000 1.31536000e+10
1835.000000 1.27925000e+10
1845.000000 1.16648000e+10
1855.000000 1.18470000e+10
1865.000000 1.19889000e+10
1875.000000 1.21593000e+10
1885.000000 1.09704000e+10
1895.000000 1.02590000e+10
1905.000000 1.09219000e+10
1915.000000 1.03879000e+10
1925.000000 9.79911000e+09
1935.000000 1.03735000e+10
1945.000000 1.06356000e+10
1955.000000 9.55676000e+09
1967.000000 1.01906000e+10
1976.000000 1.06547000e+10
1984.000000 9.83586000e+09
1995.000000 9.67280000e+09
2005.000000 9.88112000e+09
2015.000000 9.81669000e+09
2025.000000 9.98273000e+09
2035.000000 9.20076000e+09
2045.000000 9.24972000e+09
2055.000000 8.68007000e+09
2065.000000 8.65124000e+09
2074.000000 8.94732000e+09
2078.000000 8.30891000e+09
2085.000000 8.54716000e+09
2095.000000 8.20646000e+09
2105.000000 8.61346000e+09
2115.000000 8.60631000e+09
2125.000000 8.65565000e+09
2135.000000 8.46401000e+09
2145.000000 8.10476000e+09
2155.000000 8.30763000e+09
2165.000000 8.19409000e+09
2175.000000 8.08388000e+09
2185.000000 7.88956000e+09
2195.000000 7.91925000e+09
2205.000000 7.83751000e+09
2215.000000 7.70471000e+09
2225.000000 7.53242000e+09
2235.000000 7.38485000e+09
2245.000000 7.38954000e+09
2255.000000 7.18472000e+09
2265.000000 7.19507000e+09
2275.000000 7.08821000e+09
2285.000000 7.01151000e+09
2295.000000 6.46974000e+09
2305.000000 6.75926000e+09
2315.000000 6.61663000e+09
2325.000000 6.53942000e+09
2335.000000 6.39812000e+09
2345.000000 6.40622000e+09
2355.000000 6.32999000e+09
2365.000000 6.25468000e+09
2375.000000 6.11042000e+09
2385.000000 6.03836000e+09
2395.000000 5.95960000e+09
2405.000000 5.87654000e+09
2415.000000 5.79936000e+09
2425.000000 5.76175000e+09
2435.000000 5.61279000e+09
2445.000000 5.58273000e+09
2455.000000 5.54409000e+09
2465.000000 5.46820000e+09
2475.000000 5.38056000e+09
2485.000000 5.28549000e+09
2495.000000 4.64976000e+09
2505.000000 5.10921000e+09
2513.000000 4.88339000e+09
2518.000000 5.02052000e+09
2525.000000 5.01914000e+09
2535.000000 4.96572000e+09
2545.000000 4.81185000e+09
2555.000000 4.80703000e+09
2565.000000 4.74958000e+09
2575.000000 4.71419000e+09
2585.000000 4.66183000e+09
2595.000000 4.60644000e+09
2605.000000 4.56021000e+09
2615.000000 4.49719000e+09
2625.000000 4.45610000e+09
2635.000000 4.40574000e+09
2645.000000 4.33501000e+09
2655.000000 4.29659000e+09
2665.000000 4.16262000e+09
2675.000000 4.14219000e+09
2685.000000 4.13041000e+09
2695.000000 3.98742000e+09
2705.000000 3.93384000e+09
2715.000000 3.91871000e+09
2725.000000 3.88453000e+09
2735.000000 3.84978000e+09
2745.000000 3.78303000e+09
2755.000000 3.75914000e+09
2765.000000 3.69164000e+09
2775.000000 3.70853000e+09
2785.000000 3.64833000e+09
2795.000000 3.51960000e+09
2805.000000 3.53487000e+09
2815.000000 3.53642000e+09
2825.000000 3.46347000e+09
2835.000000 3.35963000e+09
2845.000000 3.40540000e+09
2855.000000 3.34683000e+09
2865.000000 3.32277000e+09
2875.000000 3.28425000e+09
2885.000000 3.24446000e+09
2895.000000 3.20167000e+09
2910.000000 3.13214000e+09
2930.000000 3.08149000e+09
2950.000000 2.98050000e+09
2970.000000 2.94033000e+09
2990.000000 2.86522000e+09
3010.000000 2.77396000e+09
3030.000000 2.74235000e+09
3050.000000 2.69172000e+09
3070.000000 2.64329000e+09
3090.000000 2.54325000e+09
3110.000000 2.52432000e+09
3130.000000 2.45948000e+09
3150.000000 2.41422000e+09
3170.000000 2.35390000e+09
3190.000000 2.29486000e+09
3210.000000 2.26642000e+09
3230.000000 2.21154000e+09
3250.000000 2.17385000e+09
3270.000000 2.12447000e+09
3290.000000 2.08021000e+09
3310.000000 2.04098000e+09
3330.000000 1.99520000e+09
3350.000000 1.95617000e+09
3370.000000 1.91627000e+09
3390.000000 1.88383000e+09
3410.000000 1.84641000e+09
3430.000000 1.80444000e+09
3450.000000 1.76231000e+09
3470.000000 1.73014000e+09
3490.000000 1.69539000e+09
3510.000000 1.66515000e+09
3530.000000 1.63760000e+09
3550.000000 1.60598000e+09
3570.000000 1.58491000e+09
3590.000000 1.53549000e+09
3610.000000 1.51408000e+09
3630.000000 1.48366000e+09
3640.000000 1.48382000e+09
3650.000000 1.45186000e+09
3670.000000 1.43381000e+09
3690.000000 1.40896000e+09
3710.000000 1.35839000e+09
3730.000000 1.31866000e+09
3750.000000 1.29825000e+09
3770.000000 1.25549000e+09
3790.000000 1.29195000e+09
3810.000000 1.33476000e+09
3830.000000 1.17473000e+09
3850.000000 1.36070000e+09
3870.000000 1.36946000e+09
3890.000000 1.09859000e+09
3910.000000 1.36135000e+09
3930.000000 1.33972000e+09
3950.000000 1.30707000e+09
3970.000000 1.01886000e+09
3990.000000 1.25560000e+09
4010.000000 1.26518000e+09
4030.000000 1.18260000e+09
4050.000000 1.23066000e+09
4070.000000 1.17236000e+09
4090.000000 1.06746000e+09
4110.000000 9.47483000e+08
4130.000000 1.11414000e+09
4150.000000 1.11204000e+09
4170.000000 1.10842000e+09
4190.000000 1.09289000e+09
4210.000000 1.08195000e+09
4230.000000 1.05901000e+09
4250.000000 1.02923000e+09
4270.000000 1.00060000e+09
4290.000000 9.88572000e+08
4310.000000 9.55487000e+08
4330.000000 8.57265000e+08
4350.000000 7.86090000e+08
4370.000000 9.05954000e+08
4390.000000 8.90271000e+08
4410.000000 8.96122000e+08
4430.000000 8.88952000e+08
4450.000000 8.73217000e+08
4470.000000 8.18473000e+08
4490.000000 8.44348000e+08
4510.000000 8.38006000e+08
4530.000000 8.24528000e+08
4550.000000 8.11272000e+08
4570.000000 7.97530000e+08
4590.000000 7.83621000e+08
4610.000000 7.66360000e+08
4630.000000 7.53884000e+08
4650.000000 7.29868000e+08
4670.000000 7.32198000e+08
4690.000000 7.24082000e+08
4710.000000 6.96158000e+08
4730.000000 7.00319000e+08
4750.000000 6.88724000e+08
4770.000000 6.85643000e+08
4790.000000 6.73230000e+08
4810.000000 6.58248000e+08
4830.000000 6.41455000e+08
4850.000000 5.85134000e+08
4870.000000 5.23773000e+08
4890.000000 6.12088000e+08
4910.000000 6.09815000e+08
4930.000000 5.85626000e+08
4950.000000 5.92927000e+08
4970.000000 5.88637000e+08
4990.000000 5.79132000e+08
5010.000000 5.55711000e+08
5030.000000 5.61277000e+08
5050.000000 5.48760000e+08
5070.000000 5.46403000e+08
5090.000000 5.37479000e+08
5110.000000 5.29038000e+08
5130.000000 5.18722000e+08
5150.000000 5.11875000e+08
5170.000000 5.06921000e+08
5190.000000 5.00379000e+08
5210.000000 4.92658000e+08
5230.000000 4.86157000e+08
5250.000000 4.79398000e+08
5270.000000 4.72009000e+08
5290.000000 4.66091000e+08
5310.000000 4.59393000e+08
5330.000000 4.53154000e+08
5350.000000 4.46402000e+08
5370.000000 4.40941000e+08
5390.000000 4.34576000e+08
5410.000000 4.28846000e+08
5430.000000 4.22894000e+08
5450.000000 4.16917000e+08
5470.000000 4.11293000e+08
5490.000000 4.05814000e+08
5510.000000 4.00851000e+08
5530.000000 3.94901000e+08
5550.000000 3.90238000e+08
5570.000000 3.84878000e+08
5590.000000 3.79947000e+08
5610.000000 3.74777000e+08
5630.000000 3.70063000e+08
5650.000000 3.64190000e+08
5670.000000 3.58181000e+08
5690.000000 3.52397000e+08
5710.000000 3.49910000e+08
5730.000000 3.45831000e+08
5750.000000 3.40444000e+08
5770.000000 3.37443000e+08
5790.000000 3.32879000e+08
5810.000000 3.28672000e+08
5830.000000 3.23916000e+08
5850.000000 3.20164000e+08
5870.000000 3.05248000e+08
5890.000000 3.09293000e+08
5910.000000 3.07505000e+08
5930.000000 3.03356000e+08
5950.000000 2.99426000e+08
5970.000000 2.97063000e+08
5990.000000 2.92363000e+08
6010.000000 2.89409000e+08
6030.000000 2.85420000e+08
6050.000000 2.82178000e+08
6070.000000 2.79013000e+08
6090.000000 2.75629000e+08
6110.000000 2.72233000e+08
6130.000000 2.69056000e+08
6150.000000 2.64789000e+08
6170.000000 2.62016000e+08
6190.000000 2.59234000e+08
6210.000000 2.56287000e+08
6230.000000 2.53286000e+08
6250.000000 2.49864000e+08
6270.000000 2.47055000e+08
6290.000000 2.44277000e+08
6310.000000 2.41246000e+08
6330.000000 2.38586000e+08
6350.000000 2.35339000e+08
6370.000000 2.32962000e+08
6390.000000 2.30178000e+08
6410.000000 2.27515000e+08
6430.000000 2.24990000e+08
6450.000000 2.22320000e+08
6470.000000 2.19040000e+08
6490.000000 2.16708000e+08
6510.000000 2.14037000e+08
6530.000000 2.10271000e+08
6550.000000 1.98935000e+08
6570.000000 1.75610000e+08
6590.000000 2.00535000e+08
6610.000000 2.01625000e+08
6630.000000 2.00197000e+08
6650.000000 1.98049000e+08
6670.000000 1.93509000e+08
6690.000000 1.91479000e+08
6710.000000 1.91661000e+08
6730.000000 1.89151000e+08
6750.000000 1.87478000e+08
6770.000000 1.85418000e+08
6790.000000 1.82228000e+08
6810.000000 1.81126000e+08
6830.000000 1.79130000e+08
6850.000000 1.77339000e+08
6870.000000 1.75390000e+08
6890.000000 1.73310000e+08
6910.000000 1.71275000e+08
6930.000000 1.69738000e+08
6950.000000 1.67928000e+08
6970.000000 1.66121000e+08
6990.000000 1.64323000e+08
7010.000000 1.62551000e+08
7030.000000 1.60782000e+08
7050.000000 1.59082000e+08
7070.000000 1.54702000e+08
7090.000000 1.55741000e+08
7110.000000 1.53748000e+08
7130.000000 1.52168000e+08
7150.000000 1.50839000e+08
7170.000000 1.49266000e+08
7190.000000 1.47730000e+08
7210.000000 1.46187000e+08
7230.000000 1.42900000e+08
7250.000000 1.42958000e+08
7270.000000 1.41667000e+08
7290.000000 1.38998000e+08
7310.000000 1.38732000e+08
7330.000000 1.37289000e+08
7350.000000 1.35915000e+08
7370.000000 1.34540000e+08
7390.000000 1.33164000e+08
7410.000000 1.31815000e+08
7430.000000 1.30445000e+08
7450.000000 1.29148000e+08
7470.000000 1.27418000e+08
7490.000000 1.26503000e+08
7510.000000 1.25236000e+08
7530.000000 1.23953000e+08
7550.000000 1.22802000e+08
7570.000000 1.21582000e+08
7590.000000 1.20360000e+08
7610.000000 1.19032000e+08
7630.000000 1.17969000e+08
7650.000000 1.16818000e+08
7670.000000 1.15672000e+08
7690.000000 1.14530000e+08
7710.000000 1.13391000e+08
7730.000000 1.12263000e+08
7750.000000 1.11214000e+08
7770.000000 1.09875000e+08
7790.000000 1.09063000e+08
7810.000000 1.07955000e+08
7830.000000 1.06962000e+08
7850.000000 1.05978000e+08
7870.000000 1.04837000e+08
7890.000000 1.03683000e+08
7910.000000 1.02919000e+08
7930.000000 1.01903000e+08
7950.000000 1.00926000e+08
7970.000000 9.99635000e+07
7990.000000 9.90034000e+07
8010.000000 9.80517000e+07
8030.000000 9.70614000e+07
8050.000000 9.61611000e+07
8070.000000 9.53091000e+07
8090.000000 9.42858000e+07
8110.000000 9.30710000e+07
8130.000000 9.26593000e+07
8150.000000 9.17570000e+07
8170.000000 9.09809000e+07
8190.000000 8.98126000e+07
8210.000000 8.89061000e+07
8230.000000 8.80351000e+07
8250.000000 8.75313000e+07
8270.000000 8.60894000e+07
8290.000000 8.58938000e+07
8310.000000 8.51862000e+07
8330.000000 8.43868000e+07
8350.000000 8.32752000e+07
8370.000000 8.27217000e+07
8390.000000 8.21405000e+07
8410.000000 8.13615000e+07
8430.000000 8.06313000e+07
8450.000000 7.93215000e+07
8470.000000 7.92046000e+07
8490.000000 7.83145000e+07
8510.000000 7.77075000e+07
8530.000000 7.68982000e+07
8550.000000 7.61472000e+07
8570.000000 7.58179000e+07
8590.000000 7.38825000e+07
8610.000000 7.39208000e+07
8630.000000 7.41148000e+07
8650.000000 7.24281000e+07
8670.000000 7.05958000e+07
8690.000000 7.21021000e+07
8710.000000 7.20793000e+07
8730.000000 7.00885000e+07
8750.000000 6.63880000e+07
8770.000000 6.81673000e+07
8790.000000 6.98078000e+07
8810.000000 6.96417000e+07
8830.000000 6.84616000e+07
8850.000000 6.45162000e+07
8870.000000 6.14053000e+07
8890.000000 6.59056000e+07
8910.000000 6.67822000e+07
8930.000000 6.65165000e+07
8950.000000 6.61302000e+07
8970.000000 6.52410000e+07
8990.000000 6.29094000e+07
9010.000000 5.70105000e+07
9030.000000 5.88789000e+07
9050.000000 6.22666000e+07
9070.000000 6.20380000e+07
9090.000000 6.22669000e+07
9110.000000 6.20528000e+07
9130.000000 6.15778000e+07
9150.000000 6.10030000e+07
9170.000000 6.01771000e+07
9190.000000 5.92241000e+07
9210.000000 5.60670000e+07
9230.000000 5.02082000e+07
9250.000000 5.50019000e+07
9270.000000 5.69963000e+07
9290.000000 5.73274000e+07
9310.000000 5.68119000e+07
9330.000000 5.65469000e+07
9350.000000 5.62579000e+07
9370.000000 5.58764000e+07
9390.000000 5.54292000e+07
9410.000000 5.49131000e+07
9430.000000 5.45024000e+07
9450.000000 5.39429000e+07
9470.000000 5.30978000e+07
9490.000000 5.27822000e+07
9510.000000 5.13608000e+07
9530.000000 4.85280000e+07
9550.000000 4.36532000e+07
9570.000000 4.88060000e+07
9590.000000 5.02821000e+07
9610.000000 5.02077000e+07
9630.000000 4.97719000e+07
9650.000000 4.98490000e+07
9670.000000 4.94979000e+07
9690.000000 4.90611000e+07
9710.000000 4.84996000e+07
9730.000000 4.83362000e+07
9750.000000 4.79519000e+07
9770.000000 4.75900000e+07
9790.000000 4.72032000e+07
9810.000000 4.67995000e+07
9830.000000 4.64689000e+07
9850.000000 4.60979000e+07
9870.000000 4.57102000e+07
9890.000000 4.53059000e+07
9910.000000 4.47243000e+07
9930.000000 4.46742000e+07
9950.000000 4.42703000e+07
9970.000000 4.38162000e+07
9990.000000 4.33616000e+07
10025.000000 4.05628000e+07
10075.000000 3.91777000e+07
10125.000000 4.11032000e+07
10175.000000 4.06638000e+07
10225.000000 3.98960000e+07
10275.000000 3.91696000e+07
10325.000000 3.82576000e+07
10375.000000 3.77322000e+07
10425.000000 3.70384000e+07
10475.000000 3.63595000e+07
10525.000000 3.56849000e+07
10575.000000 3.50451000e+07
10625.000000 3.44124000e+07
10675.000000 3.37172000e+07
10725.000000 3.31874000e+07
10775.000000 3.25913000e+07
10825.000000 3.16315000e+07
10875.000000 3.11929000e+07
10925.000000 2.78880000e+07
10975.000000 2.92362000e+07
11025.000000 2.95310000e+07
11075.000000 2.92469000e+07
11125.000000 2.87949000e+07
11175.000000 2.83013000e+07
11225.000000 2.78016000e+07
11275.000000 2.73256000e+07
11325.000000 2.68440000e+07
11375.000000 2.64158000e+07
11425.000000 2.59576000e+07
11475.000000 2.55374000e+07
11525.000000 2.51118000e+07
11575.000000 2.46774000e+07
11625.000000 2.42779000e+07
11675.000000 2.38651000e+07
11725.000000 2.34896000e+07
11775.000000 2.31004000e+07
11825.000000 2.27257000e+07
11875.000000 2.23587000e+07
11925.000000 2.19965000e+07
11975.000000 2.13371000e+07
12025.000000 2.12932000e+07
12075.000000 2.09542000e+07
12125.000000 2.06193000e+07
12175.000000 2.02924000e+07
12225.000000 1.99717000e+07
12275.000000 1.96581000e+07
12325.000000 1.93496000e+07
12375.000000 1.90462000e+07
12425.000000 1.87515000e+07
12475.000000 1.84499000e+07
12525.000000 1.81235000e+07
12575.000000 1.78870000e+07
12625.000000 1.76149000e+07
12675.000000 1.73501000e+07
12725.000000 1.70318000e+07
12775.000000 1.63805000e+07
12825.000000 1.49342000e+07
12875.000000 1.60998000e+07
12925.000000 1.60352000e+07
12975.000000 1.56888000e+07
13025.000000 1.55998000e+07
13075.000000 1.53761000e+07
