# Kurucz ODFNEW /NOVER, alpha: 0.0 (2003)
# teff = 24000 K (value for the effective temperature for the model. Temperatures are given in K)
# logg = 4 log(cm/s2) (value for Log(G) for the model.)
# lh = 1.25  (l/Hp where l is the  mixing length of the convective element and Hp is the pressure scale height)
# meta = 0  (value for the Metallicity for the model.)
# vtur = 2 km/s (Microturbulence velocity)
# alpha = 0  (Alpha)
#
# column 1: WAVELENGTH (ANGSTROM), Wavelength in Angstrom
# column 2: FLUX (ERG/CM2/S/A), Flux in erg/cm2/s/A
147.200000 2.47828000e-15
151.000000 1.10691000e-14
155.200000 5.35118000e-14
158.800000 1.94464000e-13
162.000000 5.86512000e-13
166.000000 2.20780000e-12
170.300000 8.61401000e-12
173.400000 2.21558000e-11
176.800000 6.01994000e-11
180.200000 1.58015000e-10
181.700000 2.39286000e-10
186.100000 7.81279000e-10
191.000000 2.75104000e-09
193.900000 5.63463000e-09
198.400000 1.64895000e-08
201.800000 3.60279000e-08
205.000000 7.35207000e-08
210.500000 2.38968000e-07
216.200000 7.63180000e-07
219.800000 1.54241000e-06
223.000000 2.83034000e-06
226.800000 5.69764000e-06
230.000000 4.09339000e-04
234.000000 9.51249000e-04
240.000000 2.29275000e-03
246.500000 5.69023000e-03
252.400000 1.26279000e-02
256.800000 2.11575000e-02
260.000000 3.43164000e-02
264.000000 5.47938000e-02
268.500000 9.24680000e-02
273.500000 1.61284000e-01
278.500000 2.77662000e-01
284.000000 5.14444000e-01
290.000000 9.28295000e-01
296.000000 1.64415000e+00
301.000000 2.57708000e+00
308.000000 4.81316000e+00
318.000000 1.16263000e+01
328.000000 2.47306000e+01
338.000000 5.30219000e+01
348.000000 1.05468000e+02
357.000000 2.75764000e+02
366.000000 5.01327000e+02
375.000000 8.03422000e+02
385.000000 1.37808000e+03
395.000000 2.36823000e+03
405.000000 3.76948000e+03
414.000000 5.73218000e+03
422.000000 8.04276000e+03
430.000000 1.14916000e+04
441.000000 1.78250000e+04
451.000000 2.57245000e+04
460.000000 3.51412000e+04
470.000000 5.03051000e+04
480.000000 6.98176000e+04
490.000000 9.67132000e+04
500.000000 1.30831000e+05
506.000000 7.72908000e+05
512.000000 5.71495000e+06
520.000000 6.67065000e+06
530.000000 8.14414000e+06
540.000000 8.96722000e+06
550.000000 1.27702000e+07
560.000000 1.50439000e+07
570.000000 1.83274000e+07
580.000000 1.79540000e+07
590.000000 2.36016000e+07
600.000000 2.69519000e+07
610.000000 3.19233000e+07
620.000000 3.52630000e+07
630.000000 3.82595000e+07
640.000000 3.66088000e+07
650.000000 2.84415000e+07
658.000000 4.33397000e+07
665.000000 5.26948000e+07
675.000000 5.70231000e+07
685.000000 6.00808000e+07
695.000000 7.57678000e+07
705.000000 7.85862000e+07
716.000000 8.89105000e+07
726.000000 9.35755000e+07
735.000000 9.80344000e+07
745.000000 1.11568000e+08
755.000000 1.20198000e+08
765.000000 1.30060000e+08
775.000000 1.40330000e+08
785.000000 1.51016000e+08
795.000000 1.57904000e+08
805.000000 1.65691000e+08
815.000000 1.72386000e+08
825.000000 1.88186000e+08
835.000000 1.75250000e+08
845.000000 1.98863000e+08
855.000000 2.05947000e+08
865.000000 2.20567000e+08
875.000000 2.36167000e+08
885.000000 2.55535000e+08
895.000000 2.68452000e+08
905.000000 2.67888000e+08
915.000000 3.91252000e+08
925.000000 2.64790000e+09
935.000000 6.91901000e+09
945.000000 1.49452000e+10
955.000000 1.97984000e+10
965.000000 2.32270000e+10
975.000000 3.69606000e+09
985.000000 1.97916000e+10
995.000000 1.97649000e+10
1005.000000 2.36815000e+10
1015.000000 2.34951000e+10
1025.000000 1.08423000e+10
1035.000000 1.76516000e+10
1045.000000 2.83196000e+10
1055.000000 2.59650000e+10
1065.000000 2.07887000e+10
1075.000000 2.42320000e+10
1085.000000 2.13507000e+10
1095.000000 2.43084000e+10
1105.000000 2.17021000e+10
1115.000000 2.07418000e+10
1125.000000 1.68950000e+10
1135.000000 2.21989000e+10
1145.000000 1.98729000e+10
1155.000000 2.05689000e+10
1165.000000 2.03853000e+10
1175.000000 1.21159000e+10
1185.000000 1.94167000e+10
1195.000000 1.74139000e+10
1205.000000 1.10342000e+10
1215.000000 8.16633000e+09
1225.000000 1.57410000e+10
1235.000000 1.86358000e+10
1245.000000 1.81894000e+10
1255.000000 1.78390000e+10
1265.000000 1.79729000e+10
1275.000000 1.85711000e+10
1285.000000 1.83555000e+10
1295.000000 1.25631000e+10
1305.000000 1.34468000e+10
1315.000000 1.76210000e+10
1325.000000 1.63406000e+10
1335.000000 1.54867000e+10
1345.000000 1.60450000e+10
1355.000000 1.57582000e+10
1365.000000 1.43002000e+10
1375.000000 1.39326000e+10
1385.000000 1.36461000e+10
1395.000000 1.01222000e+10
1405.000000 1.09536000e+10
1415.000000 1.19471000e+10
1425.000000 1.18427000e+10
1435.000000 1.22077000e+10
1442.000000 1.25196000e+10
1447.000000 1.22551000e+10
1455.000000 1.18764000e+10
1465.000000 1.08642000e+10
1475.000000 1.10976000e+10
1485.000000 1.09174000e+10
1495.000000 1.07007000e+10
1505.000000 9.65282000e+09
1512.000000 8.53289000e+09
1517.000000 8.83623000e+09
1525.000000 9.18325000e+09
1535.000000 7.76395000e+09
1545.000000 7.61532000e+09
1555.000000 7.37591000e+09
1565.000000 7.96596000e+09
1575.000000 8.47929000e+09
1585.000000 8.48975000e+09
1595.000000 8.39888000e+09
1605.000000 8.52664000e+09
1615.000000 8.34684000e+09
1625.000000 8.16539000e+09
1635.000000 8.66377000e+09
1645.000000 8.61026000e+09
1655.000000 8.46347000e+09
1665.000000 8.66489000e+09
1672.000000 8.26152000e+09
1677.000000 8.91614000e+09
1685.000000 8.67179000e+09
1695.000000 8.15567000e+09
1705.000000 7.88209000e+09
1715.000000 7.43180000e+09
1725.000000 7.32601000e+09
1735.000000 7.64704000e+09
1745.000000 7.43097000e+09
1755.000000 7.50493000e+09
1765.000000 7.32096000e+09
1775.000000 6.89900000e+09
1785.000000 7.02138000e+09
1795.000000 7.26689000e+09
1805.000000 7.32050000e+09
1815.000000 6.45966000e+09
1825.000000 6.76459000e+09
1835.000000 6.51429000e+09
1845.000000 5.91795000e+09
1855.000000 5.92559000e+09
1865.000000 6.01721000e+09
1875.000000 6.36136000e+09
1885.000000 5.61687000e+09
1895.000000 5.20284000e+09
1905.000000 5.68620000e+09
1915.000000 5.30676000e+09
1925.000000 5.04193000e+09
1935.000000 5.36908000e+09
1945.000000 5.47066000e+09
1955.000000 4.91785000e+09
1967.000000 5.37944000e+09
1976.000000 5.60833000e+09
1984.000000 5.17424000e+09
1995.000000 5.07389000e+09
2005.000000 5.28402000e+09
2015.000000 5.19292000e+09
2025.000000 5.37410000e+09
2035.000000 4.85683000e+09
2045.000000 4.96880000e+09
2055.000000 4.79602000e+09
2065.000000 4.79695000e+09
2074.000000 5.06702000e+09
2078.000000 4.52267000e+09
2085.000000 4.79835000e+09
2095.000000 4.52296000e+09
2105.000000 4.68116000e+09
2115.000000 4.69376000e+09
2125.000000 4.73737000e+09
2135.000000 4.64897000e+09
2145.000000 4.38022000e+09
2155.000000 4.58692000e+09
2165.000000 4.56997000e+09
2175.000000 4.50781000e+09
2185.000000 4.34299000e+09
2195.000000 4.41314000e+09
2205.000000 4.38172000e+09
2215.000000 4.30224000e+09
2225.000000 4.18353000e+09
2235.000000 4.13592000e+09
2245.000000 4.16987000e+09
2255.000000 4.02213000e+09
2265.000000 4.08245000e+09
2275.000000 4.01949000e+09
2285.000000 4.02393000e+09
2295.000000 3.71664000e+09
2305.000000 3.88037000e+09
2315.000000 3.75617000e+09
2325.000000 3.71173000e+09
2335.000000 3.58500000e+09
2345.000000 3.60066000e+09
2355.000000 3.60214000e+09
2365.000000 3.55221000e+09
2375.000000 3.48783000e+09
2385.000000 3.45686000e+09
2395.000000 3.43350000e+09
2405.000000 3.35388000e+09
2415.000000 3.33191000e+09
2425.000000 3.33248000e+09
2435.000000 3.22841000e+09
2445.000000 3.24000000e+09
2455.000000 3.24328000e+09
2465.000000 3.17542000e+09
2475.000000 3.12970000e+09
2485.000000 3.08657000e+09
2495.000000 2.78518000e+09
2505.000000 3.00464000e+09
2513.000000 2.86134000e+09
2518.000000 2.97411000e+09
2525.000000 2.92313000e+09
2535.000000 2.88106000e+09
2545.000000 2.78832000e+09
2555.000000 2.83377000e+09
2565.000000 2.79139000e+09
2575.000000 2.80072000e+09
2585.000000 2.76353000e+09
2595.000000 2.73729000e+09
2605.000000 2.71615000e+09
2615.000000 2.67905000e+09
2625.000000 2.65753000e+09
2635.000000 2.63311000e+09
2645.000000 2.61335000e+09
2655.000000 2.60097000e+09
2665.000000 2.50526000e+09
2675.000000 2.51589000e+09
2685.000000 2.50539000e+09
2695.000000 2.41976000e+09
2705.000000 2.38728000e+09
2715.000000 2.38184000e+09
2725.000000 2.36465000e+09
2735.000000 2.35711000e+09
2745.000000 2.28282000e+09
2755.000000 2.27933000e+09
2765.000000 2.25701000e+09
2775.000000 2.27277000e+09
2785.000000 2.23525000e+09
2795.000000 2.15592000e+09
2805.000000 2.17639000e+09
2815.000000 2.17659000e+09
2825.000000 2.14124000e+09
2835.000000 2.06284000e+09
2845.000000 2.09114000e+09
2855.000000 2.06020000e+09
2865.000000 2.05993000e+09
2875.000000 2.03605000e+09
2885.000000 2.01481000e+09
2895.000000 1.98482000e+09
2910.000000 1.94889000e+09
2930.000000 1.91614000e+09
2950.000000 1.85969000e+09
2970.000000 1.83660000e+09
2990.000000 1.79454000e+09
3010.000000 1.73909000e+09
3030.000000 1.73036000e+09
3050.000000 1.69803000e+09
3070.000000 1.66810000e+09
3090.000000 1.60968000e+09
3110.000000 1.59703000e+09
3130.000000 1.56223000e+09
3150.000000 1.53490000e+09
3170.000000 1.49632000e+09
3190.000000 1.46266000e+09
3210.000000 1.44592000e+09
3230.000000 1.41384000e+09
3250.000000 1.39093000e+09
3270.000000 1.36188000e+09
3290.000000 1.33472000e+09
3310.000000 1.31204000e+09
3330.000000 1.28525000e+09
3350.000000 1.26109000e+09
3370.000000 1.23761000e+09
3390.000000 1.21725000e+09
3410.000000 1.19514000e+09
3430.000000 1.16712000e+09
3450.000000 1.14179000e+09
3470.000000 1.12310000e+09
3490.000000 1.10154000e+09
3510.000000 1.08446000e+09
3530.000000 1.06967000e+09
3550.000000 1.05051000e+09
3570.000000 1.03673000e+09
3590.000000 1.00683000e+09
3610.000000 9.89803000e+08
3630.000000 9.75639000e+08
3640.000000 9.74863000e+08
3650.000000 9.53637000e+08
3670.000000 9.43019000e+08
3690.000000 9.22560000e+08
3710.000000 8.89265000e+08
3730.000000 8.56332000e+08
3750.000000 9.01713000e+08
3770.000000 8.99275000e+08
3790.000000 9.41240000e+08
3810.000000 9.77164000e+08
3830.000000 8.57990000e+08
3850.000000 9.92471000e+08
3870.000000 9.86541000e+08
3890.000000 8.13155000e+08
3910.000000 9.80555000e+08
3930.000000 9.49550000e+08
3950.000000 9.42542000e+08
3970.000000 7.55280000e+08
3990.000000 9.07008000e+08
4010.000000 9.02786000e+08
4030.000000 8.52233000e+08
4050.000000 8.75487000e+08
4070.000000 8.40113000e+08
4090.000000 7.86717000e+08
4110.000000 7.00108000e+08
4130.000000 7.97570000e+08
4150.000000 7.93117000e+08
4170.000000 7.88387000e+08
4190.000000 7.79999000e+08
4210.000000 7.72074000e+08
4230.000000 7.55442000e+08
4250.000000 7.37378000e+08
4270.000000 7.16478000e+08
4290.000000 7.10345000e+08
4310.000000 6.90667000e+08
4330.000000 6.35273000e+08
4350.000000 5.82380000e+08
4370.000000 6.55714000e+08
4390.000000 6.45374000e+08
4410.000000 6.45578000e+08
4430.000000 6.37650000e+08
4450.000000 6.29477000e+08
4470.000000 5.97838000e+08
4490.000000 6.08464000e+08
4510.000000 6.04172000e+08
4530.000000 5.93268000e+08
4550.000000 5.84952000e+08
4570.000000 5.75153000e+08
4590.000000 5.66164000e+08
4610.000000 5.53782000e+08
4630.000000 5.45476000e+08
4650.000000 5.31368000e+08
4670.000000 5.30333000e+08
4690.000000 5.25733000e+08
4710.000000 5.05892000e+08
4730.000000 5.05564000e+08
4750.000000 4.97825000e+08
4770.000000 4.97087000e+08
4790.000000 4.88314000e+08
4810.000000 4.78237000e+08
4830.000000 4.69440000e+08
4850.000000 4.39055000e+08
4870.000000 3.93187000e+08
4890.000000 4.49846000e+08
4910.000000 4.45595000e+08
4930.000000 4.29819000e+08
4950.000000 4.32595000e+08
4970.000000 4.28907000e+08
4990.000000 4.21875000e+08
5010.000000 4.04630000e+08
5030.000000 4.09265000e+08
5050.000000 3.99058000e+08
5070.000000 3.98598000e+08
5090.000000 3.92490000e+08
5110.000000 3.86236000e+08
5130.000000 3.77833000e+08
5150.000000 3.73569000e+08
5170.000000 3.71051000e+08
5190.000000 3.66238000e+08
5210.000000 3.59685000e+08
5230.000000 3.55975000e+08
5250.000000 3.51354000e+08
5270.000000 3.45925000e+08
5290.000000 3.41955000e+08
5310.000000 3.37046000e+08
5330.000000 3.32479000e+08
5350.000000 3.27405000e+08
5370.000000 3.24082000e+08
5390.000000 3.19542000e+08
5410.000000 3.15549000e+08
5430.000000 3.10776000e+08
5450.000000 3.06660000e+08
5470.000000 3.02596000e+08
5490.000000 2.98858000e+08
5510.000000 2.95377000e+08
5530.000000 2.91051000e+08
5550.000000 2.87857000e+08
5570.000000 2.83887000e+08
5590.000000 2.80533000e+08
5610.000000 2.76621000e+08
5630.000000 2.73411000e+08
5650.000000 2.68410000e+08
5670.000000 2.64130000e+08
5690.000000 2.60519000e+08
5710.000000 2.58905000e+08
5730.000000 2.55908000e+08
5750.000000 2.52137000e+08
5770.000000 2.49973000e+08
5790.000000 2.46698000e+08
5810.000000 2.43652000e+08
5830.000000 2.40232000e+08
5850.000000 2.37547000e+08
5870.000000 2.27851000e+08
5890.000000 2.29629000e+08
5910.000000 2.28358000e+08
5930.000000 2.25246000e+08
5950.000000 2.22212000e+08
5970.000000 2.20842000e+08
5990.000000 2.17333000e+08
6010.000000 2.15357000e+08
6030.000000 2.12439000e+08
6050.000000 2.10069000e+08
6070.000000 2.07797000e+08
6090.000000 2.05297000e+08
6110.000000 2.02865000e+08
6130.000000 2.00581000e+08
6150.000000 1.97227000e+08
6170.000000 1.95426000e+08
6190.000000 1.93447000e+08
6210.000000 1.91295000e+08
6230.000000 1.89108000e+08
6250.000000 1.86491000e+08
6270.000000 1.84527000e+08
6290.000000 1.82508000e+08
6310.000000 1.80274000e+08
6330.000000 1.78404000e+08
6350.000000 1.75675000e+08
6370.000000 1.74072000e+08
6390.000000 1.72191000e+08
6410.000000 1.70274000e+08
6430.000000 1.68497000e+08
6450.000000 1.66503000e+08
6470.000000 1.64152000e+08
6490.000000 1.62435000e+08
6510.000000 1.60825000e+08
6530.000000 1.58375000e+08
6550.000000 1.52062000e+08
6570.000000 1.34624000e+08
6590.000000 1.51410000e+08
6610.000000 1.51780000e+08
6630.000000 1.50471000e+08
6650.000000 1.48835000e+08
6670.000000 1.45877000e+08
6690.000000 1.44333000e+08
6710.000000 1.44135000e+08
6730.000000 1.42315000e+08
6750.000000 1.41067000e+08
6770.000000 1.39545000e+08
6790.000000 1.36959000e+08
6810.000000 1.36334000e+08
6830.000000 1.34915000e+08
6850.000000 1.33599000e+08
6870.000000 1.32175000e+08
6890.000000 1.30695000e+08
6910.000000 1.29245000e+08
6930.000000 1.27967000e+08
6950.000000 1.26677000e+08
6970.000000 1.25354000e+08
6990.000000 1.24006000e+08
7010.000000 1.22709000e+08
7030.000000 1.21425000e+08
7050.000000 1.20138000e+08
7070.000000 1.16919000e+08
7090.000000 1.17685000e+08
7110.000000 1.15801000e+08
7130.000000 1.14671000e+08
7150.000000 1.14030000e+08
7170.000000 1.12897000e+08
7190.000000 1.11774000e+08
7210.000000 1.10633000e+08
7230.000000 1.07896000e+08
7250.000000 1.08262000e+08
7270.000000 1.07282000e+08
7290.000000 1.05319000e+08
7310.000000 1.05110000e+08
7330.000000 1.04046000e+08
7350.000000 1.03034000e+08
7370.000000 1.02011000e+08
7390.000000 1.00991000e+08
7410.000000 9.99867000e+07
7430.000000 9.89441000e+07
7450.000000 9.80063000e+07
7470.000000 9.67666000e+07
7490.000000 9.60490000e+07
7510.000000 9.50773000e+07
7530.000000 9.41410000e+07
7550.000000 9.32926000e+07
7570.000000 9.23927000e+07
7590.000000 9.14748000e+07
7610.000000 9.05328000e+07
7630.000000 8.97029000e+07
7650.000000 8.88546000e+07
7670.000000 8.79948000e+07
7690.000000 8.71427000e+07
7710.000000 8.62983000e+07
7730.000000 8.54614000e+07
7750.000000 8.46696000e+07
7770.000000 8.34481000e+07
7790.000000 8.30760000e+07
7810.000000 8.22249000e+07
7830.000000 8.15104000e+07
7850.000000 8.07166000e+07
7870.000000 7.99298000e+07
7890.000000 7.90107000e+07
7910.000000 7.84791000e+07
7930.000000 7.77184000e+07
7950.000000 7.68271000e+07
7970.000000 7.61455000e+07
7990.000000 7.53458000e+07
8010.000000 7.47410000e+07
8030.000000 7.40536000e+07
8050.000000 7.33896000e+07
8070.000000 7.27892000e+07
8090.000000 7.19750000e+07
8110.000000 7.12424000e+07
8130.000000 7.08353000e+07
8150.000000 7.00967000e+07
8170.000000 6.95903000e+07
8190.000000 6.87509000e+07
8210.000000 6.79469000e+07
8230.000000 6.73668000e+07
8250.000000 6.69907000e+07
8270.000000 6.58684000e+07
8290.000000 6.57209000e+07
8310.000000 6.51703000e+07
8330.000000 6.45863000e+07
8350.000000 6.36775000e+07
8370.000000 6.32822000e+07
8390.000000 6.28577000e+07
8410.000000 6.22768000e+07
8430.000000 6.16636000e+07
8450.000000 6.05490000e+07
8470.000000 6.04786000e+07
8490.000000 5.99066000e+07
8510.000000 5.91884000e+07
8530.000000 5.89681000e+07
8550.000000 5.74866000e+07
8570.000000 5.86600000e+07
8590.000000 5.61458000e+07
8610.000000 5.59768000e+07
8630.000000 5.76802000e+07
8650.000000 5.59285000e+07
8670.000000 5.23379000e+07
8690.000000 5.62130000e+07
8710.000000 5.64915000e+07
8730.000000 5.47006000e+07
8750.000000 4.94564000e+07
8770.000000 5.30810000e+07
8790.000000 5.48340000e+07
8810.000000 5.45708000e+07
8830.000000 5.38262000e+07
8850.000000 5.04470000e+07
8870.000000 4.67176000e+07
8890.000000 5.19580000e+07
8910.000000 5.23134000e+07
8930.000000 5.19235000e+07
8950.000000 5.16823000e+07
8970.000000 5.11384000e+07
8990.000000 4.96525000e+07
9010.000000 4.41884000e+07
9030.000000 4.64554000e+07
9050.000000 4.91021000e+07
9070.000000 4.86110000e+07
9090.000000 4.85889000e+07
9110.000000 4.84438000e+07
9130.000000 4.80872000e+07
9150.000000 4.76792000e+07
9170.000000 4.70459000e+07
9190.000000 4.65692000e+07
9210.000000 4.44708000e+07
9230.000000 3.92729000e+07
9250.000000 4.37700000e+07
9270.000000 4.47431000e+07
9290.000000 4.48867000e+07
9310.000000 4.43985000e+07
9330.000000 4.41867000e+07
9350.000000 4.39031000e+07
9370.000000 4.35872000e+07
9390.000000 4.32393000e+07
9410.000000 4.27962000e+07
9430.000000 4.25386000e+07
9450.000000 4.21942000e+07
9470.000000 4.15671000e+07
9490.000000 4.13925000e+07
9510.000000 4.05042000e+07
9530.000000 3.87204000e+07
9550.000000 3.45925000e+07
9570.000000 3.89667000e+07
9590.000000 3.96371000e+07
9610.000000 3.93454000e+07
9630.000000 3.89567000e+07
9650.000000 3.89916000e+07
9670.000000 3.86774000e+07
9690.000000 3.83373000e+07
9710.000000 3.79438000e+07
9730.000000 3.77848000e+07
9750.000000 3.74797000e+07
9770.000000 3.72033000e+07
9790.000000 3.69100000e+07
9810.000000 3.66050000e+07
9830.000000 3.63392000e+07
9850.000000 3.60602000e+07
9870.000000 3.57618000e+07
9890.000000 3.54613000e+07
9910.000000 3.50276000e+07
9930.000000 3.49718000e+07
9950.000000 3.47001000e+07
9970.000000 3.44011000e+07
9990.000000 3.40811000e+07
10025.000000 3.22969000e+07
10075.000000 3.11941000e+07
10125.000000 3.23133000e+07
10175.000000 3.18753000e+07
10225.000000 3.12725000e+07
10275.000000 3.07113000e+07
10325.000000 3.00269000e+07
10375.000000 2.96002000e+07
10425.000000 2.90643000e+07
10475.000000 2.85386000e+07
10525.000000 2.80161000e+07
10575.000000 2.75220000e+07
10625.000000 2.70330000e+07
10675.000000 2.64881000e+07
10725.000000 2.60835000e+07
10775.000000 2.56230000e+07
10825.000000 2.48856000e+07
10875.000000 2.46589000e+07
10925.000000 2.23729000e+07
10975.000000 2.33655000e+07
11025.000000 2.32933000e+07
11075.000000 2.30564000e+07
11125.000000 2.26791000e+07
11175.000000 2.22938000e+07
11225.000000 2.19046000e+07
11275.000000 2.15205000e+07
11325.000000 2.11605000e+07
11375.000000 2.08311000e+07
11425.000000 2.04725000e+07
11475.000000 2.01466000e+07
11525.000000 1.98142000e+07
11575.000000 1.94755000e+07
11625.000000 1.91634000e+07
11675.000000 1.88503000e+07
11725.000000 1.85502000e+07
11775.000000 1.82432000e+07
11825.000000 1.79567000e+07
11875.000000 1.76699000e+07
11925.000000 1.73882000e+07
11975.000000 1.69388000e+07
12025.000000 1.68397000e+07
12075.000000 1.65747000e+07
12125.000000 1.63135000e+07
12175.000000 1.60580000e+07
12225.000000 1.58079000e+07
12275.000000 1.55627000e+07
12325.000000 1.53216000e+07
12375.000000 1.50849000e+07
12425.000000 1.48541000e+07
12475.000000 1.46167000e+07
12525.000000 1.43686000e+07
12575.000000 1.41779000e+07
12625.000000 1.39668000e+07
12675.000000 1.37597000e+07
12725.000000 1.35455000e+07
12775.000000 1.31086000e+07
12825.000000 1.21241000e+07
12875.000000 1.28703000e+07
12925.000000 1.27630000e+07
12975.000000 1.24825000e+07
13025.000000 1.23908000e+07
13075.000000 1.22116000e+07
