# Kurucz ODFNEW /NOVER, alpha: 0.0 (2003)
# teff = 23000 K (value for the effective temperature for the model. Temperatures are given in K)
# logg = 3.5 log(cm/s2) (value for Log(G) for the model.)
# lh = 1.25  (l/Hp where l is the  mixing length of the convective element and Hp is the pressure scale height)
# meta = 0  (value for the Metallicity for the model.)
# vtur = 2 km/s (Microturbulence velocity)
# alpha = 0  (Alpha)
#
# column 1: WAVELENGTH (ANGSTROM), Wavelength in Angstrom
# column 2: FLUX (ERG/CM2/S/A), Flux in erg/cm2/s/A
147.200000 1.08725000e-16
151.000000 5.32289000e-16
155.200000 2.83622000e-15
158.800000 1.11648000e-14
162.000000 3.61083000e-14
166.000000 1.47597000e-13
170.300000 6.25599000e-13
173.400000 1.70463000e-12
176.800000 4.92512000e-12
180.200000 1.37132000e-11
181.700000 2.12973000e-11
186.100000 7.46873000e-11
191.000000 2.83500000e-10
193.900000 6.05808000e-10
198.400000 1.88812000e-09
201.800000 4.31706000e-09
205.000000 9.17866000e-09
210.500000 3.18990000e-08
216.200000 1.08701000e-07
219.800000 2.28383000e-07
223.000000 4.33266000e-07
226.800000 9.05969000e-07
230.000000 6.01165000e-05
234.000000 1.43568000e-04
240.000000 3.62170000e-04
246.500000 9.43277000e-04
252.400000 2.18087000e-03
256.800000 3.75871000e-03
260.000000 6.27399000e-03
264.000000 1.02809000e-02
268.500000 1.78341000e-02
273.500000 3.20518000e-02
278.500000 5.68186000e-02
284.000000 1.08975000e-01
290.000000 2.03152000e-01
296.000000 3.71290000e-01
301.000000 5.96357000e-01
308.000000 1.15758000e+00
318.000000 2.93176000e+00
328.000000 6.51286000e+00
338.000000 1.45565000e+01
348.000000 3.01059000e+01
357.000000 8.61977000e+01
366.000000 1.61653000e+02
375.000000 2.65735000e+02
385.000000 4.68570000e+02
395.000000 8.30362000e+02
405.000000 1.35611000e+03
414.000000 2.10773000e+03
422.000000 3.02532000e+03
430.000000 4.41440000e+03
441.000000 7.02064000e+03
451.000000 1.03167000e+04
460.000000 1.43606000e+04
470.000000 2.09955000e+04
480.000000 2.96822000e+04
490.000000 4.18953000e+04
500.000000 5.76275000e+04
506.000000 3.74881000e+05
512.000000 3.28178000e+06
520.000000 3.85395000e+06
530.000000 4.75089000e+06
540.000000 5.24902000e+06
550.000000 7.76399000e+06
560.000000 9.30159000e+06
570.000000 1.14551000e+07
580.000000 1.10832000e+07
590.000000 1.49317000e+07
600.000000 1.73798000e+07
610.000000 2.09019000e+07
620.000000 2.33466000e+07
630.000000 2.55747000e+07
640.000000 2.47744000e+07
650.000000 1.92297000e+07
658.000000 3.01452000e+07
665.000000 3.61340000e+07
675.000000 3.85283000e+07
685.000000 4.03582000e+07
695.000000 5.18222000e+07
705.000000 5.36627000e+07
716.000000 6.11071000e+07
726.000000 6.42728000e+07
735.000000 6.74874000e+07
745.000000 7.77046000e+07
755.000000 8.41259000e+07
765.000000 9.14618000e+07
775.000000 9.90645000e+07
785.000000 1.07011000e+08
795.000000 1.12341000e+08
805.000000 1.18037000e+08
815.000000 1.22929000e+08
825.000000 1.35188000e+08
835.000000 1.23254000e+08
845.000000 1.42841000e+08
855.000000 1.47888000e+08
865.000000 1.59125000e+08
875.000000 1.71324000e+08
885.000000 1.86709000e+08
895.000000 1.96895000e+08
905.000000 1.95751000e+08
915.000000 3.30371000e+08
925.000000 3.11405000e+09
935.000000 7.30986000e+09
945.000000 1.29683000e+10
955.000000 1.59218000e+10
965.000000 1.70139000e+10
975.000000 2.81684000e+09
985.000000 1.29759000e+10
995.000000 1.40166000e+10
1005.000000 1.73724000e+10
1015.000000 1.76340000e+10
1025.000000 1.02972000e+10
1035.000000 1.31367000e+10
1045.000000 2.11647000e+10
1055.000000 1.93174000e+10
1065.000000 1.54903000e+10
1075.000000 1.82310000e+10
1085.000000 1.59364000e+10
1095.000000 1.84210000e+10
1105.000000 1.63481000e+10
1115.000000 1.54928000e+10
1125.000000 1.25256000e+10
1135.000000 1.70663000e+10
1145.000000 1.54629000e+10
1155.000000 1.59757000e+10
1165.000000 1.58322000e+10
1175.000000 9.06661000e+09
1185.000000 1.51537000e+10
1195.000000 1.36253000e+10
1205.000000 7.98305000e+09
1215.000000 7.68145000e+09
1225.000000 1.30548000e+10
1235.000000 1.50040000e+10
1245.000000 1.45534000e+10
1255.000000 1.43423000e+10
1265.000000 1.44500000e+10
1275.000000 1.50017000e+10
1285.000000 1.48118000e+10
1295.000000 9.72743000e+09
1305.000000 1.06777000e+10
1315.000000 1.43184000e+10
1325.000000 1.33068000e+10
1335.000000 1.25421000e+10
1345.000000 1.31706000e+10
1355.000000 1.29053000e+10
1365.000000 1.17055000e+10
1375.000000 1.14203000e+10
1385.000000 1.11266000e+10
1395.000000 7.94025000e+09
1405.000000 8.73776000e+09
1415.000000 9.75849000e+09
1425.000000 9.74742000e+09
1435.000000 1.00976000e+10
1442.000000 1.03607000e+10
1447.000000 1.01366000e+10
1455.000000 9.81852000e+09
1465.000000 8.95402000e+09
1475.000000 9.21415000e+09
1485.000000 9.10465000e+09
1495.000000 8.90959000e+09
1505.000000 8.05094000e+09
1512.000000 7.06776000e+09
1517.000000 7.34604000e+09
1525.000000 7.65260000e+09
1535.000000 6.42873000e+09
1545.000000 6.29244000e+09
1555.000000 6.11439000e+09
1565.000000 6.64869000e+09
1575.000000 7.11323000e+09
1585.000000 7.15827000e+09
1595.000000 7.06553000e+09
1605.000000 7.19874000e+09
1615.000000 7.07058000e+09
1625.000000 6.90607000e+09
1635.000000 7.37851000e+09
1645.000000 7.35298000e+09
1655.000000 7.22904000e+09
1665.000000 7.41453000e+09
1672.000000 7.05678000e+09
1677.000000 7.67007000e+09
1685.000000 7.45849000e+09
1695.000000 6.98419000e+09
1705.000000 6.78690000e+09
1715.000000 6.36510000e+09
1725.000000 6.31329000e+09
1735.000000 6.61305000e+09
1745.000000 6.41820000e+09
1755.000000 6.49364000e+09
1765.000000 6.37395000e+09
1775.000000 5.96203000e+09
1785.000000 6.09700000e+09
1795.000000 6.33139000e+09
1805.000000 6.40227000e+09
1815.000000 5.58468000e+09
1825.000000 5.88843000e+09
1835.000000 5.68211000e+09
1845.000000 5.15210000e+09
1855.000000 5.14663000e+09
1865.000000 5.23672000e+09
1875.000000 5.58436000e+09
1885.000000 4.90481000e+09
1895.000000 4.53331000e+09
1905.000000 5.00230000e+09
1915.000000 4.63718000e+09
1925.000000 4.40440000e+09
1935.000000 4.72282000e+09
1945.000000 4.80533000e+09
1955.000000 4.30565000e+09
1967.000000 4.75287000e+09
1976.000000 4.94799000e+09
1984.000000 4.57884000e+09
1995.000000 4.48362000e+09
2005.000000 4.70712000e+09
2015.000000 4.62192000e+09
2025.000000 4.79035000e+09
2035.000000 4.30818000e+09
2045.000000 4.43290000e+09
2055.000000 4.27139000e+09
2065.000000 4.25212000e+09
2074.000000 4.55134000e+09
2078.000000 4.00200000e+09
2085.000000 4.29832000e+09
2095.000000 4.04538000e+09
2105.000000 4.18549000e+09
2115.000000 4.21456000e+09
2125.000000 4.24824000e+09
2135.000000 4.18349000e+09
2145.000000 3.92334000e+09
2155.000000 4.13094000e+09
2165.000000 4.12992000e+09
2175.000000 4.08009000e+09
2185.000000 3.91120000e+09
2195.000000 3.99411000e+09
2205.000000 3.97656000e+09
2215.000000 3.89965000e+09
2225.000000 3.79345000e+09
2235.000000 3.75061000e+09
2245.000000 3.79269000e+09
2255.000000 3.65296000e+09
2265.000000 3.71852000e+09
2275.000000 3.66275000e+09
2285.000000 3.67456000e+09
2295.000000 3.35915000e+09
2305.000000 3.54435000e+09
2315.000000 3.42473000e+09
2325.000000 3.38467000e+09
2335.000000 3.26246000e+09
2345.000000 3.28792000e+09
2355.000000 3.29368000e+09
2365.000000 3.25336000e+09
2375.000000 3.19443000e+09
2385.000000 3.16624000e+09
2395.000000 3.14603000e+09
2405.000000 3.07335000e+09
2415.000000 3.05700000e+09
2425.000000 3.05829000e+09
2435.000000 2.96143000e+09
2445.000000 2.98017000e+09
2455.000000 2.98801000e+09
2465.000000 2.92233000e+09
2475.000000 2.87841000e+09
2485.000000 2.83516000e+09
2495.000000 2.49657000e+09
2505.000000 2.75711000e+09
2513.000000 2.63101000e+09
2518.000000 2.73994000e+09
2525.000000 2.69227000e+09
2535.000000 2.65472000e+09
2545.000000 2.56212000e+09
2555.000000 2.61372000e+09
2565.000000 2.57426000e+09
2575.000000 2.58953000e+09
2585.000000 2.55020000e+09
2595.000000 2.52806000e+09
2605.000000 2.51235000e+09
2615.000000 2.47477000e+09
2625.000000 2.45694000e+09
2635.000000 2.43599000e+09
2645.000000 2.41955000e+09
2655.000000 2.41167000e+09
2665.000000 2.31743000e+09
2675.000000 2.33268000e+09
2685.000000 2.32244000e+09
2695.000000 2.24242000e+09
2705.000000 2.20672000e+09
2715.000000 2.20675000e+09
2725.000000 2.19581000e+09
2735.000000 2.18698000e+09
2745.000000 2.11898000e+09
2755.000000 2.11618000e+09
2765.000000 2.09834000e+09
2775.000000 2.11318000e+09
2785.000000 2.07793000e+09
2795.000000 2.00531000e+09
2805.000000 2.02623000e+09
2815.000000 2.02546000e+09
2825.000000 1.99797000e+09
2835.000000 1.92170000e+09
2845.000000 1.94592000e+09
2855.000000 1.91512000e+09
2865.000000 1.91907000e+09
2875.000000 1.89782000e+09
2885.000000 1.87948000e+09
2895.000000 1.84836000e+09
2910.000000 1.81618000e+09
2930.000000 1.78818000e+09
2950.000000 1.73609000e+09
2970.000000 1.71433000e+09
2990.000000 1.67727000e+09
3010.000000 1.62129000e+09
3030.000000 1.61781000e+09
3050.000000 1.58933000e+09
3070.000000 1.56253000e+09
3090.000000 1.50576000e+09
3110.000000 1.49642000e+09
3130.000000 1.46340000e+09
3150.000000 1.43934000e+09
3170.000000 1.40294000e+09
3190.000000 1.37348000e+09
3210.000000 1.35693000e+09
3230.000000 1.32682000e+09
3250.000000 1.30658000e+09
3270.000000 1.27874000e+09
3290.000000 1.25380000e+09
3310.000000 1.23282000e+09
3330.000000 1.20776000e+09
3350.000000 1.18606000e+09
3370.000000 1.16403000e+09
3390.000000 1.14552000e+09
3410.000000 1.12529000e+09
3430.000000 1.09914000e+09
3450.000000 1.07589000e+09
3470.000000 1.05836000e+09
3490.000000 1.03841000e+09
3510.000000 1.02340000e+09
3530.000000 1.00966000e+09
3550.000000 9.91648000e+08
3570.000000 9.77938000e+08
3590.000000 9.50352000e+08
3610.000000 9.33346000e+08
3630.000000 9.21517000e+08
3640.000000 9.20442000e+08
3650.000000 8.99626000e+08
3670.000000 8.89680000e+08
3690.000000 8.65730000e+08
3710.000000 8.41422000e+08
3730.000000 8.21890000e+08
3750.000000 8.85934000e+08
3770.000000 8.84033000e+08
3790.000000 9.12128000e+08
3810.000000 9.42751000e+08
3830.000000 8.38215000e+08
3850.000000 9.46875000e+08
3870.000000 9.30649000e+08
3890.000000 7.99686000e+08
3910.000000 9.23878000e+08
3930.000000 8.90912000e+08
3950.000000 8.87297000e+08
3970.000000 7.41990000e+08
3990.000000 8.56533000e+08
4010.000000 8.47847000e+08
4030.000000 8.08184000e+08
4050.000000 8.20846000e+08
4070.000000 7.88851000e+08
4090.000000 7.51585000e+08
4110.000000 6.78787000e+08
4130.000000 7.50592000e+08
4150.000000 7.45103000e+08
4170.000000 7.39923000e+08
4190.000000 7.32146000e+08
4210.000000 7.24866000e+08
4230.000000 7.09332000e+08
4250.000000 6.92577000e+08
4270.000000 6.73749000e+08
4290.000000 6.67645000e+08
4310.000000 6.50147000e+08
4330.000000 6.10599000e+08
4350.000000 5.63048000e+08
4370.000000 6.18430000e+08
4390.000000 6.11576000e+08
4410.000000 6.08037000e+08
4430.000000 6.00447000e+08
4450.000000 5.92665000e+08
4470.000000 5.68745000e+08
4490.000000 5.73930000e+08
4510.000000 5.69314000e+08
4530.000000 5.59342000e+08
4550.000000 5.51724000e+08
4570.000000 5.42504000e+08
4590.000000 5.34103000e+08
4610.000000 5.22423000e+08
4630.000000 5.15020000e+08
4650.000000 5.01086000e+08
4670.000000 5.00587000e+08
4690.000000 4.96566000e+08
4710.000000 4.78535000e+08
4730.000000 4.77797000e+08
4750.000000 4.70476000e+08
4770.000000 4.70115000e+08
4790.000000 4.61912000e+08
4810.000000 4.52787000e+08
4830.000000 4.45524000e+08
4850.000000 4.24576000e+08
4870.000000 3.83355000e+08
4890.000000 4.27600000e+08
4910.000000 4.22842000e+08
4930.000000 4.09157000e+08
4950.000000 4.09671000e+08
4970.000000 4.06426000e+08
4990.000000 3.99785000e+08
5010.000000 3.83737000e+08
5030.000000 3.87988000e+08
5050.000000 3.78716000e+08
5070.000000 3.77815000e+08
5090.000000 3.72162000e+08
5110.000000 3.66311000e+08
5130.000000 3.58307000e+08
5150.000000 3.54550000e+08
5170.000000 3.52122000e+08
5190.000000 3.47609000e+08
5210.000000 3.41517000e+08
5230.000000 3.37905000e+08
5250.000000 3.33586000e+08
5270.000000 3.28441000e+08
5290.000000 3.24791000e+08
5310.000000 3.20077000e+08
5330.000000 3.15956000e+08
5350.000000 3.11229000e+08
5370.000000 3.08000000e+08
5390.000000 3.03722000e+08
5410.000000 3.00052000e+08
5430.000000 2.95520000e+08
5450.000000 2.91630000e+08
5470.000000 2.87827000e+08
5490.000000 2.84246000e+08
5510.000000 2.81045000e+08
5530.000000 2.76921000e+08
5550.000000 2.73999000e+08
5570.000000 2.70214000e+08
5590.000000 2.67102000e+08
5610.000000 2.63406000e+08
5630.000000 2.60397000e+08
5650.000000 2.55641000e+08
5670.000000 2.51509000e+08
5690.000000 2.48045000e+08
5710.000000 2.46646000e+08
5730.000000 2.43780000e+08
5750.000000 2.40195000e+08
5770.000000 2.38273000e+08
5790.000000 2.35146000e+08
5810.000000 2.32302000e+08
5830.000000 2.29004000e+08
5850.000000 2.26517000e+08
5870.000000 2.18131000e+08
5890.000000 2.19118000e+08
5910.000000 2.17777000e+08
5930.000000 2.14768000e+08
5950.000000 2.11922000e+08
5970.000000 2.10737000e+08
5990.000000 2.07306000e+08
6010.000000 2.05490000e+08
6030.000000 2.02689000e+08
6050.000000 2.00466000e+08
6070.000000 1.98391000e+08
6090.000000 1.96013000e+08
6110.000000 1.93733000e+08
6130.000000 1.91578000e+08
6150.000000 1.88392000e+08
6170.000000 1.86638000e+08
6190.000000 1.84795000e+08
6210.000000 1.82786000e+08
6230.000000 1.80712000e+08
6250.000000 1.78236000e+08
6270.000000 1.76372000e+08
6290.000000 1.74472000e+08
6310.000000 1.72336000e+08
6330.000000 1.70581000e+08
6350.000000 1.67985000e+08
6370.000000 1.66477000e+08
6390.000000 1.64680000e+08
6410.000000 1.62875000e+08
6430.000000 1.61189000e+08
6450.000000 1.59294000e+08
6470.000000 1.57078000e+08
6490.000000 1.55396000e+08
6510.000000 1.53954000e+08
6530.000000 1.51881000e+08
6550.000000 1.47258000e+08
6570.000000 1.31500000e+08
6590.000000 1.45415000e+08
6610.000000 1.45451000e+08
6630.000000 1.44069000e+08
6650.000000 1.42497000e+08
6670.000000 1.39882000e+08
6690.000000 1.38424000e+08
6710.000000 1.38043000e+08
6730.000000 1.36284000e+08
6750.000000 1.35131000e+08
6770.000000 1.33684000e+08
6790.000000 1.31198000e+08
6810.000000 1.30624000e+08
6830.000000 1.29270000e+08
6850.000000 1.28027000e+08
6870.000000 1.26676000e+08
6890.000000 1.25251000e+08
6910.000000 1.23856000e+08
6930.000000 1.22672000e+08
6950.000000 1.21436000e+08
6970.000000 1.20182000e+08
6990.000000 1.18894000e+08
7010.000000 1.17657000e+08
7030.000000 1.16432000e+08
7050.000000 1.15211000e+08
7070.000000 1.12224000e+08
7090.000000 1.12881000e+08
7110.000000 1.10935000e+08
7130.000000 1.09891000e+08
7150.000000 1.09417000e+08
7170.000000 1.08317000e+08
7190.000000 1.07248000e+08
7210.000000 1.06154000e+08
7230.000000 1.03514000e+08
7250.000000 1.03875000e+08
7270.000000 1.02955000e+08
7290.000000 1.01115000e+08
7310.000000 1.00887000e+08
7330.000000 9.98672000e+07
7350.000000 9.89130000e+07
7370.000000 9.79400000e+07
7390.000000 9.69622000e+07
7410.000000 9.60072000e+07
7430.000000 9.50134000e+07
7450.000000 9.41102000e+07
7470.000000 9.28981000e+07
7490.000000 9.22482000e+07
7510.000000 9.13166000e+07
7530.000000 9.04203000e+07
7550.000000 8.96180000e+07
7570.000000 8.87572000e+07
7590.000000 8.78781000e+07
7610.000000 8.69744000e+07
7630.000000 8.61826000e+07
7650.000000 8.53720000e+07
7670.000000 8.45560000e+07
7690.000000 8.37409000e+07
7710.000000 8.29331000e+07
7730.000000 8.21325000e+07
7750.000000 8.13767000e+07
7770.000000 8.02157000e+07
7790.000000 7.98540000e+07
7810.000000 7.90379000e+07
7830.000000 7.83582000e+07
7850.000000 7.76048000e+07
7870.000000 7.68459000e+07
7890.000000 7.59606000e+07
7910.000000 7.54385000e+07
7930.000000 7.46511000e+07
7950.000000 7.38647000e+07
7970.000000 7.32097000e+07
7990.000000 7.24601000e+07
8010.000000 7.18697000e+07
8030.000000 7.12259000e+07
8050.000000 7.06340000e+07
8070.000000 7.00356000e+07
8090.000000 6.92638000e+07
8110.000000 6.85159000e+07
8130.000000 6.81736000e+07
8150.000000 6.74424000e+07
8170.000000 6.69771000e+07
8190.000000 6.61674000e+07
8210.000000 6.53703000e+07
8230.000000 6.48027000e+07
8250.000000 6.44612000e+07
8270.000000 6.33621000e+07
8290.000000 6.32212000e+07
8310.000000 6.26936000e+07
8330.000000 6.21486000e+07
8350.000000 6.12947000e+07
8370.000000 6.08677000e+07
8390.000000 6.04494000e+07
8410.000000 5.98693000e+07
8430.000000 5.92727000e+07
8450.000000 5.82749000e+07
8470.000000 5.80001000e+07
8490.000000 5.77742000e+07
8510.000000 5.66966000e+07
8530.000000 5.70006000e+07
8550.000000 5.49099000e+07
8570.000000 5.68237000e+07
8590.000000 5.41342000e+07
8610.000000 5.37966000e+07
8630.000000 5.59250000e+07
8650.000000 5.43324000e+07
8670.000000 5.02631000e+07
8690.000000 5.46066000e+07
8710.000000 5.47286000e+07
8730.000000 5.31632000e+07
8750.000000 4.79404000e+07
8770.000000 5.17781000e+07
8790.000000 5.30397000e+07
8810.000000 5.26632000e+07
8830.000000 5.20770000e+07
8850.000000 4.93023000e+07
8870.000000 4.55833000e+07
8890.000000 5.04898000e+07
8910.000000 5.04912000e+07
8930.000000 5.00763000e+07
8950.000000 4.98622000e+07
8970.000000 4.93451000e+07
8990.000000 4.81935000e+07
9010.000000 4.32686000e+07
9030.000000 4.55609000e+07
9050.000000 4.75428000e+07
9070.000000 4.69624000e+07
9090.000000 4.68563000e+07
9110.000000 4.66417000e+07
9130.000000 4.62975000e+07
9150.000000 4.59153000e+07
9170.000000 4.53972000e+07
9190.000000 4.49946000e+07
9210.000000 4.33569000e+07
9230.000000 3.85928000e+07
9250.000000 4.27683000e+07
9270.000000 4.32564000e+07
9290.000000 4.33227000e+07
9310.000000 4.28082000e+07
9330.000000 4.25517000e+07
9350.000000 4.22888000e+07
9370.000000 4.19815000e+07
9390.000000 4.16503000e+07
9410.000000 4.12305000e+07
9430.000000 4.09800000e+07
9450.000000 4.06498000e+07
9470.000000 4.01015000e+07
9490.000000 3.99640000e+07
9510.000000 3.91966000e+07
9530.000000 3.78692000e+07
9550.000000 3.40753000e+07
9570.000000 3.80132000e+07
9590.000000 3.83259000e+07
9610.000000 3.79846000e+07
9630.000000 3.75881000e+07
9650.000000 3.75781000e+07
9670.000000 3.72782000e+07
9690.000000 3.69527000e+07
9710.000000 3.65769000e+07
9730.000000 3.64203000e+07
9750.000000 3.61276000e+07
9770.000000 3.58634000e+07
9790.000000 3.55814000e+07
9810.000000 3.52858000e+07
9830.000000 3.50347000e+07
9850.000000 3.47660000e+07
9870.000000 3.44787000e+07
9890.000000 3.41884000e+07
9910.000000 3.37908000e+07
9930.000000 3.37225000e+07
9950.000000 3.34622000e+07
9970.000000 3.31837000e+07
9990.000000 3.29430000e+07
10025.000000 3.14693000e+07
10075.000000 3.04277000e+07
10125.000000 3.12149000e+07
10175.000000 3.07509000e+07
10225.000000 3.01731000e+07
10275.000000 2.96325000e+07
10325.000000 2.89865000e+07
10375.000000 2.85657000e+07
10425.000000 2.80507000e+07
10475.000000 2.75456000e+07
10525.000000 2.70431000e+07
10575.000000 2.65687000e+07
10625.000000 2.60989000e+07
10675.000000 2.55813000e+07
10725.000000 2.51864000e+07
10775.000000 2.47433000e+07
10825.000000 2.40362000e+07
10875.000000 2.38594000e+07
10925.000000 2.19033000e+07
10975.000000 2.27425000e+07
11025.000000 2.25438000e+07
11075.000000 2.22818000e+07
11125.000000 2.19115000e+07
11175.000000 2.15412000e+07
11225.000000 2.11667000e+07
11275.000000 2.07971000e+07
11325.000000 2.04482000e+07
11375.000000 2.01326000e+07
11425.000000 1.97882000e+07
11475.000000 1.94737000e+07
11525.000000 1.91539000e+07
11575.000000 1.88288000e+07
11625.000000 1.85275000e+07
11675.000000 1.82249000e+07
11725.000000 1.79369000e+07
11775.000000 1.76411000e+07
11825.000000 1.73646000e+07
11875.000000 1.70885000e+07
11925.000000 1.68170000e+07
11975.000000 1.64171000e+07
12025.000000 1.62884000e+07
12075.000000 1.60331000e+07
12125.000000 1.57810000e+07
12175.000000 1.55350000e+07
12225.000000 1.52937000e+07
12275.000000 1.50574000e+07
12325.000000 1.48243000e+07
12375.000000 1.45968000e+07
12425.000000 1.43744000e+07
12475.000000 1.41446000e+07
12525.000000 1.39075000e+07
12575.000000 1.37214000e+07
12625.000000 1.35181000e+07
12675.000000 1.33191000e+07
12725.000000 1.31192000e+07
12775.000000 1.27400000e+07
12825.000000 1.19058000e+07
12875.000000 1.24985000e+07
12925.000000 1.23585000e+07
12975.000000 1.21007000e+07
13025.000000 1.19976000e+07
13075.000000 1.18251000e+07
