# Kurucz ODFNEW /NOVER, alpha: 0.0 (2003)
# teff = 29000 K (value for the effective temperature for the model. Temperatures are given in K)
# logg = 4 log(cm/s2) (value for Log(G) for the model.)
# lh = 1.25  (l/Hp where l is the  mixing length of the convective element and Hp is the pressure scale height)
# meta = -1  (value for the Metallicity for the model.)
# vtur = 2 km/s (Microturbulence velocity)
# alpha = 0  (Alpha)
#
# column 1: WAVELENGTH (ANGSTROM), Wavelength in Angstrom
# column 2: FLUX (ERG/CM2/S/A), Flux in erg/cm2/s/A
147.200000 6.42156000e-10
151.000000 2.26226000e-09
155.200000 8.47487000e-09
158.800000 2.48813000e-08
162.000000 6.23045000e-08
166.000000 1.86697000e-07
170.300000 5.73185000e-07
173.400000 1.24307000e-06
176.800000 2.81514000e-06
180.200000 6.17985000e-06
181.700000 8.65939000e-06
186.100000 2.25864000e-05
191.000000 6.23270000e-05
193.900000 1.10893000e-04
198.400000 2.62191000e-04
201.800000 4.89487000e-04
205.000000 8.64196000e-04
210.500000 2.20510000e-03
216.200000 5.53104000e-03
219.800000 9.64670000e-03
223.000000 1.55770000e-02
226.800000 2.70472000e-02
230.000000 1.28914000e+01
234.000000 3.31885000e+01
240.000000 6.26313000e+01
246.500000 1.24572000e+02
252.400000 2.25526000e+02
256.800000 2.94780000e+02
260.000000 4.77844000e+02
264.000000 6.68909000e+02
268.500000 1.00495000e+03
273.500000 1.51438000e+03
278.500000 2.20251000e+03
284.000000 3.67248000e+03
290.000000 5.61869000e+03
296.000000 8.36178000e+03
301.000000 1.09808000e+04
308.000000 1.64160000e+04
318.000000 3.55834000e+04
328.000000 6.00721000e+04
338.000000 1.04787000e+05
348.000000 1.71467000e+05
357.000000 3.02864000e+05
366.000000 4.72923000e+05
375.000000 6.55007000e+05
385.000000 9.81110000e+05
395.000000 1.43431000e+06
405.000000 1.98024000e+06
414.000000 2.67146000e+06
422.000000 3.30858000e+06
430.000000 4.18987000e+06
441.000000 5.66021000e+06
451.000000 7.33656000e+06
460.000000 9.00376000e+06
470.000000 1.15065000e+07
480.000000 1.43260000e+07
490.000000 1.77209000e+07
500.000000 2.19407000e+07
506.000000 1.15774000e+08
512.000000 4.58869000e+08
520.000000 4.62065000e+08
530.000000 4.83230000e+08
540.000000 4.59414000e+08
550.000000 5.59864000e+08
560.000000 6.24775000e+08
570.000000 6.78983000e+08
580.000000 6.42635000e+08
590.000000 7.38805000e+08
600.000000 7.56860000e+08
610.000000 8.24127000e+08
620.000000 8.97045000e+08
630.000000 9.32721000e+08
640.000000 9.30235000e+08
650.000000 9.87878000e+08
658.000000 1.02796000e+09
665.000000 1.08421000e+09
675.000000 1.10780000e+09
685.000000 1.10211000e+09
695.000000 1.26132000e+09
705.000000 1.24709000e+09
716.000000 1.36956000e+09
726.000000 1.39270000e+09
735.000000 1.43551000e+09
745.000000 1.51961000e+09
755.000000 1.56144000e+09
765.000000 1.62150000e+09
775.000000 1.68329000e+09
785.000000 1.76558000e+09
795.000000 1.80155000e+09
805.000000 1.84015000e+09
815.000000 1.86673000e+09
825.000000 1.95692000e+09
835.000000 1.85845000e+09
845.000000 2.01395000e+09
855.000000 2.05524000e+09
865.000000 2.12622000e+09
875.000000 2.19821000e+09
885.000000 2.27267000e+09
895.000000 2.32944000e+09
905.000000 2.34283000e+09
915.000000 3.03773000e+09
925.000000 1.70567000e+10
935.000000 3.16617000e+10
945.000000 5.15130000e+10
955.000000 5.70283000e+10
965.000000 6.63466000e+10
975.000000 3.03484000e+10
985.000000 6.10898000e+10
995.000000 5.67667000e+10
1005.000000 5.91935000e+10
1015.000000 5.83730000e+10
1025.000000 3.78836000e+10
1035.000000 5.40217000e+10
1045.000000 6.15035000e+10
1055.000000 5.90907000e+10
1065.000000 5.29476000e+10
1075.000000 5.49173000e+10
1085.000000 5.06743000e+10
1095.000000 5.40009000e+10
1105.000000 5.17229000e+10
1115.000000 5.07871000e+10
1125.000000 4.55781000e+10
1135.000000 4.91242000e+10
1145.000000 4.60429000e+10
1155.000000 4.62261000e+10
1165.000000 4.53971000e+10
1175.000000 3.51946000e+10
1185.000000 4.22572000e+10
1195.000000 4.09383000e+10
1205.000000 3.76048000e+10
1215.000000 2.52636000e+10
1225.000000 3.78104000e+10
1235.000000 3.93717000e+10
1245.000000 3.80879000e+10
1255.000000 3.78350000e+10
1265.000000 3.75900000e+10
1275.000000 3.73201000e+10
1285.000000 3.67255000e+10
1295.000000 3.36311000e+10
1305.000000 3.39494000e+10
1315.000000 3.46790000e+10
1325.000000 3.33528000e+10
1335.000000 3.22378000e+10
1345.000000 3.21496000e+10
1355.000000 3.18287000e+10
1365.000000 3.06766000e+10
1375.000000 3.01344000e+10
1385.000000 2.95397000e+10
1395.000000 2.59313000e+10
1405.000000 2.62047000e+10
1415.000000 2.74707000e+10
1425.000000 2.61125000e+10
1435.000000 2.64340000e+10
1442.000000 2.64788000e+10
1447.000000 2.60802000e+10
1455.000000 2.54223000e+10
1465.000000 2.47885000e+10
1475.000000 2.44241000e+10
1485.000000 2.41219000e+10
1495.000000 2.34817000e+10
1505.000000 2.26601000e+10
1512.000000 2.20042000e+10
1517.000000 2.20132000e+10
1525.000000 2.16419000e+10
1535.000000 1.98068000e+10
1545.000000 1.91724000e+10
1555.000000 1.85667000e+10
1565.000000 1.91424000e+10
1575.000000 1.94681000e+10
1585.000000 1.93251000e+10
1595.000000 1.90658000e+10
1605.000000 1.81314000e+10
1615.000000 1.76216000e+10
1625.000000 1.76479000e+10
1635.000000 1.76680000e+10
1645.000000 1.70877000e+10
1655.000000 1.73398000e+10
1665.000000 1.70574000e+10
1672.000000 1.65133000e+10
1677.000000 1.73313000e+10
1685.000000 1.68380000e+10
1695.000000 1.63790000e+10
1705.000000 1.59581000e+10
1715.000000 1.54497000e+10
1725.000000 1.51369000e+10
1735.000000 1.52745000e+10
1745.000000 1.49886000e+10
1755.000000 1.47987000e+10
1765.000000 1.44489000e+10
1775.000000 1.41407000e+10
1785.000000 1.40844000e+10
1795.000000 1.39139000e+10
1805.000000 1.38330000e+10
1815.000000 1.33344000e+10
1825.000000 1.32306000e+10
1835.000000 1.30510000e+10
1845.000000 1.22768000e+10
1855.000000 1.21700000e+10
1865.000000 1.22023000e+10
1875.000000 1.21561000e+10
1885.000000 1.14305000e+10
1895.000000 1.09724000e+10
1905.000000 1.13028000e+10
1915.000000 1.09005000e+10
1925.000000 1.05121000e+10
1935.000000 1.07760000e+10
1945.000000 1.08348000e+10
1955.000000 1.01160000e+10
1967.000000 1.03717000e+10
1976.000000 1.05525000e+10
1984.000000 1.00809000e+10
1995.000000 9.78733000e+09
2005.000000 9.87550000e+09
2015.000000 9.86308000e+09
2025.000000 9.84308000e+09
2035.000000 9.44001000e+09
2045.000000 9.32179000e+09
2055.000000 8.51967000e+09
2065.000000 8.36385000e+09
2074.000000 8.59235000e+09
2078.000000 8.36108000e+09
2085.000000 8.51623000e+09
2095.000000 8.49623000e+09
2105.000000 8.62026000e+09
2115.000000 8.57515000e+09
2125.000000 8.51966000e+09
2135.000000 8.37971000e+09
2145.000000 8.18533000e+09
2155.000000 8.16648000e+09
2165.000000 8.02009000e+09
2175.000000 7.94061000e+09
2185.000000 7.80118000e+09
2195.000000 7.76099000e+09
2205.000000 7.64698000e+09
2215.000000 7.50407000e+09
2225.000000 7.41858000e+09
2235.000000 7.29533000e+09
2245.000000 7.22390000e+09
2255.000000 7.07188000e+09
2265.000000 7.02360000e+09
2275.000000 6.93011000e+09
2285.000000 6.82759000e+09
2295.000000 6.52360000e+09
2305.000000 6.60355000e+09
2315.000000 6.53249000e+09
2325.000000 6.44708000e+09
2335.000000 6.34416000e+09
2345.000000 6.28708000e+09
2355.000000 6.20120000e+09
2365.000000 6.11903000e+09
2375.000000 6.02620000e+09
2385.000000 5.91365000e+09
2395.000000 5.85603000e+09
2405.000000 5.78906000e+09
2415.000000 5.70718000e+09
2425.000000 5.64003000e+09
2435.000000 5.54957000e+09
2445.000000 5.48593000e+09
2455.000000 5.41989000e+09
2465.000000 5.34997000e+09
2475.000000 5.27576000e+09
2485.000000 5.20362000e+09
2495.000000 4.76947000e+09
2505.000000 5.05512000e+09
2513.000000 4.90457000e+09
2518.000000 4.95594000e+09
2525.000000 4.94327000e+09
2535.000000 4.88266000e+09
2545.000000 4.78282000e+09
2555.000000 4.73963000e+09
2565.000000 4.69358000e+09
2575.000000 4.63629000e+09
2585.000000 4.57940000e+09
2595.000000 4.52230000e+09
2605.000000 4.48521000e+09
2615.000000 4.42667000e+09
2625.000000 4.37327000e+09
2635.000000 4.31556000e+09
2645.000000 4.25833000e+09
2655.000000 4.20408000e+09
2665.000000 4.13678000e+09
2675.000000 4.08606000e+09
2685.000000 4.06002000e+09
2695.000000 3.97258000e+09
2705.000000 3.94800000e+09
2715.000000 3.90389000e+09
2725.000000 3.83882000e+09
2735.000000 3.79831000e+09
2745.000000 3.76683000e+09
2755.000000 3.72529000e+09
2765.000000 3.65513000e+09
2775.000000 3.64121000e+09
2785.000000 3.59466000e+09
2795.000000 3.51406000e+09
2805.000000 3.49872000e+09
2815.000000 3.47210000e+09
2825.000000 3.40460000e+09
2835.000000 3.35738000e+09
2845.000000 3.35192000e+09
2855.000000 3.30865000e+09
2865.000000 3.27169000e+09
2875.000000 3.23471000e+09
2885.000000 3.19879000e+09
2895.000000 3.16063000e+09
2910.000000 3.10375000e+09
2930.000000 3.03700000e+09
2950.000000 2.94916000e+09
2970.000000 2.90112000e+09
2990.000000 2.83479000e+09
3010.000000 2.76673000e+09
3030.000000 2.71145000e+09
3050.000000 2.65454000e+09
3070.000000 2.59900000e+09
3090.000000 2.52905000e+09
3110.000000 2.48696000e+09
3130.000000 2.43294000e+09
3150.000000 2.38104000e+09
3170.000000 2.33028000e+09
3190.000000 2.26765000e+09
3210.000000 2.23154000e+09
3230.000000 2.18681000e+09
3250.000000 2.14307000e+09
3270.000000 2.09956000e+09
3290.000000 2.05469000e+09
3310.000000 2.01581000e+09
3330.000000 1.97369000e+09
3350.000000 1.93180000e+09
3370.000000 1.89557000e+09
3390.000000 1.85934000e+09
3410.000000 1.82272000e+09
3430.000000 1.77995000e+09
3450.000000 1.73946000e+09
3470.000000 1.70952000e+09
3490.000000 1.67594000e+09
3510.000000 1.64790000e+09
3530.000000 1.61928000e+09
3550.000000 1.58820000e+09
3570.000000 1.56504000e+09
3590.000000 1.52561000e+09
3610.000000 1.50043000e+09
3630.000000 1.46942000e+09
3640.000000 1.46474000e+09
3650.000000 1.43325000e+09
3670.000000 1.41292000e+09
3690.000000 1.38287000e+09
3710.000000 1.33710000e+09
3730.000000 1.28792000e+09
3750.000000 1.32301000e+09
3770.000000 1.30988000e+09
3790.000000 1.35075000e+09
3810.000000 1.38888000e+09
3830.000000 1.24194000e+09
3850.000000 1.39732000e+09
3870.000000 1.38777000e+09
3890.000000 1.17713000e+09
3910.000000 1.35805000e+09
3930.000000 1.32901000e+09
3950.000000 1.30851000e+09
3970.000000 1.09030000e+09
3990.000000 1.26010000e+09
4010.000000 1.24322000e+09
4030.000000 1.18751000e+09
4050.000000 1.20965000e+09
4070.000000 1.17604000e+09
4090.000000 1.11090000e+09
4110.000000 9.98287000e+08
4130.000000 1.11100000e+09
4150.000000 1.09820000e+09
4170.000000 1.08699000e+09
4190.000000 1.06907000e+09
4210.000000 1.05230000e+09
4230.000000 1.03496000e+09
4250.000000 1.01482000e+09
4270.000000 9.93060000e+08
4290.000000 9.80158000e+08
4310.000000 9.59239000e+08
4330.000000 8.95322000e+08
4350.000000 8.25709000e+08
4370.000000 9.11932000e+08
4390.000000 8.86146000e+08
4410.000000 8.85701000e+08
4430.000000 8.72500000e+08
4450.000000 8.60014000e+08
4470.000000 8.20679000e+08
4490.000000 8.32220000e+08
4510.000000 8.20058000e+08
4530.000000 8.07050000e+08
4550.000000 7.92565000e+08
4570.000000 7.80466000e+08
4590.000000 7.67760000e+08
4610.000000 7.55866000e+08
4630.000000 7.43902000e+08
4650.000000 7.24206000e+08
4670.000000 7.20279000e+08
4690.000000 7.07486000e+08
4710.000000 6.90384000e+08
4730.000000 6.88937000e+08
4750.000000 6.77754000e+08
4770.000000 6.69135000e+08
4790.000000 6.58830000e+08
4810.000000 6.48315000e+08
4830.000000 6.35965000e+08
4850.000000 6.01598000e+08
4870.000000 5.46536000e+08
4890.000000 6.07378000e+08
4910.000000 6.00971000e+08
4930.000000 5.81720000e+08
4950.000000 5.83072000e+08
4970.000000 5.75628000e+08
4990.000000 5.67119000e+08
5010.000000 5.52034000e+08
5030.000000 5.50631000e+08
5050.000000 5.40118000e+08
5070.000000 5.34971000e+08
5090.000000 5.27184000e+08
5110.000000 5.19617000e+08
5130.000000 5.11923000e+08
5150.000000 5.04645000e+08
5170.000000 4.97689000e+08
5190.000000 4.90812000e+08
5210.000000 4.83887000e+08
5230.000000 4.77108000e+08
5250.000000 4.70459000e+08
5270.000000 4.63843000e+08
5290.000000 4.57475000e+08
5310.000000 4.51122000e+08
5330.000000 4.44958000e+08
5350.000000 4.38821000e+08
5370.000000 4.32867000e+08
5390.000000 4.26886000e+08
5410.000000 4.20698000e+08
5430.000000 4.15458000e+08
5450.000000 4.09801000e+08
5470.000000 4.04305000e+08
5490.000000 3.98902000e+08
5510.000000 3.93604000e+08
5530.000000 3.88311000e+08
5550.000000 3.83230000e+08
5570.000000 3.78127000e+08
5590.000000 3.73136000e+08
5610.000000 3.68253000e+08
5630.000000 3.63443000e+08
5650.000000 3.58620000e+08
5670.000000 3.53739000e+08
5690.000000 3.48569000e+08
5710.000000 3.44699000e+08
5730.000000 3.40312000e+08
5750.000000 3.35704000e+08
5770.000000 3.31751000e+08
5790.000000 3.27497000e+08
5810.000000 3.23337000e+08
5830.000000 3.19094000e+08
5850.000000 3.15188000e+08
5870.000000 3.03543000e+08
5890.000000 3.06741000e+08
5910.000000 3.03374000e+08
5930.000000 2.99531000e+08
5950.000000 2.95807000e+08
5970.000000 2.92349000e+08
5990.000000 2.88615000e+08
6010.000000 2.85133000e+08
6030.000000 2.81577000e+08
6050.000000 2.78174000e+08
6070.000000 2.74820000e+08
6090.000000 2.71485000e+08
6110.000000 2.68186000e+08
6130.000000 2.64945000e+08
6150.000000 2.61641000e+08
6170.000000 2.58543000e+08
6190.000000 2.55488000e+08
6210.000000 2.52448000e+08
6230.000000 2.49442000e+08
6250.000000 2.46459000e+08
6270.000000 2.43548000e+08
6290.000000 2.40688000e+08
6310.000000 2.37830000e+08
6330.000000 2.35060000e+08
6350.000000 2.32274000e+08
6370.000000 2.29592000e+08
6390.000000 2.26912000e+08
6410.000000 2.24279000e+08
6430.000000 2.21692000e+08
6450.000000 2.19133000e+08
6470.000000 2.16520000e+08
6490.000000 2.14052000e+08
6510.000000 2.11663000e+08
6530.000000 2.08743000e+08
6550.000000 2.02017000e+08
6570.000000 1.82251000e+08
6590.000000 2.00726000e+08
6610.000000 1.99867000e+08
6630.000000 1.97677000e+08
6650.000000 1.95519000e+08
6670.000000 1.91782000e+08
6690.000000 1.89669000e+08
6710.000000 1.89076000e+08
6730.000000 1.86905000e+08
6750.000000 1.84923000e+08
6770.000000 1.82887000e+08
6790.000000 1.80724000e+08
6810.000000 1.78876000e+08
6830.000000 1.76910000e+08
6850.000000 1.75003000e+08
6870.000000 1.73091000e+08
6890.000000 1.71183000e+08
6910.000000 1.69310000e+08
6930.000000 1.67542000e+08
6950.000000 1.65737000e+08
6970.000000 1.63957000e+08
6990.000000 1.62203000e+08
7010.000000 1.60474000e+08
7030.000000 1.58754000e+08
7050.000000 1.57074000e+08
7070.000000 1.53232000e+08
7090.000000 1.53770000e+08
7110.000000 1.52139000e+08
7130.000000 1.50545000e+08
7150.000000 1.48975000e+08
7170.000000 1.47390000e+08
7190.000000 1.45886000e+08
7210.000000 1.44368000e+08
7230.000000 1.42367000e+08
7250.000000 1.41346000e+08
7270.000000 1.39935000e+08
7290.000000 1.37488000e+08
7310.000000 1.37054000e+08
7330.000000 1.35669000e+08
7350.000000 1.34283000e+08
7370.000000 1.32917000e+08
7390.000000 1.31571000e+08
7410.000000 1.30237000e+08
7430.000000 1.28916000e+08
7450.000000 1.27634000e+08
7470.000000 1.26283000e+08
7490.000000 1.25073000e+08
7510.000000 1.23793000e+08
7530.000000 1.22591000e+08
7550.000000 1.21374000e+08
7570.000000 1.20168000e+08
7590.000000 1.18974000e+08
7610.000000 1.17777000e+08
7630.000000 1.16642000e+08
7650.000000 1.15492000e+08
7670.000000 1.14359000e+08
7690.000000 1.13243000e+08
7710.000000 1.12136000e+08
7730.000000 1.11040000e+08
7750.000000 1.09966000e+08
7770.000000 1.08882000e+08
7790.000000 1.07846000e+08
7810.000000 1.06757000e+08
7830.000000 1.05782000e+08
7850.000000 1.04853000e+08
7870.000000 1.03822000e+08
7890.000000 1.02782000e+08
7910.000000 1.01871000e+08
7930.000000 1.00885000e+08
7950.000000 9.99307000e+07
7970.000000 9.88723000e+07
7990.000000 9.79648000e+07
8010.000000 9.69830000e+07
8030.000000 9.60857000e+07
8050.000000 9.52077000e+07
8070.000000 9.43430000e+07
8090.000000 9.33245000e+07
8110.000000 9.24639000e+07
8130.000000 9.17587000e+07
8150.000000 9.07871000e+07
8170.000000 9.00892000e+07
8190.000000 8.91049000e+07
8210.000000 8.80565000e+07
8230.000000 8.74233000e+07
8250.000000 8.66955000e+07
8270.000000 8.54945000e+07
8290.000000 8.50496000e+07
8310.000000 8.43079000e+07
8330.000000 8.35127000e+07
8350.000000 8.24107000e+07
8370.000000 8.18829000e+07
8390.000000 8.12467000e+07
8410.000000 8.05039000e+07
8430.000000 7.97142000e+07
8450.000000 7.85511000e+07
8470.000000 7.81964000e+07
8490.000000 7.74521000e+07
8510.000000 7.65943000e+07
8530.000000 7.61423000e+07
8550.000000 7.45961000e+07
8570.000000 7.55153000e+07
8590.000000 7.28155000e+07
8610.000000 7.25436000e+07
8630.000000 7.40440000e+07
8650.000000 7.21411000e+07
8670.000000 6.83155000e+07
8690.000000 7.21570000e+07
8710.000000 7.22332000e+07
8730.000000 7.02813000e+07
8750.000000 6.45822000e+07
8770.000000 6.83534000e+07
8790.000000 6.99979000e+07
8810.000000 6.95397000e+07
8830.000000 6.87274000e+07
8850.000000 6.50982000e+07
8870.000000 6.08546000e+07
8890.000000 6.64395000e+07
8910.000000 6.66399000e+07
8930.000000 6.61338000e+07
8950.000000 6.57210000e+07
8970.000000 6.50677000e+07
8990.000000 6.34687000e+07
9010.000000 5.74143000e+07
9030.000000 5.98815000e+07
9050.000000 6.25655000e+07
9070.000000 6.19144000e+07
9090.000000 6.18474000e+07
9110.000000 6.15308000e+07
9130.000000 6.10491000e+07
9150.000000 6.05395000e+07
9170.000000 5.98367000e+07
9190.000000 5.92286000e+07
9210.000000 5.69819000e+07
9230.000000 5.11501000e+07
9250.000000 5.61863000e+07
9270.000000 5.72287000e+07
9290.000000 5.70305000e+07
9310.000000 5.64120000e+07
9330.000000 5.61401000e+07
9350.000000 5.56718000e+07
9370.000000 5.52670000e+07
9390.000000 5.48182000e+07
9410.000000 5.43685000e+07
9430.000000 5.39305000e+07
9450.000000 5.34958000e+07
9470.000000 5.27744000e+07
9490.000000 5.25396000e+07
9510.000000 5.14982000e+07
9530.000000 4.95982000e+07
9550.000000 4.48221000e+07
9570.000000 4.97480000e+07
9590.000000 5.02985000e+07
9610.000000 4.99629000e+07
9630.000000 4.95159000e+07
9650.000000 4.93595000e+07
9670.000000 4.89702000e+07
9690.000000 4.85476000e+07
9710.000000 4.80481000e+07
9730.000000 4.78189000e+07
9750.000000 4.74446000e+07
9770.000000 4.70730000e+07
9790.000000 4.67000000e+07
9810.000000 4.63297000e+07
9830.000000 4.59777000e+07
9850.000000 4.56164000e+07
9870.000000 4.52577000e+07
9890.000000 4.49015000e+07
9910.000000 4.44941000e+07
9930.000000 4.42196000e+07
9950.000000 4.38784000e+07
9970.000000 4.35319000e+07
9990.000000 4.31464000e+07
10025.000000 4.11401000e+07
10075.000000 3.98495000e+07
10125.000000 4.08900000e+07
10175.000000 4.02599000e+07
10225.000000 3.94924000e+07
10275.000000 3.87736000e+07
10325.000000 3.79219000e+07
10375.000000 3.73542000e+07
10425.000000 3.66675000e+07
10475.000000 3.59990000e+07
10525.000000 3.53415000e+07
10575.000000 3.47015000e+07
10625.000000 3.40787000e+07
10675.000000 3.34097000e+07
10725.000000 3.28664000e+07
10775.000000 3.22830000e+07
10825.000000 3.14081000e+07
10875.000000 3.10910000e+07
10925.000000 2.85212000e+07
10975.000000 2.95636000e+07
11025.000000 2.93838000e+07
11075.000000 2.90193000e+07
11125.000000 2.85347000e+07
11175.000000 2.80449000e+07
11225.000000 2.75522000e+07
11275.000000 2.70953000e+07
11325.000000 2.66322000e+07
11375.000000 2.61858000e+07
11425.000000 2.57441000e+07
11475.000000 2.53145000e+07
11525.000000 2.48925000e+07
11575.000000 2.44777000e+07
11625.000000 2.40722000e+07
11675.000000 2.36741000e+07
11725.000000 2.32893000e+07
11775.000000 2.29085000e+07
11825.000000 2.25358000e+07
11875.000000 2.21709000e+07
11925.000000 2.18129000e+07
11975.000000 2.12812000e+07
12025.000000 2.11184000e+07
12075.000000 2.07818000e+07
12125.000000 2.04517000e+07
12175.000000 2.01280000e+07
12225.000000 1.98107000e+07
12275.000000 1.94998000e+07
12325.000000 1.91949000e+07
12375.000000 1.88957000e+07
12425.000000 1.86026000e+07
12475.000000 1.83141000e+07
12525.000000 1.79991000e+07
12575.000000 1.77553000e+07
12625.000000 1.74842000e+07
12675.000000 1.72187000e+07
12725.000000 1.69574000e+07
12775.000000 1.64521000e+07
12825.000000 1.53380000e+07
12875.000000 1.61252000e+07
12925.000000 1.59612000e+07
12975.000000 1.56290000e+07
13025.000000 1.54895000e+07
13075.000000 1.52619000e+07
