# Kurucz ODFNEW /NOVER, alpha: 0.0 (2003)
# teff = 20000 K (value for the effective temperature for the model. Temperatures are given in K)
# logg = 4.5 log(cm/s2) (value for Log(G) for the model.)
# lh = 1.25  (l/Hp where l is the  mixing length of the convective element and Hp is the pressure scale height)
# meta = -0.5  (value for the Metallicity for the model.)
# vtur = 2 km/s (Microturbulence velocity)
# alpha = 0  (Alpha)
#
# column 1: WAVELENGTH (ANGSTROM), Wavelength in Angstrom
# column 2: FLUX (ERG/CM2/S/A), Flux in erg/cm2/s/A
147.200000 1.46391000e-19
151.000000 8.83094000e-19
155.200000 5.81398000e-18
158.800000 2.70027000e-17
162.000000 9.99817000e-17
166.000000 4.78896000e-16
170.300000 2.37894000e-15
173.400000 7.19853000e-15
176.800000 2.32028000e-14
180.200000 7.16321000e-14
181.700000 1.16220000e-13
186.100000 4.60562000e-13
191.000000 1.98376000e-12
193.900000 4.54333000e-12
198.400000 1.56951000e-11
201.800000 3.86913000e-11
205.000000 8.81354000e-11
210.500000 3.41954000e-10
216.200000 1.29842000e-09
219.800000 2.91234000e-09
223.000000 5.84007000e-09
226.800000 1.30197000e-08
230.000000 5.82684000e-08
234.000000 1.45900000e-07
240.000000 4.52062000e-07
246.500000 1.43190000e-06
252.400000 3.88511000e-06
256.800000 7.80351000e-06
260.000000 1.30925000e-05
264.000000 2.41153000e-05
268.500000 4.68083000e-05
273.500000 9.52472000e-05
278.500000 1.89302000e-04
284.000000 3.91559000e-04
290.000000 8.36420000e-04
296.000000 1.72838000e-03
301.000000 3.09879000e-03
308.000000 6.71222000e-03
318.000000 1.95659000e-02
328.000000 5.25539000e-02
338.000000 1.33496000e-01
348.000000 3.19945000e-01
357.000000 6.74069000e-01
366.000000 1.36764000e+00
375.000000 2.66209000e+00
385.000000 5.38261000e+00
395.000000 1.04620000e+01
405.000000 1.96563000e+01
414.000000 3.37460000e+01
422.000000 5.33138000e+01
430.000000 8.25586000e+01
441.000000 1.47520000e+02
451.000000 2.43021000e+02
460.000000 3.72724000e+02
470.000000 5.87828000e+02
480.000000 9.07127000e+02
490.000000 1.37440000e+03
500.000000 2.04338000e+03
506.000000 1.66120000e+04
512.000000 5.61665000e+04
520.000000 7.24466000e+04
530.000000 1.03176000e+05
540.000000 1.21444000e+05
550.000000 1.78302000e+05
560.000000 2.23082000e+05
570.000000 2.88003000e+05
580.000000 3.07252000e+05
590.000000 4.22281000e+05
600.000000 5.36515000e+05
610.000000 6.67249000e+05
620.000000 7.94444000e+05
630.000000 9.58671000e+05
640.000000 1.09965000e+06
650.000000 1.26171000e+06
658.000000 1.52732000e+06
665.000000 1.69246000e+06
675.000000 1.93241000e+06
685.000000 2.23264000e+06
695.000000 2.65935000e+06
705.000000 3.02831000e+06
716.000000 3.51049000e+06
726.000000 3.95602000e+06
735.000000 4.42731000e+06
745.000000 5.07021000e+06
755.000000 5.72399000e+06
765.000000 6.41172000e+06
775.000000 7.20310000e+06
785.000000 8.04476000e+06
795.000000 8.84683000e+06
805.000000 9.77191000e+06
815.000000 1.06940000e+07
825.000000 1.18688000e+07
835.000000 1.27290000e+07
845.000000 1.40118000e+07
855.000000 1.52372000e+07
865.000000 1.66950000e+07
875.000000 1.82444000e+07
885.000000 1.99340000e+07
895.000000 2.15242000e+07
905.000000 2.26247000e+07
915.000000 3.46408000e+07
925.000000 1.27101000e+08
935.000000 3.56069000e+08
945.000000 1.61116000e+09
955.000000 4.05527000e+09
965.000000 5.76487000e+09
975.000000 1.18703000e+09
985.000000 8.93341000e+09
995.000000 9.10254000e+09
1005.000000 1.01849000e+10
1015.000000 7.78709000e+09
1025.000000 1.02022000e+09
1035.000000 5.25376000e+09
1045.000000 1.12702000e+10
1055.000000 1.11117000e+10
1065.000000 9.40740000e+09
1075.000000 1.08671000e+10
1085.000000 9.77773000e+09
1095.000000 1.07496000e+10
1105.000000 9.71053000e+09
1115.000000 9.47714000e+09
1125.000000 8.74652000e+09
1135.000000 9.96492000e+09
1145.000000 8.89047000e+09
1155.000000 9.32910000e+09
1165.000000 9.56407000e+09
1175.000000 7.55492000e+09
1185.000000 9.30888000e+09
1195.000000 7.14375000e+09
1205.000000 4.31363000e+09
1215.000000 9.38694000e+08
1225.000000 4.42824000e+09
1235.000000 7.83185000e+09
1245.000000 8.40458000e+09
1255.000000 8.21975000e+09
1265.000000 7.73882000e+09
1275.000000 8.17084000e+09
1285.000000 8.18836000e+09
1295.000000 6.37555000e+09
1305.000000 6.06851000e+09
1315.000000 7.74559000e+09
1325.000000 7.34414000e+09
1335.000000 6.75850000e+09
1345.000000 7.24960000e+09
1355.000000 7.09169000e+09
1365.000000 6.62725000e+09
1375.000000 6.58242000e+09
1385.000000 6.62754000e+09
1395.000000 6.02101000e+09
1405.000000 6.21176000e+09
1415.000000 6.12276000e+09
1425.000000 6.11765000e+09
1435.000000 6.09086000e+09
1442.000000 6.20326000e+09
1447.000000 6.10379000e+09
1455.000000 5.96959000e+09
1465.000000 5.69546000e+09
1475.000000 5.62490000e+09
1485.000000 5.45954000e+09
1495.000000 5.43091000e+09
1505.000000 5.13743000e+09
1512.000000 4.77622000e+09
1517.000000 4.92388000e+09
1525.000000 4.94930000e+09
1535.000000 4.56781000e+09
1545.000000 4.67048000e+09
1555.000000 4.42536000e+09
1565.000000 4.46558000e+09
1575.000000 4.61392000e+09
1585.000000 4.56998000e+09
1595.000000 4.59727000e+09
1605.000000 4.46280000e+09
1615.000000 4.41261000e+09
1625.000000 4.29256000e+09
1635.000000 4.36972000e+09
1645.000000 4.31174000e+09
1655.000000 4.10616000e+09
1665.000000 4.30554000e+09
1672.000000 4.12806000e+09
1677.000000 4.20797000e+09
1685.000000 4.20672000e+09
1695.000000 4.04879000e+09
1705.000000 3.87884000e+09
1715.000000 3.72487000e+09
1725.000000 3.66573000e+09
1735.000000 3.75537000e+09
1745.000000 3.63761000e+09
1755.000000 3.70660000e+09
1765.000000 3.45514000e+09
1775.000000 3.50169000e+09
1785.000000 3.48610000e+09
1795.000000 3.54254000e+09
1805.000000 3.51114000e+09
1815.000000 3.31131000e+09
1825.000000 3.36572000e+09
1835.000000 3.25698000e+09
1845.000000 3.04989000e+09
1855.000000 2.97779000e+09
1865.000000 3.00324000e+09
1875.000000 3.12474000e+09
1885.000000 2.88419000e+09
1895.000000 2.74063000e+09
1905.000000 2.88976000e+09
1915.000000 2.75703000e+09
1925.000000 2.68739000e+09
1935.000000 2.74632000e+09
1945.000000 2.78547000e+09
1955.000000 2.60180000e+09
1967.000000 2.72770000e+09
1976.000000 2.79601000e+09
1984.000000 2.63588000e+09
1995.000000 2.56354000e+09
2005.000000 2.60401000e+09
2015.000000 2.56347000e+09
2025.000000 2.63055000e+09
2035.000000 2.48750000e+09
2045.000000 2.48359000e+09
2055.000000 2.39989000e+09
2065.000000 2.42909000e+09
2074.000000 2.47873000e+09
2078.000000 2.36895000e+09
2085.000000 2.40299000e+09
2095.000000 2.30302000e+09
2105.000000 2.33595000e+09
2115.000000 2.31618000e+09
2125.000000 2.34249000e+09
2135.000000 2.28258000e+09
2145.000000 2.21918000e+09
2155.000000 2.25177000e+09
2165.000000 2.20867000e+09
2175.000000 2.18044000e+09
2185.000000 2.14522000e+09
2195.000000 2.15410000e+09
2205.000000 2.10687000e+09
2215.000000 2.06885000e+09
2225.000000 2.01506000e+09
2235.000000 2.03349000e+09
2245.000000 2.00959000e+09
2255.000000 1.95721000e+09
2265.000000 1.96831000e+09
2275.000000 1.94718000e+09
2285.000000 1.94389000e+09
2295.000000 1.88249000e+09
2305.000000 1.87329000e+09
2315.000000 1.83464000e+09
2325.000000 1.81827000e+09
2335.000000 1.76265000e+09
2345.000000 1.72264000e+09
2355.000000 1.73963000e+09
2365.000000 1.69249000e+09
2375.000000 1.69256000e+09
2385.000000 1.64978000e+09
2395.000000 1.66716000e+09
2405.000000 1.62669000e+09
2415.000000 1.61531000e+09
2425.000000 1.62124000e+09
2435.000000 1.57338000e+09
2445.000000 1.57617000e+09
2455.000000 1.57142000e+09
2465.000000 1.53563000e+09
2475.000000 1.51876000e+09
2485.000000 1.52193000e+09
2495.000000 1.47714000e+09
2505.000000 1.49418000e+09
2513.000000 1.44406000e+09
2518.000000 1.46947000e+09
2525.000000 1.43279000e+09
2535.000000 1.40996000e+09
2545.000000 1.39221000e+09
2555.000000 1.41140000e+09
2565.000000 1.38822000e+09
2575.000000 1.39331000e+09
2585.000000 1.38549000e+09
2595.000000 1.37074000e+09
2605.000000 1.35480000e+09
2615.000000 1.34286000e+09
2625.000000 1.32827000e+09
2635.000000 1.31626000e+09
2645.000000 1.32819000e+09
2655.000000 1.31360000e+09
2665.000000 1.28356000e+09
2675.000000 1.28287000e+09
2685.000000 1.27438000e+09
2695.000000 1.24782000e+09
2705.000000 1.24464000e+09
2715.000000 1.22537000e+09
2725.000000 1.20432000e+09
2735.000000 1.20922000e+09
2745.000000 1.16663000e+09
2755.000000 1.16111000e+09
2765.000000 1.15671000e+09
2775.000000 1.16459000e+09
2785.000000 1.14900000e+09
2795.000000 1.10834000e+09
2805.000000 1.12200000e+09
2815.000000 1.12264000e+09
2825.000000 1.10045000e+09
2835.000000 1.07344000e+09
2845.000000 1.07643000e+09
2855.000000 1.07209000e+09
2865.000000 1.06962000e+09
2875.000000 1.05499000e+09
2885.000000 1.04706000e+09
2895.000000 1.03813000e+09
2910.000000 1.02460000e+09
2930.000000 1.00005000e+09
2950.000000 9.76488000e+08
2970.000000 9.66840000e+08
2990.000000 9.45858000e+08
3010.000000 9.31501000e+08
3030.000000 9.16824000e+08
3050.000000 8.99331000e+08
3070.000000 8.82735000e+08
3090.000000 8.66058000e+08
3110.000000 8.50476000e+08
3130.000000 8.36450000e+08
3150.000000 8.21268000e+08
3170.000000 8.06064000e+08
3190.000000 7.84623000e+08
3210.000000 7.77618000e+08
3230.000000 7.64299000e+08
3250.000000 7.51105000e+08
3270.000000 7.38915000e+08
3290.000000 7.25469000e+08
3310.000000 7.14115000e+08
3330.000000 7.01758000e+08
3350.000000 6.88637000e+08
3370.000000 6.77966000e+08
3390.000000 6.66679000e+08
3410.000000 6.55642000e+08
3430.000000 6.42863000e+08
3450.000000 6.30589000e+08
3470.000000 6.21432000e+08
3490.000000 6.11206000e+08
3510.000000 6.02059000e+08
3530.000000 5.93230000e+08
3550.000000 5.83635000e+08
3570.000000 5.76553000e+08
3590.000000 5.64096000e+08
3610.000000 5.56273000e+08
3630.000000 5.46558000e+08
3640.000000 5.45179000e+08
3650.000000 5.38577000e+08
3670.000000 5.32303000e+08
3690.000000 5.22371000e+08
3710.000000 5.05012000e+08
3730.000000 4.83120000e+08
3750.000000 5.08468000e+08
3770.000000 5.12073000e+08
3790.000000 5.54757000e+08
3810.000000 5.89434000e+08
3830.000000 5.02600000e+08
3850.000000 6.17483000e+08
3870.000000 6.38535000e+08
3890.000000 4.69813000e+08
3910.000000 6.33201000e+08
3930.000000 6.29139000e+08
3950.000000 6.15033000e+08
3970.000000 4.39716000e+08
3990.000000 5.86648000e+08
4010.000000 5.96297000e+08
4030.000000 5.55297000e+08
4050.000000 5.85840000e+08
4070.000000 5.69362000e+08
4090.000000 5.01289000e+08
4110.000000 4.25703000e+08
4130.000000 5.30742000e+08
4150.000000 5.32660000e+08
4170.000000 5.30098000e+08
4190.000000 5.24920000e+08
4210.000000 5.17224000e+08
4230.000000 5.08408000e+08
4250.000000 4.99775000e+08
4270.000000 4.86902000e+08
4290.000000 4.82065000e+08
4310.000000 4.68942000e+08
4330.000000 4.03536000e+08
4350.000000 3.63520000e+08
4370.000000 4.44396000e+08
4390.000000 4.29859000e+08
4410.000000 4.39025000e+08
4430.000000 4.31173000e+08
4450.000000 4.27039000e+08
4470.000000 3.97019000e+08
4490.000000 4.11018000e+08
4510.000000 4.08548000e+08
4530.000000 4.01717000e+08
4550.000000 3.95755000e+08
4570.000000 3.90025000e+08
4590.000000 3.84345000e+08
4610.000000 3.78376000e+08
4630.000000 3.72338000e+08
4650.000000 3.66598000e+08
4670.000000 3.61962000e+08
4690.000000 3.57014000e+08
4710.000000 3.45634000e+08
4730.000000 3.44957000e+08
4750.000000 3.39637000e+08
4770.000000 3.36894000e+08
4790.000000 3.31229000e+08
4810.000000 3.24817000e+08
4830.000000 3.16820000e+08
4850.000000 2.80099000e+08
4870.000000 2.46129000e+08
4890.000000 3.01404000e+08
4910.000000 3.01985000e+08
4930.000000 2.90411000e+08
4950.000000 2.95864000e+08
4970.000000 2.92130000e+08
4990.000000 2.87917000e+08
5010.000000 2.78734000e+08
5030.000000 2.79619000e+08
5050.000000 2.72592000e+08
5070.000000 2.72425000e+08
5090.000000 2.68674000e+08
5110.000000 2.64800000e+08
5130.000000 2.61007000e+08
5150.000000 2.57365000e+08
5170.000000 2.54447000e+08
5190.000000 2.51063000e+08
5210.000000 2.46655000e+08
5230.000000 2.44401000e+08
5250.000000 2.41203000e+08
5270.000000 2.37937000e+08
5290.000000 2.34997000e+08
5310.000000 2.31854000e+08
5330.000000 2.28725000e+08
5350.000000 2.25452000e+08
5370.000000 2.22992000e+08
5390.000000 2.20095000e+08
5410.000000 2.17197000e+08
5430.000000 2.14041000e+08
5450.000000 2.11509000e+08
5470.000000 2.08794000e+08
5490.000000 2.06338000e+08
5510.000000 2.03652000e+08
5530.000000 2.01122000e+08
5550.000000 1.98635000e+08
5570.000000 1.96106000e+08
5590.000000 1.93693000e+08
5610.000000 1.91153000e+08
5630.000000 1.88977000e+08
5650.000000 1.85954000e+08
5670.000000 1.83801000e+08
5690.000000 1.81755000e+08
5710.000000 1.79767000e+08
5730.000000 1.77585000e+08
5750.000000 1.75395000e+08
5770.000000 1.73321000e+08
5790.000000 1.71204000e+08
5810.000000 1.69124000e+08
5830.000000 1.67079000e+08
5850.000000 1.65091000e+08
5870.000000 1.57768000e+08
5890.000000 1.60478000e+08
5910.000000 1.59221000e+08
5930.000000 1.57356000e+08
5950.000000 1.55289000e+08
5970.000000 1.53669000e+08
5990.000000 1.51752000e+08
6010.000000 1.50118000e+08
6030.000000 1.48346000e+08
6050.000000 1.46637000e+08
6070.000000 1.44925000e+08
6090.000000 1.43234000e+08
6110.000000 1.41611000e+08
6130.000000 1.39987000e+08
6150.000000 1.38181000e+08
6170.000000 1.36772000e+08
6190.000000 1.35241000e+08
6210.000000 1.33697000e+08
6230.000000 1.32171000e+08
6250.000000 1.30564000e+08
6270.000000 1.29196000e+08
6290.000000 1.27747000e+08
6310.000000 1.26257000e+08
6330.000000 1.24916000e+08
6350.000000 1.23074000e+08
6370.000000 1.21875000e+08
6390.000000 1.20772000e+08
6410.000000 1.19415000e+08
6430.000000 1.18172000e+08
6450.000000 1.16842000e+08
6470.000000 1.15518000e+08
6490.000000 1.14190000e+08
6510.000000 1.12619000e+08
6530.000000 1.10613000e+08
6550.000000 1.03160000e+08
6570.000000 9.02442000e+07
6590.000000 1.05529000e+08
6610.000000 1.06495000e+08
6630.000000 1.05733000e+08
6650.000000 1.04860000e+08
6670.000000 1.02631000e+08
6690.000000 1.01598000e+08
6710.000000 1.01579000e+08
6730.000000 1.00510000e+08
6750.000000 9.94607000e+07
6770.000000 9.84218000e+07
6790.000000 9.72709000e+07
6810.000000 9.63511000e+07
6830.000000 9.53435000e+07
6850.000000 9.43700000e+07
6870.000000 9.33983000e+07
6890.000000 9.24283000e+07
6910.000000 9.14759000e+07
6930.000000 9.05015000e+07
6950.000000 8.96070000e+07
6970.000000 8.86981000e+07
6990.000000 8.77826000e+07
7010.000000 8.68914000e+07
7030.000000 8.60089000e+07
7050.000000 8.51047000e+07
7070.000000 8.30110000e+07
7090.000000 8.34427000e+07
7110.000000 8.25938000e+07
7130.000000 8.17754000e+07
7150.000000 8.09501000e+07
7170.000000 8.01401000e+07
7190.000000 7.93596000e+07
7210.000000 7.85721000e+07
7230.000000 7.73524000e+07
7250.000000 7.70123000e+07
7270.000000 7.62755000e+07
7290.000000 7.49927000e+07
7310.000000 7.47803000e+07
7330.000000 7.40573000e+07
7350.000000 7.33340000e+07
7370.000000 7.26244000e+07
7390.000000 7.19214000e+07
7410.000000 7.12250000e+07
7430.000000 7.05145000e+07
7450.000000 6.98581000e+07
7470.000000 6.91740000e+07
7490.000000 6.85163000e+07
7510.000000 6.78579000e+07
7530.000000 6.72255000e+07
7550.000000 6.65923000e+07
7570.000000 6.59647000e+07
7590.000000 6.53377000e+07
7610.000000 6.47267000e+07
7630.000000 6.41179000e+07
7650.000000 6.35153000e+07
7670.000000 6.29213000e+07
7690.000000 6.23333000e+07
7710.000000 6.17530000e+07
7730.000000 6.11760000e+07
7750.000000 6.06098000e+07
7770.000000 5.98058000e+07
7790.000000 5.94966000e+07
7810.000000 5.89273000e+07
7830.000000 5.84085000e+07
7850.000000 5.78509000e+07
7870.000000 5.73279000e+07
7890.000000 5.67472000e+07
7910.000000 5.63413000e+07
7930.000000 5.58346000e+07
7950.000000 5.52703000e+07
7970.000000 5.47994000e+07
7990.000000 5.42462000e+07
8010.000000 5.38406000e+07
8030.000000 5.33402000e+07
8050.000000 5.28604000e+07
8070.000000 5.23899000e+07
8090.000000 5.18687000e+07
8110.000000 5.14248000e+07
8130.000000 5.09897000e+07
8150.000000 5.05038000e+07
8170.000000 5.01061000e+07
8190.000000 4.96179000e+07
8210.000000 4.90747000e+07
8230.000000 4.87124000e+07
8250.000000 4.83575000e+07
8270.000000 4.77841000e+07
8290.000000 4.75050000e+07
8310.000000 4.71162000e+07
8330.000000 4.67007000e+07
8350.000000 4.61423000e+07
8370.000000 4.58473000e+07
8390.000000 4.55193000e+07
8410.000000 4.51129000e+07
8430.000000 4.46838000e+07
8450.000000 4.40109000e+07
8470.000000 4.38479000e+07
8490.000000 4.34346000e+07
8510.000000 4.29498000e+07
8530.000000 4.27258000e+07
8550.000000 4.17439000e+07
8570.000000 4.23936000e+07
8590.000000 4.07689000e+07
8610.000000 4.05487000e+07
8630.000000 4.17389000e+07
8650.000000 4.04162000e+07
8670.000000 3.78594000e+07
8690.000000 4.06267000e+07
8710.000000 4.10760000e+07
8730.000000 3.96389000e+07
8750.000000 3.55072000e+07
8770.000000 3.81819000e+07
8790.000000 4.00304000e+07
8810.000000 4.00537000e+07
8830.000000 3.92970000e+07
8850.000000 3.62206000e+07
8870.000000 3.33889000e+07
8890.000000 3.75747000e+07
8910.000000 3.84573000e+07
8930.000000 3.83651000e+07
8950.000000 3.81712000e+07
8970.000000 3.76351000e+07
8990.000000 3.61295000e+07
9010.000000 3.16437000e+07
9030.000000 3.31088000e+07
9050.000000 3.58508000e+07
9070.000000 3.59108000e+07
9090.000000 3.59937000e+07
9110.000000 3.58953000e+07
9130.000000 3.56329000e+07
9150.000000 3.53176000e+07
9170.000000 3.48380000e+07
9190.000000 3.42498000e+07
9210.000000 3.22416000e+07
9230.000000 2.81213000e+07
9250.000000 3.14835000e+07
9270.000000 3.29383000e+07
9290.000000 3.32462000e+07
9310.000000 3.29927000e+07
9330.000000 3.29038000e+07
9350.000000 3.26895000e+07
9370.000000 3.24702000e+07
9390.000000 3.22103000e+07
9410.000000 3.18625000e+07
9430.000000 3.16940000e+07
9450.000000 3.13841000e+07
9470.000000 3.09051000e+07
9490.000000 3.07118000e+07
9510.000000 2.98863000e+07
9530.000000 2.80226000e+07
9550.000000 2.48399000e+07
9570.000000 2.81931000e+07
9590.000000 2.92501000e+07
9610.000000 2.92733000e+07
9630.000000 2.90332000e+07
9650.000000 2.90582000e+07
9670.000000 2.88684000e+07
9690.000000 2.86310000e+07
9710.000000 2.83658000e+07
9730.000000 2.82210000e+07
9750.000000 2.80027000e+07
9770.000000 2.77931000e+07
9790.000000 2.75818000e+07
9810.000000 2.73719000e+07
9830.000000 2.71616000e+07
9850.000000 2.69598000e+07
9870.000000 2.67544000e+07
9890.000000 2.65457000e+07
9910.000000 2.63064000e+07
9930.000000 2.61550000e+07
9950.000000 2.59077000e+07
9970.000000 2.56682000e+07
9990.000000 2.53850000e+07
10025.000000 2.36641000e+07
10075.000000 2.28081000e+07
10125.000000 2.41269000e+07
10175.000000 2.38648000e+07
10225.000000 2.34374000e+07
10275.000000 2.30229000e+07
10325.000000 2.25262000e+07
10375.000000 2.22032000e+07
10425.000000 2.18074000e+07
10475.000000 2.14202000e+07
10525.000000 2.10399000e+07
10575.000000 2.06703000e+07
10625.000000 2.03090000e+07
10675.000000 1.99057000e+07
10725.000000 1.96059000e+07
10775.000000 1.92673000e+07
10825.000000 1.87129000e+07
10875.000000 1.84476000e+07
10925.000000 1.64636000e+07
10975.000000 1.72619000e+07
11025.000000 1.75154000e+07
11075.000000 1.73561000e+07
11125.000000 1.70906000e+07
11175.000000 1.68043000e+07
11225.000000 1.65189000e+07
11275.000000 1.62355000e+07
11325.000000 1.59750000e+07
11375.000000 1.57213000e+07
11425.000000 1.54631000e+07
11475.000000 1.52127000e+07
11525.000000 1.49659000e+07
11575.000000 1.47233000e+07
11625.000000 1.44837000e+07
11675.000000 1.42527000e+07
11725.000000 1.40267000e+07
11775.000000 1.37951000e+07
11825.000000 1.35854000e+07
11875.000000 1.33705000e+07
11925.000000 1.31620000e+07
11975.000000 1.28361000e+07
12025.000000 1.27540000e+07
12075.000000 1.25561000e+07
12125.000000 1.23618000e+07
12175.000000 1.21715000e+07
12225.000000 1.19847000e+07
12275.000000 1.18015000e+07
12325.000000 1.16219000e+07
12375.000000 1.14457000e+07
12425.000000 1.12730000e+07
12475.000000 1.11006000e+07
12525.000000 1.09180000e+07
12575.000000 1.07718000e+07
12625.000000 1.06124000e+07
12675.000000 1.04550000e+07
12725.000000 1.02643000e+07
12775.000000 9.89303000e+06
12825.000000 9.02242000e+06
12875.000000 9.70950000e+06
12925.000000 9.68233000e+06
12975.000000 9.50827000e+06
13025.000000 9.43275000e+06
13075.000000 9.29705000e+06
