# Kurucz ODFNEW /NOVER, alpha: 0.0 (2003)
# teff = 25000 K (value for the effective temperature for the model. Temperatures are given in K)
# logg = 3 log(cm/s2) (value for Log(G) for the model.)
# lh = 1.25  (l/Hp where l is the  mixing length of the convective element and Hp is the pressure scale height)
# meta = 0.5  (value for the Metallicity for the model.)
# vtur = 2 km/s (Microturbulence velocity)
# alpha = 0  (Alpha)
#
# column 1: WAVELENGTH (ANGSTROM), Wavelength in Angstrom
# column 2: FLUX (ERG/CM2/S/A), Flux in erg/cm2/s/A
147.200000 5.24953000e-14
151.000000 2.20641000e-13
155.200000 9.97181000e-13
158.800000 3.41944000e-12
162.000000 9.79261000e-12
166.000000 3.45627000e-11
170.300000 1.25487000e-10
173.400000 3.07861000e-10
176.800000 7.92478000e-10
180.200000 1.97147000e-09
181.700000 2.91491000e-09
186.100000 8.88979000e-09
191.000000 2.90883000e-08
193.900000 5.70777000e-08
198.400000 1.56491000e-07
201.800000 3.25856000e-07
205.000000 6.35953000e-07
210.500000 1.92122000e-06
216.200000 5.69981000e-06
219.800000 1.10207000e-05
223.000000 1.94603000e-05
226.800000 3.87508000e-05
230.000000 1.88877000e-03
234.000000 4.34351000e-03
240.000000 9.94670000e-03
246.500000 2.41040000e-02
252.400000 5.19893000e-02
256.800000 8.68212000e-02
260.000000 1.49544000e-01
264.000000 2.44045000e-01
268.500000 4.16422000e-01
273.500000 7.18081000e-01
278.500000 1.19310000e+00
284.000000 2.50384000e+00
290.000000 4.44532000e+00
296.000000 7.65232000e+00
301.000000 1.16656000e+01
308.000000 2.40567000e+01
318.000000 5.92603000e+01
328.000000 1.20858000e+02
338.000000 2.57954000e+02
348.000000 5.06873000e+02
357.000000 3.75077000e+03
366.000000 1.08039000e+04
375.000000 1.54788000e+04
385.000000 2.74443000e+04
395.000000 1.00892000e+05
405.000000 1.44980000e+05
414.000000 2.57167000e+05
422.000000 3.69867000e+05
430.000000 5.36040000e+05
441.000000 7.77165000e+05
451.000000 9.36559000e+05
460.000000 1.14899000e+06
470.000000 1.66056000e+06
480.000000 2.25465000e+06
490.000000 2.92864000e+06
500.000000 3.65428000e+06
506.000000 9.97957000e+06
512.000000 1.38626000e+08
520.000000 1.44060000e+08
530.000000 1.35108000e+08
540.000000 1.35951000e+08
550.000000 2.23136000e+08
560.000000 3.13673000e+08
570.000000 3.53748000e+08
580.000000 3.08999000e+08
590.000000 3.84078000e+08
600.000000 3.12717000e+08
610.000000 4.55325000e+08
620.000000 5.52942000e+08
630.000000 5.56276000e+08
640.000000 4.56279000e+08
650.000000 2.88677000e+08
658.000000 4.03056000e+08
665.000000 5.64151000e+08
675.000000 6.39098000e+08
685.000000 4.67515000e+08
695.000000 8.35781000e+08
705.000000 6.21345000e+08
716.000000 9.52156000e+08
726.000000 8.79361000e+08
735.000000 9.64444000e+08
745.000000 9.96354000e+08
755.000000 1.03741000e+09
765.000000 1.09828000e+09
775.000000 1.23150000e+09
785.000000 1.32975000e+09
795.000000 1.33454000e+09
805.000000 1.29211000e+09
815.000000 1.27188000e+09
825.000000 1.46170000e+09
835.000000 9.38224000e+08
845.000000 1.38572000e+09
855.000000 1.35551000e+09
865.000000 1.44786000e+09
875.000000 1.52852000e+09
885.000000 1.63977000e+09
895.000000 1.69321000e+09
905.000000 1.61133000e+09
915.000000 3.38875000e+09
925.000000 1.44624000e+10
935.000000 2.10225000e+10
945.000000 2.23551000e+10
955.000000 2.20736000e+10
965.000000 1.96277000e+10
975.000000 3.82026000e+09
985.000000 1.06702000e+10
995.000000 1.54349000e+10
1005.000000 2.00717000e+10
1015.000000 2.17175000e+10
1025.000000 1.99706000e+10
1035.000000 1.86602000e+10
1045.000000 2.59389000e+10
1055.000000 2.36854000e+10
1065.000000 1.90241000e+10
1075.000000 2.15353000e+10
1085.000000 1.99232000e+10
1095.000000 2.19598000e+10
1105.000000 2.04849000e+10
1115.000000 1.96270000e+10
1125.000000 1.34407000e+10
1135.000000 2.00372000e+10
1145.000000 1.94304000e+10
1155.000000 1.90202000e+10
1165.000000 1.80920000e+10
1175.000000 8.13558000e+09
1185.000000 1.63406000e+10
1195.000000 1.66747000e+10
1205.000000 1.28145000e+10
1215.000000 1.45098000e+10
1225.000000 1.64311000e+10
1235.000000 1.80144000e+10
1245.000000 1.66378000e+10
1255.000000 1.70604000e+10
1265.000000 1.77238000e+10
1275.000000 1.85748000e+10
1285.000000 1.86167000e+10
1295.000000 1.44209000e+10
1305.000000 1.57589000e+10
1315.000000 1.86284000e+10
1325.000000 1.75893000e+10
1335.000000 1.69268000e+10
1345.000000 1.72648000e+10
1355.000000 1.69235000e+10
1365.000000 1.59946000e+10
1375.000000 1.51630000e+10
1385.000000 1.38011000e+10
1395.000000 7.24701000e+09
1405.000000 9.02803000e+09
1415.000000 1.30397000e+10
1425.000000 1.25867000e+10
1435.000000 1.35485000e+10
1442.000000 1.37161000e+10
1447.000000 1.35550000e+10
1455.000000 1.28855000e+10
1465.000000 1.19056000e+10
1475.000000 1.25783000e+10
1485.000000 1.25263000e+10
1495.000000 1.21840000e+10
1505.000000 1.12269000e+10
1512.000000 1.02261000e+10
1517.000000 1.06388000e+10
1525.000000 1.06000000e+10
1535.000000 8.67306000e+09
1545.000000 7.64088000e+09
1555.000000 7.59278000e+09
1565.000000 8.88025000e+09
1575.000000 9.74982000e+09
1585.000000 9.93730000e+09
1595.000000 9.74408000e+09
1605.000000 9.66661000e+09
1615.000000 9.29393000e+09
1625.000000 9.36607000e+09
1635.000000 9.99891000e+09
1645.000000 1.02349000e+10
1655.000000 9.97340000e+09
1665.000000 1.00934000e+10
1672.000000 9.22572000e+09
1677.000000 1.11107000e+10
1685.000000 1.04031000e+10
1695.000000 9.76197000e+09
1705.000000 9.78814000e+09
1715.000000 8.99522000e+09
1725.000000 8.91933000e+09
1735.000000 9.31203000e+09
1745.000000 9.16911000e+09
1755.000000 9.19176000e+09
1765.000000 9.30340000e+09
1775.000000 8.59454000e+09
1785.000000 8.87262000e+09
1795.000000 8.94077000e+09
1805.000000 9.06144000e+09
1815.000000 8.15208000e+09
1825.000000 8.45118000e+09
1835.000000 8.33639000e+09
1845.000000 7.58688000e+09
1855.000000 7.93119000e+09
1865.000000 7.99800000e+09
1875.000000 8.14909000e+09
1885.000000 7.30945000e+09
1895.000000 6.86511000e+09
1905.000000 7.48647000e+09
1915.000000 7.06609000e+09
1925.000000 6.60380000e+09
1935.000000 7.19174000e+09
1945.000000 7.36783000e+09
1955.000000 6.47207000e+09
1967.000000 7.16597000e+09
1976.000000 7.48273000e+09
1984.000000 7.01613000e+09
1995.000000 6.88625000e+09
2005.000000 7.24028000e+09
2015.000000 7.19792000e+09
2025.000000 7.37570000e+09
2035.000000 6.68952000e+09
2045.000000 6.81784000e+09
2055.000000 6.22648000e+09
2065.000000 6.16226000e+09
2074.000000 6.74149000e+09
2078.000000 6.10302000e+09
2085.000000 6.65027000e+09
2095.000000 6.22986000e+09
2105.000000 6.48020000e+09
2115.000000 6.58136000e+09
2125.000000 6.60833000e+09
2135.000000 6.53277000e+09
2145.000000 6.15774000e+09
2155.000000 6.44655000e+09
2165.000000 6.39139000e+09
2175.000000 6.34080000e+09
2185.000000 6.14962000e+09
2195.000000 6.26534000e+09
2205.000000 6.26559000e+09
2215.000000 6.16523000e+09
2225.000000 6.00324000e+09
2235.000000 5.87370000e+09
2245.000000 5.92546000e+09
2255.000000 5.78101000e+09
2265.000000 5.81438000e+09
2275.000000 5.75500000e+09
2285.000000 5.70820000e+09
2295.000000 4.69196000e+09
2305.000000 5.46337000e+09
2315.000000 5.34836000e+09
2325.000000 5.32141000e+09
2335.000000 5.19716000e+09
2345.000000 5.26288000e+09
2355.000000 5.17637000e+09
2365.000000 5.12892000e+09
2375.000000 5.00146000e+09
2385.000000 4.93723000e+09
2395.000000 4.87966000e+09
2405.000000 4.83956000e+09
2415.000000 4.78871000e+09
2425.000000 4.77460000e+09
2435.000000 4.65770000e+09
2445.000000 4.66083000e+09
2455.000000 4.64237000e+09
2465.000000 4.54625000e+09
2475.000000 4.43868000e+09
2485.000000 4.14546000e+09
2495.000000 2.65083000e+09
2505.000000 3.82065000e+09
2513.000000 4.00199000e+09
2518.000000 4.15154000e+09
2525.000000 4.20182000e+09
2535.000000 4.20121000e+09
2545.000000 4.04269000e+09
2555.000000 4.08151000e+09
2565.000000 4.03503000e+09
2575.000000 4.02409000e+09
2585.000000 3.96472000e+09
2595.000000 3.93047000e+09
2605.000000 3.90607000e+09
2615.000000 3.81482000e+09
2625.000000 3.80402000e+09
2635.000000 3.78388000e+09
2645.000000 3.71629000e+09
2655.000000 3.69577000e+09
2665.000000 3.53606000e+09
2675.000000 3.52794000e+09
2685.000000 3.55141000e+09
2695.000000 3.42385000e+09
2705.000000 3.33804000e+09
2715.000000 3.34952000e+09
2725.000000 3.37120000e+09
2735.000000 3.32277000e+09
2745.000000 3.28911000e+09
2755.000000 3.26825000e+09
2765.000000 3.22647000e+09
2775.000000 3.24108000e+09
2785.000000 3.17588000e+09
2795.000000 3.06109000e+09
2805.000000 3.09891000e+09
2815.000000 3.10032000e+09
2825.000000 3.07695000e+09
2835.000000 2.96439000e+09
2845.000000 2.98785000e+09
2855.000000 2.92499000e+09
2865.000000 2.91843000e+09
2875.000000 2.88786000e+09
2885.000000 2.86077000e+09
2895.000000 2.81771000e+09
2910.000000 2.74816000e+09
2930.000000 2.73557000e+09
2950.000000 2.65514000e+09
2970.000000 2.60728000e+09
2990.000000 2.54193000e+09
3010.000000 2.43470000e+09
3030.000000 2.42101000e+09
3050.000000 2.39969000e+09
3070.000000 2.36940000e+09
3090.000000 2.26552000e+09
3110.000000 2.27430000e+09
3130.000000 2.20987000e+09
3150.000000 2.18232000e+09
3170.000000 2.12296000e+09
3190.000000 2.09298000e+09
3210.000000 2.05203000e+09
3230.000000 1.99586000e+09
3250.000000 1.97882000e+09
3270.000000 1.92182000e+09
3290.000000 1.89024000e+09
3310.000000 1.85244000e+09
3330.000000 1.80767000e+09
3350.000000 1.77557000e+09
3370.000000 1.73907000e+09
3390.000000 1.72294000e+09
3410.000000 1.69099000e+09
3430.000000 1.66342000e+09
3450.000000 1.62510000e+09
3470.000000 1.59613000e+09
3490.000000 1.56366000e+09
3510.000000 1.53458000e+09
3530.000000 1.51836000e+09
3550.000000 1.48674000e+09
3570.000000 1.45878000e+09
3590.000000 1.42056000e+09
3610.000000 1.39388000e+09
3630.000000 1.37596000e+09
3640.000000 1.36787000e+09
3650.000000 1.33230000e+09
3670.000000 1.31500000e+09
3690.000000 1.28177000e+09
3710.000000 1.24891000e+09
3730.000000 1.23396000e+09
3750.000000 1.27412000e+09
3770.000000 1.24918000e+09
3790.000000 1.25077000e+09
3810.000000 1.26799000e+09
3830.000000 1.18002000e+09
3850.000000 1.23626000e+09
3870.000000 1.18898000e+09
3890.000000 1.13088000e+09
3910.000000 1.18314000e+09
3930.000000 1.14044000e+09
3950.000000 1.12612000e+09
3970.000000 1.04462000e+09
3990.000000 1.09996000e+09
4010.000000 1.08318000e+09
4030.000000 1.05427000e+09
4050.000000 1.04455000e+09
4070.000000 1.00086000e+09
4090.000000 9.68978000e+08
4110.000000 9.24556000e+08
4130.000000 9.60128000e+08
4150.000000 9.51836000e+08
4170.000000 9.45609000e+08
4190.000000 9.32891000e+08
4210.000000 9.22433000e+08
4230.000000 9.04320000e+08
4250.000000 8.80228000e+08
4270.000000 8.59604000e+08
4290.000000 8.45426000e+08
4310.000000 8.22083000e+08
4330.000000 8.00059000e+08
4350.000000 7.58715000e+08
4370.000000 7.86565000e+08
4390.000000 7.87351000e+08
4410.000000 7.71489000e+08
4430.000000 7.67630000e+08
4450.000000 7.52698000e+08
4470.000000 7.38511000e+08
4490.000000 7.34637000e+08
4510.000000 7.21172000e+08
4530.000000 7.13423000e+08
4550.000000 7.02688000e+08
4570.000000 6.93034000e+08
4590.000000 6.80570000e+08
4610.000000 6.66417000e+08
4630.000000 6.56384000e+08
4650.000000 6.25574000e+08
4670.000000 6.36724000e+08
4690.000000 6.32007000e+08
4710.000000 6.14085000e+08
4730.000000 6.15924000e+08
4750.000000 6.05572000e+08
4770.000000 6.04942000e+08
4790.000000 5.95074000e+08
4810.000000 5.84029000e+08
4830.000000 5.74535000e+08
4850.000000 5.64009000e+08
4870.000000 5.25330000e+08
4890.000000 5.51732000e+08
4910.000000 5.43746000e+08
4930.000000 5.31500000e+08
4950.000000 5.25215000e+08
4970.000000 5.23650000e+08
4990.000000 5.15542000e+08
5010.000000 4.95900000e+08
5030.000000 4.99126000e+08
5050.000000 4.91163000e+08
5070.000000 4.87413000e+08
5090.000000 4.79707000e+08
5110.000000 4.72367000e+08
5130.000000 4.62736000e+08
5150.000000 4.57871000e+08
5170.000000 4.53236000e+08
5190.000000 4.47959000e+08
5210.000000 4.42111000e+08
5230.000000 4.35706000e+08
5250.000000 4.29208000e+08
5270.000000 4.22471000e+08
5290.000000 4.18582000e+08
5310.000000 4.12536000e+08
5330.000000 4.07854000e+08
5350.000000 4.02349000e+08
5370.000000 3.97124000e+08
5390.000000 3.91070000e+08
5410.000000 3.86176000e+08
5430.000000 3.81842000e+08
5450.000000 3.76584000e+08
5470.000000 3.71581000e+08
5490.000000 3.66616000e+08
5510.000000 3.62595000e+08
5530.000000 3.57057000e+08
5550.000000 3.53644000e+08
5570.000000 3.48547000e+08
5590.000000 3.44044000e+08
5610.000000 3.40183000e+08
5630.000000 3.35976000e+08
5650.000000 3.30946000e+08
5670.000000 3.24959000e+08
5690.000000 3.17803000e+08
5710.000000 3.15431000e+08
5730.000000 3.12028000e+08
5750.000000 3.06841000e+08
5770.000000 3.05148000e+08
5790.000000 3.01021000e+08
5810.000000 2.97300000e+08
5830.000000 2.92936000e+08
5850.000000 2.90573000e+08
5870.000000 2.82354000e+08
5890.000000 2.81862000e+08
5910.000000 2.79764000e+08
5930.000000 2.76080000e+08
5950.000000 2.72939000e+08
5970.000000 2.71843000e+08
5990.000000 2.66734000e+08
6010.000000 2.64659000e+08
6030.000000 2.60658000e+08
6050.000000 2.57898000e+08
6070.000000 2.55557000e+08
6090.000000 2.52723000e+08
6110.000000 2.49538000e+08
6130.000000 2.46839000e+08
6150.000000 2.42647000e+08
6170.000000 2.40077000e+08
6190.000000 2.38007000e+08
6210.000000 2.35626000e+08
6230.000000 2.32883000e+08
6250.000000 2.29669000e+08
6270.000000 2.27295000e+08
6290.000000 2.24938000e+08
6310.000000 2.21916000e+08
6330.000000 2.19914000e+08
6350.000000 2.16942000e+08
6370.000000 2.14969000e+08
6390.000000 2.12380000e+08
6410.000000 2.09948000e+08
6430.000000 2.07769000e+08
6450.000000 2.05287000e+08
6470.000000 2.02148000e+08
6490.000000 1.99929000e+08
6510.000000 1.98027000e+08
6530.000000 1.95703000e+08
6550.000000 1.92937000e+08
6570.000000 1.77224000e+08
6590.000000 1.88295000e+08
6610.000000 1.87278000e+08
6630.000000 1.85584000e+08
6650.000000 1.83260000e+08
6670.000000 1.80240000e+08
6690.000000 1.78356000e+08
6710.000000 1.77495000e+08
6730.000000 1.74820000e+08
6750.000000 1.73711000e+08
6770.000000 1.72004000e+08
6790.000000 1.68761000e+08
6810.000000 1.68113000e+08
6830.000000 1.66233000e+08
6850.000000 1.64686000e+08
6870.000000 1.62858000e+08
6890.000000 1.60756000e+08
6910.000000 1.58769000e+08
6930.000000 1.57901000e+08
6950.000000 1.56237000e+08
6970.000000 1.54605000e+08
6990.000000 1.52927000e+08
7010.000000 1.51266000e+08
7030.000000 1.49500000e+08
7050.000000 1.48084000e+08
7070.000000 1.44708000e+08
7090.000000 1.45152000e+08
7110.000000 1.42130000e+08
7130.000000 1.40875000e+08
7150.000000 1.40721000e+08
7170.000000 1.39197000e+08
7190.000000 1.37863000e+08
7210.000000 1.36461000e+08
7230.000000 1.33070000e+08
7250.000000 1.33232000e+08
7270.000000 1.32315000e+08
7290.000000 1.30137000e+08
7310.000000 1.29609000e+08
7330.000000 1.28229000e+08
7350.000000 1.27044000e+08
7370.000000 1.25808000e+08
7390.000000 1.24555000e+08
7410.000000 1.23308000e+08
7430.000000 1.22078000e+08
7450.000000 1.20826000e+08
7470.000000 1.18864000e+08
7490.000000 1.18216000e+08
7510.000000 1.17240000e+08
7530.000000 1.15967000e+08
7550.000000 1.15023000e+08
7570.000000 1.13877000e+08
7590.000000 1.12617000e+08
7610.000000 1.11382000e+08
7630.000000 1.10501000e+08
7650.000000 1.09448000e+08
7670.000000 1.08461000e+08
7690.000000 1.07306000e+08
7710.000000 1.06249000e+08
7730.000000 1.05145000e+08
7750.000000 1.04327000e+08
7770.000000 1.03235000e+08
7790.000000 1.02395000e+08
7810.000000 1.01378000e+08
7830.000000 1.00455000e+08
7850.000000 9.94851000e+07
7870.000000 9.83049000e+07
7890.000000 9.72504000e+07
7910.000000 9.65184000e+07
7930.000000 9.55409000e+07
7950.000000 9.48224000e+07
7970.000000 9.39082000e+07
7990.000000 9.30787000e+07
8010.000000 9.21036000e+07
8030.000000 9.12715000e+07
8050.000000 9.05453000e+07
8070.000000 8.97152000e+07
8090.000000 8.88290000e+07
8110.000000 8.73833000e+07
8130.000000 8.73073000e+07
8150.000000 8.64029000e+07
8170.000000 8.57433000e+07
8190.000000 8.44264000e+07
8210.000000 8.35741000e+07
8230.000000 8.25232000e+07
8250.000000 8.23616000e+07
8270.000000 8.07684000e+07
8290.000000 8.07629000e+07
8310.000000 8.01509000e+07
8330.000000 7.93919000e+07
8350.000000 7.84068000e+07
8370.000000 7.77530000e+07
8390.000000 7.72757000e+07
8410.000000 7.64452000e+07
8430.000000 7.58761000e+07
8450.000000 7.49053000e+07
8470.000000 7.41792000e+07
8490.000000 7.41384000e+07
8510.000000 7.23390000e+07
8530.000000 7.31030000e+07
8550.000000 7.05815000e+07
8570.000000 7.23709000e+07
8590.000000 6.99615000e+07
8610.000000 6.91947000e+07
8630.000000 7.09331000e+07
8650.000000 6.96891000e+07
8670.000000 6.56191000e+07
8690.000000 6.92236000e+07
8710.000000 6.88366000e+07
8730.000000 6.76713000e+07
8750.000000 6.30765000e+07
8770.000000 6.63403000e+07
8790.000000 6.65751000e+07
8810.000000 6.60547000e+07
8830.000000 6.53596000e+07
8850.000000 6.36216000e+07
8870.000000 5.99736000e+07
8890.000000 6.37510000e+07
8910.000000 6.32754000e+07
8930.000000 6.26993000e+07
8950.000000 6.22407000e+07
8970.000000 6.17528000e+07
8990.000000 6.08630000e+07
9010.000000 5.67739000e+07
9030.000000 5.89297000e+07
9050.000000 5.97275000e+07
9070.000000 5.88828000e+07
9090.000000 5.85738000e+07
9110.000000 5.82670000e+07
9130.000000 5.77950000e+07
9150.000000 5.73402000e+07
9170.000000 5.67633000e+07
9190.000000 5.63604000e+07
9210.000000 5.51610000e+07
9230.000000 5.09556000e+07
9250.000000 5.43635000e+07
9270.000000 5.44405000e+07
9290.000000 5.40666000e+07
9310.000000 5.34999000e+07
9330.000000 5.30025000e+07
9350.000000 5.27242000e+07
9370.000000 5.23278000e+07
9390.000000 5.19513000e+07
9410.000000 5.14711000e+07
9430.000000 5.10794000e+07
9450.000000 5.06524000e+07
9470.000000 5.01489000e+07
9490.000000 4.98415000e+07
9510.000000 4.91822000e+07
9530.000000 4.83745000e+07
9550.000000 4.48965000e+07
9570.000000 4.80779000e+07
9590.000000 4.80005000e+07
9610.000000 4.74175000e+07
9630.000000 4.69567000e+07
9650.000000 4.68795000e+07
9670.000000 4.65247000e+07
9690.000000 4.61242000e+07
9710.000000 4.51233000e+07
9730.000000 4.53279000e+07
9750.000000 4.50748000e+07
9770.000000 4.47365000e+07
9790.000000 4.43809000e+07
9810.000000 4.39653000e+07
9830.000000 4.37047000e+07
9850.000000 4.33333000e+07
9870.000000 4.29761000e+07
9890.000000 4.25482000e+07
9910.000000 4.20889000e+07
9930.000000 4.20533000e+07
9950.000000 4.17246000e+07
9970.000000 4.13603000e+07
9990.000000 4.11005000e+07
10025.000000 3.98806000e+07
10075.000000 3.86878000e+07
10125.000000 3.88652000e+07
10175.000000 3.83459000e+07
10225.000000 3.76187000e+07
10275.000000 3.69359000e+07
10325.000000 3.61620000e+07
10375.000000 3.56113000e+07
10425.000000 3.49620000e+07
10475.000000 3.43338000e+07
10525.000000 3.36934000e+07
10575.000000 3.31101000e+07
10625.000000 3.25159000e+07
10675.000000 3.19095000e+07
10725.000000 3.13795000e+07
10775.000000 3.08225000e+07
10825.000000 2.99858000e+07
10875.000000 2.97470000e+07
10925.000000 2.80146000e+07
10975.000000 2.85728000e+07
11025.000000 2.81373000e+07
11075.000000 2.77538000e+07
11125.000000 2.72724000e+07
11175.000000 2.68189000e+07
11225.000000 2.63566000e+07
11275.000000 2.59106000e+07
11325.000000 2.54203000e+07
11375.000000 2.50415000e+07
11425.000000 2.46136000e+07
11475.000000 2.42219000e+07
11525.000000 2.38332000e+07
11575.000000 2.34185000e+07
11625.000000 2.30341000e+07
11675.000000 2.26324000e+07
11725.000000 2.23135000e+07
11775.000000 2.19437000e+07
11825.000000 2.15861000e+07
11875.000000 2.12457000e+07
11925.000000 2.09077000e+07
11975.000000 2.04518000e+07
12025.000000 2.02472000e+07
12075.000000 1.99289000e+07
12125.000000 1.96063000e+07
12175.000000 1.93038000e+07
12225.000000 1.90033000e+07
12275.000000 1.87095000e+07
12325.000000 1.84117000e+07
12375.000000 1.81269000e+07
12425.000000 1.78557000e+07
12475.000000 1.75634000e+07
12525.000000 1.72614000e+07
12575.000000 1.70282000e+07
12625.000000 1.67737000e+07
12675.000000 1.65368000e+07
12725.000000 1.62887000e+07
12775.000000 1.58888000e+07
12825.000000 1.51653000e+07
12875.000000 1.55593000e+07
12925.000000 1.53366000e+07
12975.000000 1.50398000e+07
13025.000000 1.48677000e+07
13075.000000 1.46709000e+07
