# Kurucz ODFNEW /NOVER, alpha: 0.0 (2003)
# teff = 26000 K (value for the effective temperature for the model. Temperatures are given in K)
# logg = 4.5 log(cm/s2) (value for Log(G) for the model.)
# lh = 1.25  (l/Hp where l is the  mixing length of the convective element and Hp is the pressure scale height)
# meta = -2.5  (value for the Metallicity for the model.)
# vtur = 2 km/s (Microturbulence velocity)
# alpha = 0  (Alpha)
#
# column 1: WAVELENGTH (ANGSTROM), Wavelength in Angstrom
# column 2: FLUX (ERG/CM2/S/A), Flux in erg/cm2/s/A
147.200000 8.78613000e-13
151.000000 4.06255000e-12
155.200000 2.01885000e-11
158.800000 7.44632000e-11
162.000000 2.25989000e-10
166.000000 8.50772000e-10
170.300000 3.29290000e-09
173.400000 8.36678000e-09
176.800000 2.23748000e-08
180.200000 5.75709000e-08
181.700000 8.63360000e-08
186.100000 2.72475000e-07
191.000000 9.18119000e-07
193.900000 1.82797000e-06
198.400000 5.10351000e-06
201.800000 1.07376000e-05
205.000000 2.11175000e-05
210.500000 6.41907000e-05
216.200000 1.90757000e-04
219.800000 3.68003000e-04
223.000000 6.47589000e-04
226.800000 1.23943000e-03
230.000000 6.03180000e-03
234.000000 1.30379000e-02
240.000000 3.06858000e-02
246.500000 7.40101000e-02
252.400000 1.59359000e-01
256.800000 2.64405000e-01
260.000000 4.00047000e-01
264.000000 6.35017000e-01
268.500000 1.04874000e+00
273.500000 1.79404000e+00
278.500000 3.01185000e+00
284.000000 5.20563000e+00
290.000000 9.21845000e+00
296.000000 1.59113000e+01
301.000000 2.45928000e+01
308.000000 4.31993000e+01
318.000000 9.80456000e+01
328.000000 2.05506000e+02
338.000000 4.11143000e+02
348.000000 7.87933000e+02
357.000000 1.36735000e+03
366.000000 2.30710000e+03
375.000000 3.78109000e+03
385.000000 6.36316000e+03
395.000000 1.03944000e+04
405.000000 1.65366000e+04
414.000000 2.45957000e+04
422.000000 3.44312000e+04
430.000000 4.75078000e+04
441.000000 7.25444000e+04
451.000000 1.04406000e+05
460.000000 1.42643000e+05
470.000000 1.98683000e+05
480.000000 2.72311000e+05
490.000000 3.67943000e+05
500.000000 4.90155000e+05
506.000000 2.70633000e+06
512.000000 8.63487000e+06
520.000000 1.01325000e+07
530.000000 1.31006000e+07
540.000000 1.37798000e+07
550.000000 1.78501000e+07
560.000000 2.02985000e+07
570.000000 2.34340000e+07
580.000000 2.35601000e+07
590.000000 2.91210000e+07
600.000000 3.37257000e+07
610.000000 3.80020000e+07
620.000000 4.22968000e+07
630.000000 4.72198000e+07
640.000000 5.17690000e+07
650.000000 5.77952000e+07
658.000000 6.25771000e+07
665.000000 6.68065000e+07
675.000000 7.23618000e+07
685.000000 7.85044000e+07
695.000000 8.73296000e+07
705.000000 9.42837000e+07
716.000000 1.03049000e+08
726.000000 1.11201000e+08
735.000000 1.19729000e+08
745.000000 1.29046000e+08
755.000000 1.38591000e+08
765.000000 1.48258000e+08
775.000000 1.58739000e+08
785.000000 1.69399000e+08
795.000000 1.80030000e+08
805.000000 1.91334000e+08
815.000000 2.02656000e+08
825.000000 2.14810000e+08
835.000000 2.24084000e+08
845.000000 2.38972000e+08
855.000000 2.51019000e+08
865.000000 2.64729000e+08
875.000000 2.78365000e+08
885.000000 2.91975000e+08
895.000000 3.05612000e+08
905.000000 3.17078000e+08
915.000000 4.44723000e+08
925.000000 2.61550000e+09
935.000000 7.21462000e+09
945.000000 2.11659000e+10
955.000000 2.96836000e+10
965.000000 3.96154000e+10
975.000000 1.68347000e+10
985.000000 4.49175000e+10
995.000000 4.29765000e+10
1005.000000 4.46842000e+10
1015.000000 3.95955000e+10
1025.000000 1.29213000e+10
1035.000000 3.57519000e+10
1045.000000 4.16773000e+10
1055.000000 4.09181000e+10
1065.000000 3.84527000e+10
1075.000000 3.85262000e+10
1085.000000 3.55984000e+10
1095.000000 3.71977000e+10
1105.000000 3.56945000e+10
1115.000000 3.48934000e+10
1125.000000 3.31686000e+10
1135.000000 3.34757000e+10
1145.000000 3.22297000e+10
1155.000000 3.19677000e+10
1165.000000 3.12548000e+10
1175.000000 2.78435000e+10
1185.000000 2.95165000e+10
1195.000000 2.79719000e+10
1205.000000 2.45179000e+10
1215.000000 8.71654000e+09
1225.000000 2.31984000e+10
1235.000000 2.59374000e+10
1245.000000 2.54884000e+10
1255.000000 2.52273000e+10
1265.000000 2.46158000e+10
1275.000000 2.42358000e+10
1285.000000 2.36981000e+10
1295.000000 2.24365000e+10
1305.000000 2.22163000e+10
1315.000000 2.21520000e+10
1325.000000 2.14554000e+10
1335.000000 2.07386000e+10
1345.000000 2.06961000e+10
1355.000000 2.03173000e+10
1365.000000 1.98314000e+10
1375.000000 1.94296000e+10
1385.000000 1.90312000e+10
1395.000000 1.82591000e+10
1405.000000 1.79786000e+10
1415.000000 1.78349000e+10
1425.000000 1.74823000e+10
1435.000000 1.71531000e+10
1442.000000 1.69325000e+10
1447.000000 1.67530000e+10
1455.000000 1.64798000e+10
1465.000000 1.61373000e+10
1475.000000 1.58205000e+10
1485.000000 1.55062000e+10
1495.000000 1.52001000e+10
1505.000000 1.48440000e+10
1512.000000 1.46464000e+10
1517.000000 1.45190000e+10
1525.000000 1.42850000e+10
1535.000000 1.38798000e+10
1545.000000 1.35973000e+10
1555.000000 1.33030000e+10
1565.000000 1.32071000e+10
1575.000000 1.29927000e+10
1585.000000 1.27574000e+10
1595.000000 1.25276000e+10
1605.000000 1.22066000e+10
1615.000000 1.19795000e+10
1625.000000 1.18259000e+10
1635.000000 1.16094000e+10
1645.000000 1.12013000e+10
1655.000000 1.12227000e+10
1665.000000 1.10354000e+10
1672.000000 1.08772000e+10
1677.000000 1.08211000e+10
1685.000000 1.06614000e+10
1695.000000 1.04602000e+10
1705.000000 1.02650000e+10
1715.000000 1.00611000e+10
1725.000000 9.89888000e+09
1735.000000 9.74893000e+09
1745.000000 9.57578000e+09
1755.000000 9.42721000e+09
1765.000000 9.20181000e+09
1775.000000 9.08575000e+09
1785.000000 8.95491000e+09
1795.000000 8.81460000e+09
1805.000000 8.67755000e+09
1815.000000 8.51918000e+09
1825.000000 8.38422000e+09
1835.000000 8.24744000e+09
1845.000000 8.06000000e+09
1855.000000 7.84316000e+09
1865.000000 7.75462000e+09
1875.000000 7.71392000e+09
1885.000000 7.51715000e+09
1895.000000 7.33364000e+09
1905.000000 7.32214000e+09
1915.000000 7.12609000e+09
1925.000000 7.01371000e+09
1935.000000 6.95147000e+09
1945.000000 6.88774000e+09
1955.000000 6.69523000e+09
1967.000000 6.65644000e+09
1976.000000 6.59382000e+09
1984.000000 6.47146000e+09
1995.000000 6.30952000e+09
2005.000000 6.29509000e+09
2015.000000 6.21857000e+09
2025.000000 6.13608000e+09
2035.000000 6.02698000e+09
2045.000000 5.93701000e+09
2055.000000 5.78463000e+09
2065.000000 5.68165000e+09
2074.000000 5.66862000e+09
2078.000000 5.57266000e+09
2085.000000 5.56876000e+09
2095.000000 5.47950000e+09
2105.000000 5.44329000e+09
2115.000000 5.37779000e+09
2125.000000 5.30844000e+09
2135.000000 5.23040000e+09
2145.000000 5.15120000e+09
2155.000000 5.08420000e+09
2165.000000 5.01387000e+09
2175.000000 4.94294000e+09
2185.000000 4.87508000e+09
2195.000000 4.80988000e+09
2205.000000 4.74319000e+09
2215.000000 4.67734000e+09
2225.000000 4.61355000e+09
2235.000000 4.54996000e+09
2245.000000 4.49001000e+09
2255.000000 4.42701000e+09
2265.000000 4.36987000e+09
2275.000000 4.31116000e+09
2285.000000 4.25410000e+09
2295.000000 4.16725000e+09
2305.000000 4.14003000e+09
2315.000000 4.08593000e+09
2325.000000 4.03246000e+09
2335.000000 3.97864000e+09
2345.000000 3.92745000e+09
2355.000000 3.87732000e+09
2365.000000 3.82668000e+09
2375.000000 3.77710000e+09
2385.000000 3.72721000e+09
2395.000000 3.68052000e+09
2405.000000 3.63369000e+09
2415.000000 3.58699000e+09
2425.000000 3.54261000e+09
2435.000000 3.49724000e+09
2445.000000 3.45338000e+09
2455.000000 3.41055000e+09
2465.000000 3.36781000e+09
2475.000000 3.32589000e+09
2485.000000 3.28447000e+09
2495.000000 3.21063000e+09
2505.000000 3.20342000e+09
2513.000000 3.16450000e+09
2518.000000 3.15236000e+09
2525.000000 3.12569000e+09
2535.000000 3.08742000e+09
2545.000000 3.04762000e+09
2555.000000 3.01284000e+09
2565.000000 2.97668000e+09
2575.000000 2.94134000e+09
2585.000000 2.90611000e+09
2595.000000 2.87139000e+09
2605.000000 2.85705000e+09
2615.000000 2.82312000e+09
2625.000000 2.78940000e+09
2635.000000 2.75319000e+09
2645.000000 2.71959000e+09
2655.000000 2.68391000e+09
2665.000000 2.64705000e+09
2675.000000 2.61282000e+09
2685.000000 2.59929000e+09
2695.000000 2.54913000e+09
2705.000000 2.53932000e+09
2715.000000 2.51002000e+09
2725.000000 2.46018000e+09
2735.000000 2.45214000e+09
2745.000000 2.42411000e+09
2755.000000 2.39686000e+09
2765.000000 2.34856000e+09
2775.000000 2.34331000e+09
2785.000000 2.31680000e+09
2795.000000 2.28487000e+09
2805.000000 2.26367000e+09
2815.000000 2.23996000e+09
2825.000000 2.18949000e+09
2835.000000 2.17599000e+09
2845.000000 2.16626000e+09
2855.000000 2.14233000e+09
2865.000000 2.11877000e+09
2875.000000 2.09558000e+09
2885.000000 2.07270000e+09
2895.000000 2.05009000e+09
2910.000000 2.01678000e+09
2930.000000 1.97337000e+09
2950.000000 1.91592000e+09
2970.000000 1.89029000e+09
2990.000000 1.85029000e+09
3010.000000 1.81144000e+09
3030.000000 1.77382000e+09
3050.000000 1.73703000e+09
3070.000000 1.70124000e+09
3090.000000 1.66603000e+09
3110.000000 1.63236000e+09
3130.000000 1.60095000e+09
3150.000000 1.56865000e+09
3170.000000 1.53670000e+09
3190.000000 1.49228000e+09
3210.000000 1.47568000e+09
3230.000000 1.44630000e+09
3250.000000 1.41757000e+09
3270.000000 1.39162000e+09
3290.000000 1.36250000e+09
3310.000000 1.33824000e+09
3330.000000 1.31253000e+09
3350.000000 1.28496000e+09
3370.000000 1.26295000e+09
3390.000000 1.23908000e+09
3410.000000 1.21577000e+09
3430.000000 1.18748000e+09
3450.000000 1.16097000e+09
3470.000000 1.14299000e+09
3490.000000 1.12183000e+09
3510.000000 1.10370000e+09
3530.000000 1.08582000e+09
3550.000000 1.06641000e+09
3570.000000 1.05361000e+09
3590.000000 1.02723000e+09
3610.000000 1.01218000e+09
3630.000000 9.91020000e+08
3640.000000 9.89790000e+08
3650.000000 9.78917000e+08
3670.000000 9.66011000e+08
3690.000000 9.47627000e+08
3710.000000 9.14912000e+08
3730.000000 8.76560000e+08
3750.000000 8.94265000e+08
3770.000000 8.85942000e+08
3790.000000 9.33634000e+08
3810.000000 9.75711000e+08
3830.000000 8.46382000e+08
3850.000000 1.00561000e+09
3870.000000 1.02095000e+09
3890.000000 7.97769000e+08
3910.000000 1.00362000e+09
3930.000000 9.95601000e+08
3950.000000 9.71830000e+08
3970.000000 7.41417000e+08
3990.000000 9.30151000e+08
4010.000000 9.29354000e+08
4030.000000 8.69840000e+08
4050.000000 9.09181000e+08
4070.000000 8.89191000e+08
4090.000000 8.06671000e+08
4110.000000 6.99416000e+08
4130.000000 8.31760000e+08
4150.000000 8.25797000e+08
4170.000000 8.20061000e+08
4190.000000 8.08539000e+08
4210.000000 7.95009000e+08
4230.000000 7.81676000e+08
4250.000000 7.68559000e+08
4270.000000 7.55075000e+08
4290.000000 7.41480000e+08
4310.000000 7.24312000e+08
4330.000000 6.46244000e+08
4350.000000 5.87576000e+08
4370.000000 6.87021000e+08
4390.000000 6.60720000e+08
4410.000000 6.72755000e+08
4430.000000 6.59285000e+08
4450.000000 6.51774000e+08
4470.000000 6.08208000e+08
4490.000000 6.30551000e+08
4510.000000 6.21489000e+08
4530.000000 6.11681000e+08
4550.000000 6.02039000e+08
4570.000000 5.92614000e+08
4590.000000 5.83420000e+08
4610.000000 5.74380000e+08
4630.000000 5.65510000e+08
4650.000000 5.56596000e+08
4670.000000 5.48263000e+08
4690.000000 5.39555000e+08
4710.000000 5.24420000e+08
4730.000000 5.23598000e+08
4750.000000 5.15641000e+08
4770.000000 5.08015000e+08
4790.000000 5.00399000e+08
4810.000000 4.91524000e+08
4830.000000 4.80970000e+08
4850.000000 4.37981000e+08
4870.000000 3.89661000e+08
4890.000000 4.57644000e+08
4910.000000 4.55268000e+08
4930.000000 4.37662000e+08
4950.000000 4.44403000e+08
4970.000000 4.38012000e+08
4990.000000 4.31694000e+08
5010.000000 4.19744000e+08
5030.000000 4.19406000e+08
5050.000000 4.10728000e+08
5070.000000 4.07552000e+08
5090.000000 4.01782000e+08
5110.000000 3.96118000e+08
5130.000000 3.90545000e+08
5150.000000 3.85074000e+08
5170.000000 3.79719000e+08
5190.000000 3.74434000e+08
5210.000000 3.69247000e+08
5230.000000 3.64156000e+08
5250.000000 3.59145000e+08
5270.000000 3.54213000e+08
5290.000000 3.49386000e+08
5310.000000 3.44621000e+08
5330.000000 3.39945000e+08
5350.000000 3.35342000e+08
5370.000000 3.30836000e+08
5390.000000 3.26389000e+08
5410.000000 3.22011000e+08
5430.000000 3.17726000e+08
5450.000000 3.13496000e+08
5470.000000 3.09344000e+08
5490.000000 3.05270000e+08
5510.000000 3.01246000e+08
5530.000000 2.97297000e+08
5550.000000 2.93409000e+08
5570.000000 2.89594000e+08
5590.000000 2.85825000e+08
5610.000000 2.82127000e+08
5630.000000 2.78498000e+08
5650.000000 2.74913000e+08
5670.000000 2.71383000e+08
5690.000000 2.67908000e+08
5710.000000 2.64509000e+08
5730.000000 2.61152000e+08
5750.000000 2.57845000e+08
5770.000000 2.54601000e+08
5790.000000 2.51407000e+08
5810.000000 2.48251000e+08
5830.000000 2.45154000e+08
5850.000000 2.42104000e+08
5870.000000 2.30978000e+08
5890.000000 2.35689000e+08
5910.000000 2.33233000e+08
5930.000000 2.30366000e+08
5950.000000 2.27543000e+08
5970.000000 2.24764000e+08
5990.000000 2.22026000e+08
6010.000000 2.19341000e+08
6030.000000 2.16687000e+08
6050.000000 2.14073000e+08
6070.000000 2.11499000e+08
6090.000000 2.08964000e+08
6110.000000 2.06468000e+08
6130.000000 2.04010000e+08
6150.000000 2.01580000e+08
6170.000000 1.99196000e+08
6190.000000 1.96849000e+08
6210.000000 1.94528000e+08
6230.000000 1.92243000e+08
6250.000000 1.89992000e+08
6270.000000 1.87776000e+08
6290.000000 1.85593000e+08
6310.000000 1.83444000e+08
6330.000000 1.81318000e+08
6350.000000 1.79225000e+08
6370.000000 1.77173000e+08
6390.000000 1.75143000e+08
6410.000000 1.73135000e+08
6430.000000 1.71167000e+08
6450.000000 1.69219000e+08
6470.000000 1.67302000e+08
6490.000000 1.65405000e+08
6510.000000 1.63305000e+08
6530.000000 1.60663000e+08
6550.000000 1.52413000e+08
6570.000000 1.34869000e+08
6590.000000 1.54220000e+08
6610.000000 1.54108000e+08
6630.000000 1.52896000e+08
6650.000000 1.51314000e+08
6670.000000 1.47876000e+08
6690.000000 1.46294000e+08
6710.000000 1.46386000e+08
6730.000000 1.44785000e+08
6750.000000 1.43209000e+08
6770.000000 1.41657000e+08
6790.000000 1.40121000e+08
6810.000000 1.38609000e+08
6830.000000 1.37112000e+08
6850.000000 1.35638000e+08
6870.000000 1.34187000e+08
6890.000000 1.32750000e+08
6910.000000 1.31336000e+08
6930.000000 1.29943000e+08
6950.000000 1.28565000e+08
6970.000000 1.27208000e+08
6990.000000 1.25864000e+08
7010.000000 1.24541000e+08
7030.000000 1.23239000e+08
7050.000000 1.21950000e+08
7070.000000 1.18577000e+08
7090.000000 1.19423000e+08
7110.000000 1.18186000e+08
7130.000000 1.16961000e+08
7150.000000 1.15755000e+08
7170.000000 1.14538000e+08
7190.000000 1.13384000e+08
7210.000000 1.12220000e+08
7230.000000 1.11038000e+08
7250.000000 1.09946000e+08
7270.000000 1.08829000e+08
7290.000000 1.06772000e+08
7310.000000 1.06619000e+08
7330.000000 1.05561000e+08
7350.000000 1.04499000e+08
7370.000000 1.03447000e+08
7390.000000 1.02412000e+08
7410.000000 1.01393000e+08
7430.000000 1.00384000e+08
7450.000000 9.93978000e+07
7470.000000 9.84139000e+07
7490.000000 9.74391000e+07
7510.000000 9.64466000e+07
7530.000000 9.55296000e+07
7550.000000 9.45946000e+07
7570.000000 9.36681000e+07
7590.000000 9.27566000e+07
7610.000000 9.18533000e+07
7630.000000 9.09583000e+07
7650.000000 9.00777000e+07
7670.000000 8.92051000e+07
7690.000000 8.83468000e+07
7710.000000 8.74961000e+07
7730.000000 8.66593000e+07
7750.000000 8.58300000e+07
7770.000000 8.50081000e+07
7790.000000 8.41997000e+07
7810.000000 8.33490000e+07
7830.000000 8.26104000e+07
7850.000000 8.19148000e+07
7870.000000 8.11463000e+07
7890.000000 8.03239000e+07
7910.000000 7.96232000e+07
7930.000000 7.88806000e+07
7950.000000 7.81146000e+07
7970.000000 7.72130000e+07
7990.000000 7.65142000e+07
8010.000000 7.57803000e+07
8030.000000 7.50702000e+07
8050.000000 7.43837000e+07
8070.000000 7.37263000e+07
8090.000000 7.29478000e+07
8110.000000 7.23879000e+07
8130.000000 7.17643000e+07
8150.000000 7.10325000e+07
8170.000000 7.04820000e+07
8190.000000 6.97619000e+07
8210.000000 6.90424000e+07
8230.000000 6.86182000e+07
8250.000000 6.80147000e+07
8270.000000 6.70637000e+07
8290.000000 6.67515000e+07
8310.000000 6.61850000e+07
8330.000000 6.55581000e+07
8350.000000 6.46339000e+07
8370.000000 6.42931000e+07
8390.000000 6.38211000e+07
8410.000000 6.32515000e+07
8430.000000 6.26390000e+07
8450.000000 6.16358000e+07
8470.000000 6.15079000e+07
8490.000000 6.08212000e+07
8510.000000 6.03120000e+07
8530.000000 5.97499000e+07
8550.000000 5.88059000e+07
8570.000000 5.92448000e+07
8590.000000 5.70801000e+07
8610.000000 5.70694000e+07
8630.000000 5.81304000e+07
8650.000000 5.64270000e+07
8670.000000 5.36911000e+07
8690.000000 5.66221000e+07
8710.000000 5.69036000e+07
8730.000000 5.49922000e+07
8750.000000 5.03372000e+07
8770.000000 5.32868000e+07
8790.000000 5.52582000e+07
8810.000000 5.50901000e+07
8830.000000 5.42417000e+07
8850.000000 5.04999000e+07
8870.000000 4.70724000e+07
8890.000000 5.21105000e+07
8910.000000 5.28544000e+07
8930.000000 5.25943000e+07
8950.000000 5.23172000e+07
8970.000000 5.16768000e+07
8990.000000 4.98436000e+07
9010.000000 4.42394000e+07
9030.000000 4.63168000e+07
9050.000000 4.93965000e+07
9070.000000 4.91102000e+07
9090.000000 4.92317000e+07
9110.000000 4.90657000e+07
9130.000000 4.87019000e+07
9150.000000 4.82642000e+07
9170.000000 4.76283000e+07
9190.000000 4.70019000e+07
9210.000000 4.44752000e+07
9230.000000 3.92411000e+07
9250.000000 4.37532000e+07
9270.000000 4.53919000e+07
9290.000000 4.54411000e+07
9310.000000 4.49636000e+07
9330.000000 4.49441000e+07
9350.000000 4.45366000e+07
9370.000000 4.42265000e+07
9390.000000 4.38717000e+07
9410.000000 4.35152000e+07
9430.000000 4.31656000e+07
9450.000000 4.27932000e+07
9470.000000 4.20456000e+07
9490.000000 4.19020000e+07
9510.000000 4.08191000e+07
9530.000000 3.86104000e+07
9550.000000 3.43744000e+07
9570.000000 3.89268000e+07
9590.000000 3.99799000e+07
9610.000000 3.98512000e+07
9630.000000 3.95185000e+07
9650.000000 3.95377000e+07
9670.000000 3.92277000e+07
9690.000000 3.88758000e+07
9710.000000 3.84836000e+07
9730.000000 3.83148000e+07
9750.000000 3.80163000e+07
9770.000000 3.77207000e+07
9790.000000 3.74280000e+07
9810.000000 3.71378000e+07
9830.000000 3.68507000e+07
9850.000000 3.65665000e+07
9870.000000 3.62847000e+07
9890.000000 3.60056000e+07
9910.000000 3.57250000e+07
9930.000000 3.54555000e+07
9950.000000 3.51841000e+07
9970.000000 3.48282000e+07
9990.000000 3.44771000e+07
10025.000000 3.23592000e+07
10075.000000 3.12572000e+07
10125.000000 3.27139000e+07
10175.000000 3.23080000e+07
10225.000000 3.16926000e+07
10275.000000 3.11252000e+07
10325.000000 3.04131000e+07
10375.000000 2.99950000e+07
10425.000000 2.94494000e+07
10475.000000 2.89159000e+07
10525.000000 2.83946000e+07
10575.000000 2.78852000e+07
10625.000000 2.73867000e+07
10675.000000 2.68356000e+07
10725.000000 2.64232000e+07
10775.000000 2.59572000e+07
10825.000000 2.51852000e+07
10875.000000 2.49039000e+07
10925.000000 2.23316000e+07
10975.000000 2.34406000e+07
11025.000000 2.35455000e+07
11075.000000 2.33353000e+07
11125.000000 2.29680000e+07
11175.000000 2.25771000e+07
11225.000000 2.21800000e+07
11275.000000 2.18195000e+07
11325.000000 2.14525000e+07
11375.000000 2.10934000e+07
11425.000000 2.07418000e+07
11475.000000 2.03975000e+07
11525.000000 2.00601000e+07
11575.000000 1.97300000e+07
11625.000000 1.94065000e+07
11675.000000 1.90894000e+07
11725.000000 1.87790000e+07
11775.000000 1.84750000e+07
11825.000000 1.81769000e+07
11875.000000 1.78849000e+07
11925.000000 1.75986000e+07
11975.000000 1.71004000e+07
12025.000000 1.70434000e+07
12075.000000 1.67739000e+07
12125.000000 1.65098000e+07
12175.000000 1.62509000e+07
12225.000000 1.59970000e+07
12275.000000 1.57479000e+07
12325.000000 1.55039000e+07
12375.000000 1.52644000e+07
12425.000000 1.50296000e+07
12475.000000 1.47992000e+07
12525.000000 1.45370000e+07
12575.000000 1.43518000e+07
12625.000000 1.41343000e+07
12675.000000 1.39208000e+07
12725.000000 1.36844000e+07
12775.000000 1.31919000e+07
12825.000000 1.20728000e+07
12875.000000 1.29646000e+07
12925.000000 1.28936000e+07
12975.000000 1.26065000e+07
13025.000000 1.25350000e+07
13075.000000 1.23516000e+07
