# Kurucz ODFNEW /NOVER, alpha: 0.0 (2003)
# teff = 7500 K (value for the effective temperature for the model. Temperatures are given in K)
# logg = 1 log(cm/s2) (value for Log(G) for the model.)
# lh = 1.25  (l/Hp where l is the  mixing length of the convective element and Hp is the pressure scale height)
# meta = 0.2  (value for the Metallicity for the model.)
# vtur = 2 km/s (Microturbulence velocity)
# alpha = 0  (Alpha)
#
# column 1: WAVELENGTH (ANGSTROM), Wavelength in Angstrom
# column 2: FLUX (ERG/CM2/S/A), Flux in erg/cm2/s/A
395.000000 3.53827000e-23
405.000000 2.75774000e-22
414.000000 1.51425000e-21
422.000000 4.54506000e-22
430.000000 1.70463000e-21
441.000000 9.66401000e-21
451.000000 4.32644000e-20
460.000000 1.57176000e-19
470.000000 6.19770000e-19
480.000000 2.29913000e-18
490.000000 8.05959000e-18
500.000000 2.67538000e-17
506.000000 7.12330000e-17
512.000000 1.58168000e-16
520.000000 3.79502000e-16
530.000000 1.09622000e-15
540.000000 2.98167000e-15
550.000000 7.92452000e-15
560.000000 2.01507000e-14
570.000000 4.94166000e-14
580.000000 1.15807000e-13
590.000000 2.68981000e-13
600.000000 5.99146000e-13
610.000000 1.29916000e-12
620.000000 2.73717000e-12
630.000000 5.62047000e-12
640.000000 1.12587000e-11
650.000000 2.20572000e-11
658.000000 3.71514000e-11
665.000000 5.78565000e-11
675.000000 1.07398000e-10
685.000000 1.95372000e-10
695.000000 3.48780000e-10
705.000000 6.07868000e-10
716.000000 1.10949000e-09
726.000000 1.87566000e-09
735.000000 2.96781000e-09
745.000000 4.86740000e-09
755.000000 7.87264000e-09
765.000000 1.25599000e-08
775.000000 1.97684000e-08
785.000000 3.07479000e-08
795.000000 4.66596000e-08
805.000000 7.11107000e-08
815.000000 1.07065000e-07
825.000000 1.58751000e-07
835.000000 2.32816000e-07
845.000000 3.38105000e-07
855.000000 4.86047000e-07
865.000000 6.92108000e-07
875.000000 9.72103000e-07
885.000000 1.36473000e-06
895.000000 1.89234000e-06
905.000000 2.58293000e-06
915.000000 1.81326000e-03
925.000000 5.62128000e-03
935.000000 7.51326000e-03
945.000000 1.02490000e-02
955.000000 1.48478000e-02
965.000000 2.01427000e-02
975.000000 2.63054000e-02
985.000000 3.43070000e-02
995.000000 4.33456000e-02
1005.000000 6.04804000e-02
1015.000000 7.87119000e-02
1025.000000 9.80312000e-02
1035.000000 1.28051000e-01
1045.000000 1.65571000e-01
1055.000000 2.10669000e-01
1065.000000 2.59457000e-01
1075.000000 3.31212000e-01
1085.000000 4.16083000e-01
1095.000000 5.05856000e-01
1105.000000 1.69133000e+00
1115.000000 5.88810000e+00
1125.000000 8.82034000e+00
1135.000000 1.23413000e+01
1145.000000 1.56298000e+01
1155.000000 1.74012000e+01
1165.000000 2.37550000e+01
1175.000000 2.75325000e+01
1185.000000 2.93984000e+01
1195.000000 1.23962000e+01
1205.000000 1.21345000e+01
1215.000000 2.89088000e+00
1225.000000 1.46740000e+01
1235.000000 3.87394000e+01
1245.000000 9.44968000e+01
1255.000000 2.40696000e+02
1265.000000 2.28264000e+02
1275.000000 4.92016000e+02
1285.000000 8.31110000e+02
1295.000000 1.10699000e+03
1305.000000 6.88235000e+02
1315.000000 1.59624000e+03
1325.000000 2.12865000e+03
1335.000000 2.20534000e+03
1345.000000 3.36490000e+03
1355.000000 3.51302000e+03
1365.000000 3.84549000e+03
1375.000000 4.31342000e+03
1385.000000 4.97645000e+03
1395.000000 6.01036000e+03
1405.000000 6.97799000e+03
1415.000000 6.91132000e+03
1425.000000 8.46805000e+03
1435.000000 8.51198000e+03
1442.000000 1.02022000e+04
1447.000000 1.16545000e+04
1455.000000 1.41661000e+04
1465.000000 1.44143000e+04
1475.000000 1.63275000e+04
1485.000000 1.90003000e+04
1495.000000 2.30165000e+04
1505.000000 2.60065000e+04
1512.000000 2.57860000e+04
1517.000000 2.28743000e+04
1525.000000 2.34190000e+04
1535.000000 6.20681000e+04
1545.000000 2.67038000e+05
1555.000000 1.95857000e+05
1565.000000 1.25795000e+05
1575.000000 2.93714000e+05
1585.000000 3.94016000e+05
1595.000000 6.35828000e+05
1605.000000 4.47523000e+05
1615.000000 3.47751000e+05
1625.000000 2.60524000e+05
1635.000000 2.80684000e+05
1645.000000 4.29253000e+05
1655.000000 1.92338000e+05
1665.000000 2.82497000e+05
1672.000000 5.88155000e+04
1677.000000 7.34094000e+05
1685.000000 1.23890000e+06
1695.000000 1.48343000e+06
1705.000000 1.17815000e+06
1715.000000 1.85648000e+06
1725.000000 2.30396000e+06
1735.000000 3.12136000e+06
1745.000000 2.41637000e+06
1755.000000 3.60813000e+06
1765.000000 2.63885000e+06
1775.000000 3.78448000e+06
1785.000000 2.82610000e+06
1795.000000 4.94304000e+06
1805.000000 3.80797000e+06
1815.000000 4.65962000e+06
1825.000000 3.69940000e+06
1835.000000 3.19242000e+06
1845.000000 3.11065000e+06
1855.000000 3.83011000e+06
1865.000000 4.40522000e+06
1875.000000 4.03013000e+06
1885.000000 4.29368000e+06
1895.000000 4.95441000e+06
1905.000000 4.30013000e+06
1915.000000 4.48144000e+06
1925.000000 4.38986000e+06
1935.000000 2.76976000e+06
1945.000000 5.29479000e+06
1955.000000 5.48265000e+06
1967.000000 6.26502000e+06
1976.000000 6.03354000e+06
1984.000000 5.98833000e+06
1995.000000 5.82886000e+06
2005.000000 5.28177000e+06
2015.000000 4.52895000e+06
2025.000000 4.37114000e+06
2035.000000 5.42576000e+06
2045.000000 6.23951000e+06
2055.000000 5.03590000e+06
2065.000000 4.71064000e+06
2074.000000 6.69718000e+06
2078.000000 7.37915000e+06
2085.000000 6.99154000e+06
2095.000000 6.42033000e+06
2105.000000 5.95137000e+06
2115.000000 6.00075000e+06
2125.000000 6.21180000e+06
2135.000000 4.40540000e+06
2145.000000 5.76087000e+06
2155.000000 6.14137000e+06
2165.000000 4.98196000e+06
2175.000000 5.23903000e+06
2185.000000 5.53436000e+06
2195.000000 6.49171000e+06
2205.000000 5.89801000e+06
2215.000000 4.44468000e+06
2225.000000 4.20955000e+06
2235.000000 6.13660000e+06
2245.000000 5.38309000e+06
2255.000000 4.05866000e+06
2265.000000 4.01210000e+06
2275.000000 5.16410000e+06
2285.000000 5.54052000e+06
2295.000000 5.01676000e+06
2305.000000 5.28901000e+06
2315.000000 4.72048000e+06
2325.000000 4.35882000e+06
2335.000000 2.40449000e+06
2345.000000 1.68860000e+06
2355.000000 3.40332000e+06
2365.000000 1.63517000e+06
2375.000000 2.47565000e+06
2385.000000 1.21584000e+06
2395.000000 1.72890000e+06
2405.000000 1.62233000e+06
2415.000000 2.57409000e+06
2425.000000 4.94667000e+06
2435.000000 4.68864000e+06
2445.000000 5.22264000e+06
2455.000000 5.23594000e+06
2465.000000 4.80139000e+06
2475.000000 4.55332000e+06
2485.000000 4.70562000e+06
2495.000000 4.52636000e+06
2505.000000 6.25939000e+06
2513.000000 4.42292000e+06
2518.000000 5.10056000e+06
2525.000000 3.84800000e+06
2535.000000 3.80398000e+06
2545.000000 3.88390000e+06
2555.000000 4.93261000e+06
2565.000000 3.83301000e+06
2575.000000 4.59095000e+06
2585.000000 3.88663000e+06
2595.000000 3.24107000e+06
2605.000000 2.66208000e+06
2615.000000 2.48893000e+06
2625.000000 3.43487000e+06
2635.000000 4.96352000e+06
2645.000000 8.11344000e+06
2655.000000 8.39234000e+06
2665.000000 6.33238000e+06
2675.000000 7.14855000e+06
2685.000000 6.93236000e+06
2695.000000 6.62633000e+06
2705.000000 7.15974000e+06
2715.000000 5.78851000e+06
2725.000000 5.85771000e+06
2735.000000 6.21585000e+06
2745.000000 3.03802000e+06
2755.000000 3.85201000e+06
2765.000000 4.79553000e+06
2775.000000 6.00370000e+06
2785.000000 4.25528000e+06
2795.000000 1.45363000e+06
2805.000000 1.89327000e+06
2815.000000 5.45539000e+06
2825.000000 7.69402000e+06
2835.000000 7.42516000e+06
2845.000000 7.26042000e+06
2855.000000 6.34212000e+06
2865.000000 7.94011000e+06
2875.000000 7.66619000e+06
2885.000000 8.03318000e+06
2895.000000 7.49366000e+06
2910.000000 9.42124000e+06
2930.000000 8.73268000e+06
2950.000000 8.59865000e+06
2970.000000 9.55779000e+06
2990.000000 9.69541000e+06
3010.000000 1.03475000e+07
3030.000000 1.02162000e+07
3050.000000 1.01742000e+07
3070.000000 1.02044000e+07
3090.000000 1.08650000e+07
3110.000000 1.03557000e+07
3130.000000 1.02330000e+07
3150.000000 1.09528000e+07
3170.000000 1.08008000e+07
3190.000000 9.89312000e+06
3210.000000 1.06897000e+07
3230.000000 9.97712000e+06
3250.000000 1.08256000e+07
3270.000000 1.11864000e+07
3290.000000 1.12906000e+07
3310.000000 1.17240000e+07
3330.000000 1.13601000e+07
3350.000000 1.11940000e+07
3370.000000 1.09444000e+07
3390.000000 1.13323000e+07
3410.000000 1.17686000e+07
3430.000000 1.20116000e+07
3450.000000 1.19541000e+07
3470.000000 1.17056000e+07
3490.000000 1.15331000e+07
3510.000000 1.21302000e+07
3530.000000 1.22803000e+07
3550.000000 1.28188000e+07
3570.000000 1.20256000e+07
3590.000000 1.21451000e+07
3610.000000 1.22500000e+07
3630.000000 1.25170000e+07
3640.000000 1.22061000e+07
3650.000000 1.28952000e+07
3670.000000 1.27735000e+07
3690.000000 1.40390000e+07
3710.000000 1.86606000e+07
3730.000000 2.73756000e+07
3750.000000 4.12882000e+07
3770.000000 4.25318000e+07
3790.000000 5.08125000e+07
3810.000000 5.59562000e+07
3830.000000 4.50620000e+07
3850.000000 5.66702000e+07
3870.000000 5.97710000e+07
3890.000000 4.39440000e+07
3910.000000 5.52819000e+07
3930.000000 3.36534000e+07
3950.000000 5.17606000e+07
3970.000000 3.20991000e+07
3990.000000 5.62275000e+07
4010.000000 5.73829000e+07
4030.000000 5.61607000e+07
4050.000000 5.55362000e+07
4070.000000 5.45118000e+07
4090.000000 5.40656000e+07
4110.000000 4.36698000e+07
4130.000000 5.36882000e+07
4150.000000 5.49263000e+07
4170.000000 5.28018000e+07
4190.000000 5.26873000e+07
4210.000000 5.20476000e+07
4230.000000 5.09902000e+07
4250.000000 5.12206000e+07
4270.000000 4.94505000e+07
4290.000000 5.03600000e+07
4310.000000 4.72532000e+07
4330.000000 4.49309000e+07
4350.000000 3.90377000e+07
4370.000000 4.89196000e+07
4390.000000 4.75014000e+07
4410.000000 4.61224000e+07
4430.000000 4.62789000e+07
4450.000000 4.65773000e+07
4470.000000 4.63028000e+07
4490.000000 4.60893000e+07
4510.000000 4.68872000e+07
4530.000000 4.47998000e+07
4550.000000 4.37408000e+07
4570.000000 4.55036000e+07
4590.000000 4.32893000e+07
4610.000000 4.50559000e+07
4630.000000 4.33319000e+07
4650.000000 4.40053000e+07
4670.000000 4.36085000e+07
4690.000000 4.23348000e+07
4710.000000 4.08688000e+07
4730.000000 4.22583000e+07
4750.000000 4.24692000e+07
4770.000000 4.14151000e+07
4790.000000 4.11947000e+07
4810.000000 4.06493000e+07
4830.000000 4.00906000e+07
4850.000000 3.57951000e+07
4870.000000 2.90145000e+07
4890.000000 3.84369000e+07
4910.000000 3.84151000e+07
4930.000000 3.72143000e+07
4950.000000 3.79305000e+07
4970.000000 3.81520000e+07
4990.000000 3.63066000e+07
5010.000000 3.45974000e+07
5030.000000 3.55974000e+07
5050.000000 3.52289000e+07
5070.000000 3.56154000e+07
5090.000000 3.50947000e+07
5110.000000 3.48609000e+07
5130.000000 3.37923000e+07
5150.000000 3.30957000e+07
5170.000000 3.24511000e+07
5190.000000 3.21637000e+07
5210.000000 3.20727000e+07
5230.000000 3.17383000e+07
5250.000000 3.21544000e+07
5270.000000 3.02478000e+07
5290.000000 3.15690000e+07
5310.000000 3.06182000e+07
5330.000000 3.00135000e+07
5350.000000 3.08886000e+07
5370.000000 3.05505000e+07
5390.000000 2.99754000e+07
5410.000000 2.93847000e+07
5430.000000 2.92517000e+07
5450.000000 2.96272000e+07
5470.000000 2.91755000e+07
5490.000000 2.90208000e+07
5510.000000 2.85946000e+07
5530.000000 2.84091000e+07
5550.000000 2.84493000e+07
5570.000000 2.80025000e+07
5590.000000 2.77832000e+07
5610.000000 2.76980000e+07
5630.000000 2.75253000e+07
5650.000000 2.70110000e+07
5670.000000 2.66075000e+07
5690.000000 2.67454000e+07
5710.000000 2.65295000e+07
5730.000000 2.65340000e+07
5750.000000 2.61378000e+07
5770.000000 2.59705000e+07
5790.000000 2.56003000e+07
5810.000000 2.54299000e+07
5830.000000 2.51970000e+07
5850.000000 2.50118000e+07
5870.000000 2.48220000e+07
5890.000000 2.41466000e+07
5910.000000 2.43178000e+07
5930.000000 2.40887000e+07
5950.000000 2.38142000e+07
5970.000000 2.37078000e+07
5990.000000 2.33124000e+07
6010.000000 2.30491000e+07
6030.000000 2.30021000e+07
6050.000000 2.27576000e+07
6070.000000 2.26785000e+07
6090.000000 2.23642000e+07
6110.000000 2.20677000e+07
6130.000000 2.17264000e+07
6150.000000 2.11769000e+07
6170.000000 2.13536000e+07
6190.000000 2.14351000e+07
6210.000000 2.12982000e+07
6230.000000 2.08996000e+07
6250.000000 2.01507000e+07
6270.000000 2.07775000e+07
6290.000000 2.05828000e+07
6310.000000 2.00873000e+07
6330.000000 2.01128000e+07
6350.000000 1.98060000e+07
6370.000000 1.96670000e+07
6390.000000 1.96050000e+07
6410.000000 1.92802000e+07
6430.000000 1.92333000e+07
6450.000000 1.87819000e+07
6470.000000 1.90080000e+07
6490.000000 1.84563000e+07
6510.000000 1.84924000e+07
6530.000000 1.84076000e+07
6550.000000 1.69457000e+07
6570.000000 1.33464000e+07
6590.000000 1.76888000e+07
6610.000000 1.77724000e+07
6630.000000 1.77956000e+07
6650.000000 1.76632000e+07
6670.000000 1.74634000e+07
6690.000000 1.73760000e+07
6710.000000 1.72383000e+07
6730.000000 1.70728000e+07
6750.000000 1.68940000e+07
6770.000000 1.68724000e+07
6790.000000 1.66808000e+07
6810.000000 1.65911000e+07
6830.000000 1.63617000e+07
6850.000000 1.62655000e+07
6870.000000 1.61885000e+07
6890.000000 1.60668000e+07
6910.000000 1.59235000e+07
6930.000000 1.57776000e+07
6950.000000 1.56689000e+07
6970.000000 1.55194000e+07
6990.000000 1.54277000e+07
7010.000000 1.51343000e+07
7030.000000 1.51421000e+07
7050.000000 1.50434000e+07
7070.000000 1.49448000e+07
7090.000000 1.48359000e+07
7110.000000 1.43800000e+07
7130.000000 1.44795000e+07
7150.000000 1.44111000e+07
7170.000000 1.43132000e+07
7190.000000 1.41434000e+07
7210.000000 1.40607000e+07
7230.000000 1.39174000e+07
7250.000000 1.38300000e+07
7270.000000 1.37875000e+07
7290.000000 1.35999000e+07
7310.000000 1.34600000e+07
7330.000000 1.34105000e+07
7350.000000 1.33328000e+07
7370.000000 1.33042000e+07
7390.000000 1.31302000e+07
7410.000000 1.29627000e+07
7430.000000 1.28036000e+07
7450.000000 1.27689000e+07
7470.000000 1.25872000e+07
7490.000000 1.25664000e+07
7510.000000 1.24882000e+07
7530.000000 1.24551000e+07
7550.000000 1.24355000e+07
7570.000000 1.22844000e+07
7590.000000 1.22348000e+07
7610.000000 1.21524000e+07
7630.000000 1.20622000e+07
7650.000000 1.19059000e+07
7670.000000 1.17888000e+07
7690.000000 1.17543000e+07
7710.000000 1.16129000e+07
7730.000000 1.16096000e+07
7750.000000 1.15122000e+07
7770.000000 1.11628000e+07
7790.000000 1.13800000e+07
7810.000000 1.12847000e+07
7830.000000 1.11405000e+07
7850.000000 1.09994000e+07
7870.000000 1.09594000e+07
7890.000000 1.08404000e+07
7910.000000 1.07826000e+07
7930.000000 1.07271000e+07
7950.000000 1.05885000e+07
7970.000000 1.06570000e+07
7990.000000 1.04196000e+07
8010.000000 1.04740000e+07
8030.000000 1.03739000e+07
8050.000000 1.03335000e+07
8070.000000 1.02413000e+07
8090.000000 1.01706000e+07
8110.000000 1.01273000e+07
8130.000000 1.00741000e+07
8150.000000 9.99980000e+06
8170.000000 9.93002000e+06
8190.000000 9.68893000e+06
8210.000000 9.65967000e+06
8230.000000 9.59776000e+06
8250.000000 9.55516000e+06
8270.000000 9.62467000e+06
8290.000000 9.52731000e+06
8310.000000 9.41931000e+06
8330.000000 9.20312000e+06
8350.000000 9.30497000e+06
8370.000000 9.06266000e+06
8390.000000 9.09015000e+06
8410.000000 9.05762000e+06
8430.000000 9.29036000e+06
8450.000000 9.07232000e+06
8470.000000 8.83260000e+06
8490.000000 9.57136000e+06
8510.000000 8.49643000e+06
8530.000000 9.75259000e+06
8550.000000 7.74459000e+06
8570.000000 1.00870000e+07
8590.000000 9.45958000e+06
8610.000000 9.18242000e+06
8630.000000 1.03564000e+07
8650.000000 1.01243000e+07
8670.000000 7.71963000e+06
8690.000000 9.96449000e+06
8710.000000 1.03056000e+07
8730.000000 1.01126000e+07
8750.000000 8.19566000e+06
8770.000000 9.87757000e+06
8790.000000 1.00955000e+07
8810.000000 9.97786000e+06
8830.000000 9.69885000e+06
8850.000000 9.32270000e+06
8870.000000 7.93184000e+06
8890.000000 9.63082000e+06
8910.000000 9.61706000e+06
8930.000000 9.53009000e+06
8950.000000 9.56703000e+06
8970.000000 9.46682000e+06
8990.000000 9.31055000e+06
9010.000000 7.80188000e+06
9030.000000 8.61793000e+06
9050.000000 9.19348000e+06
9070.000000 8.89012000e+06
9090.000000 8.74709000e+06
9110.000000 8.92253000e+06
9130.000000 8.94223000e+06
9150.000000 8.95313000e+06
9170.000000 8.84199000e+06
9190.000000 8.69381000e+06
9210.000000 8.46024000e+06
9230.000000 6.85289000e+06
9250.000000 8.16575000e+06
9270.000000 8.25682000e+06
9290.000000 8.49762000e+06
9310.000000 8.46158000e+06
9330.000000 8.37514000e+06
9350.000000 8.34969000e+06
9370.000000 8.31151000e+06
9390.000000 8.16548000e+06
9410.000000 7.86873000e+06
9430.000000 8.03450000e+06
9450.000000 8.01951000e+06
9470.000000 7.99702000e+06
9490.000000 7.97088000e+06
9510.000000 7.87365000e+06
9530.000000 7.63780000e+06
9550.000000 6.27865000e+06
9570.000000 7.58889000e+06
9590.000000 7.67975000e+06
9610.000000 7.56787000e+06
9630.000000 7.41134000e+06
9650.000000 7.50404000e+06
9670.000000 7.36386000e+06
9690.000000 7.34272000e+06
9710.000000 7.41359000e+06
9730.000000 7.34892000e+06
9750.000000 7.23677000e+06
9770.000000 7.26519000e+06
9790.000000 7.21235000e+06
9810.000000 7.15126000e+06
9830.000000 7.09529000e+06
9850.000000 6.98923000e+06
9870.000000 6.96983000e+06
9890.000000 6.89045000e+06
9910.000000 6.88223000e+06
9930.000000 6.85033000e+06
9950.000000 6.80189000e+06
9970.000000 6.79774000e+06
9990.000000 6.74866000e+06
10025.000000 6.43660000e+06
10075.000000 6.11678000e+06
10125.000000 6.36447000e+06
10175.000000 6.32864000e+06
10225.000000 6.25789000e+06
10275.000000 6.17394000e+06
10325.000000 6.03371000e+06
10375.000000 5.96240000e+06
10425.000000 5.87588000e+06
10475.000000 5.69941000e+06
10525.000000 5.63926000e+06
10575.000000 5.58135000e+06
10625.000000 5.49957000e+06
10675.000000 5.31528000e+06
10725.000000 5.30120000e+06
10775.000000 5.23103000e+06
10825.000000 5.15677000e+06
10875.000000 5.08175000e+06
10925.000000 4.58304000e+06
10975.000000 4.86133000e+06
11025.000000 4.90009000e+06
11075.000000 4.83506000e+06
11125.000000 4.74513000e+06
11175.000000 4.68164000e+06
11225.000000 4.62328000e+06
11275.000000 4.45613000e+06
11325.000000 4.40218000e+06
11375.000000 4.39676000e+06
11425.000000 4.30496000e+06
11475.000000 4.29843000e+06
11525.000000 4.24249000e+06
11575.000000 4.17218000e+06
11625.000000 4.05580000e+06
11675.000000 3.97664000e+06
11725.000000 4.00391000e+06
11775.000000 3.86808000e+06
11825.000000 3.84756000e+06
11875.000000 3.76955000e+06
11925.000000 3.79258000e+06
11975.000000 3.69451000e+06
12025.000000 3.66880000e+06
12075.000000 3.60825000e+06
12125.000000 3.56266000e+06
12175.000000 3.52761000e+06
12225.000000 3.47210000e+06
12275.000000 3.41962000e+06
12325.000000 3.37754000e+06
12375.000000 3.33800000e+06
12425.000000 3.30338000e+06
12475.000000 3.24500000e+06
12525.000000 3.20354000e+06
12575.000000 3.13642000e+06
12625.000000 3.11328000e+06
12675.000000 3.08642000e+06
12725.000000 3.05082000e+06
12775.000000 2.99559000e+06
12825.000000 2.70773000e+06
12875.000000 2.92105000e+06
12925.000000 2.88835000e+06
12975.000000 2.85226000e+06
13025.000000 2.81974000e+06
13075.000000 2.78522000e+06
13125.000000 2.74523000e+06
13175.000000 2.69708000e+06
13225.000000 2.67824000e+06
13275.000000 2.64356000e+06
13325.000000 2.61146000e+06
13375.000000 2.57849000e+06
13425.000000 2.54364000e+06
13475.000000 2.51214000e+06
13525.000000 2.47239000e+06
13575.000000 2.44011000e+06
13625.000000 2.41817000e+06
13675.000000 2.38299000e+06
13725.000000 2.33106000e+06
13775.000000 2.32271000e+06
13825.000000 2.29668000e+06
13875.000000 2.27741000e+06
13925.000000 2.23797000e+06
13975.000000 2.21716000e+06
14025.000000 2.19180000e+06
14075.000000 2.16827000e+06
14125.000000 2.13784000e+06
14175.000000 2.11360000e+06
14225.000000 2.08667000e+06
14275.000000 2.06080000e+06
14325.000000 2.03836000e+06
14375.000000 2.01746000e+06
14425.000000 1.95172000e+06
14475.000000 1.96648000e+06
14525.000000 1.92190000e+06
14570.000000 1.92194000e+06
14620.000000 1.89383000e+06
14675.000000 1.87861000e+06
14725.000000 1.85111000e+06
14775.000000 1.82238000e+06
14825.000000 1.80754000e+06
14875.000000 1.77770000e+06
14925.000000 1.77342000e+06
14975.000000 1.74815000e+06
15025.000000 1.71351000e+06
15075.000000 1.69520000e+06
15125.000000 1.68269000e+06
15175.000000 1.66590000e+06
15225.000000 1.67334000e+06
