# Kurucz ODFNEW /NOVER, alpha: 0.0 (2003)
# teff = 30000 K (value for the effective temperature for the model. Temperatures are given in K)
# logg = 5 log(cm/s2) (value for Log(G) for the model.)
# lh = 1.25  (l/Hp where l is the  mixing length of the convective element and Hp is the pressure scale height)
# meta = 0.2  (value for the Metallicity for the model.)
# vtur = 2 km/s (Microturbulence velocity)
# alpha = 0  (Alpha)
#
# column 1: WAVELENGTH (ANGSTROM), Wavelength in Angstrom
# column 2: FLUX (ERG/CM2/S/A), Flux in erg/cm2/s/A
147.200000 1.00150000e-08
151.000000 3.05270000e-08
155.200000 9.86201000e-08
158.800000 2.57523000e-07
162.000000 5.85349000e-07
166.000000 1.56797000e-06
170.300000 4.30129000e-06
173.400000 8.69117000e-06
176.800000 1.82687000e-05
180.200000 3.74095000e-05
181.700000 5.08846000e-05
186.100000 1.22439000e-04
191.000000 3.11650000e-04
193.900000 5.30436000e-04
198.400000 1.17615000e-03
201.800000 2.09951000e-03
205.000000 3.56192000e-03
210.500000 8.53864000e-03
216.200000 2.01911000e-02
219.800000 3.40274000e-02
223.000000 5.33826000e-02
226.800000 9.09777000e-02
230.000000 9.28934000e+00
234.000000 1.99091000e+01
240.000000 3.70889000e+01
246.500000 7.20943000e+01
252.400000 1.28756000e+02
256.800000 1.86205000e+02
260.000000 2.85863000e+02
264.000000 4.10205000e+02
268.500000 6.19084000e+02
273.500000 9.32125000e+02
278.500000 1.35557000e+03
284.000000 2.42201000e+03
290.000000 3.72384000e+03
296.000000 5.56950000e+03
301.000000 7.68337000e+03
308.000000 1.30484000e+04
318.000000 2.65086000e+04
328.000000 4.46820000e+04
338.000000 7.97356000e+04
348.000000 1.32442000e+05
357.000000 4.35703000e+05
366.000000 8.47470000e+05
375.000000 1.12902000e+06
385.000000 1.71541000e+06
395.000000 3.17754000e+06
405.000000 4.20724000e+06
414.000000 5.85549000e+06
422.000000 7.15533000e+06
430.000000 9.27643000e+06
441.000000 1.23506000e+07
451.000000 1.51274000e+07
460.000000 1.79694000e+07
470.000000 2.30762000e+07
480.000000 2.87011000e+07
490.000000 3.53225000e+07
500.000000 4.27317000e+07
506.000000 1.18322000e+08
512.000000 8.50409000e+08
520.000000 8.37401000e+08
530.000000 8.50934000e+08
540.000000 8.05421000e+08
550.000000 1.07680000e+09
560.000000 1.23855000e+09
570.000000 1.32557000e+09
580.000000 1.22683000e+09
590.000000 1.42153000e+09
600.000000 1.37307000e+09
610.000000 1.56260000e+09
620.000000 1.72145000e+09
630.000000 1.72352000e+09
640.000000 1.61195000e+09
650.000000 1.67812000e+09
658.000000 1.72553000e+09
665.000000 1.88984000e+09
675.000000 1.93977000e+09
685.000000 1.77452000e+09
695.000000 2.32811000e+09
705.000000 2.17416000e+09
716.000000 2.51858000e+09
726.000000 2.49792000e+09
735.000000 2.51934000e+09
745.000000 2.72360000e+09
755.000000 2.77175000e+09
765.000000 2.88309000e+09
775.000000 2.98555000e+09
785.000000 3.12590000e+09
795.000000 3.13907000e+09
805.000000 3.13580000e+09
815.000000 3.13867000e+09
825.000000 3.33681000e+09
835.000000 2.85719000e+09
845.000000 3.26962000e+09
855.000000 3.25429000e+09
865.000000 3.39534000e+09
875.000000 3.50481000e+09
885.000000 3.66852000e+09
895.000000 3.74752000e+09
905.000000 3.66313000e+09
915.000000 3.87981000e+09
925.000000 1.34524000e+10
935.000000 2.75205000e+10
945.000000 5.24707000e+10
955.000000 6.47982000e+10
965.000000 8.21242000e+10
975.000000 1.92521000e+10
985.000000 7.12009000e+10
995.000000 6.42935000e+10
1005.000000 7.15097000e+10
1015.000000 7.24771000e+10
1025.000000 3.68832000e+10
1035.000000 6.28595000e+10
1045.000000 8.49519000e+10
1055.000000 7.88339000e+10
1065.000000 6.30050000e+10
1075.000000 7.00207000e+10
1085.000000 6.28061000e+10
1095.000000 6.92426000e+10
1105.000000 6.43204000e+10
1115.000000 6.30142000e+10
1125.000000 4.87453000e+10
1135.000000 6.10470000e+10
1145.000000 5.56894000e+10
1155.000000 5.53929000e+10
1165.000000 5.36799000e+10
1175.000000 3.21821000e+10
1185.000000 4.91709000e+10
1195.000000 4.68345000e+10
1205.000000 3.93042000e+10
1215.000000 2.43931000e+10
1225.000000 4.14456000e+10
1235.000000 4.69200000e+10
1245.000000 4.51072000e+10
1255.000000 4.46471000e+10
1265.000000 4.57709000e+10
1275.000000 4.68819000e+10
1285.000000 4.66501000e+10
1295.000000 3.82362000e+10
1305.000000 3.99464000e+10
1315.000000 4.51559000e+10
1325.000000 4.22173000e+10
1335.000000 4.10270000e+10
1345.000000 4.04317000e+10
1355.000000 4.01511000e+10
1365.000000 3.72842000e+10
1375.000000 3.60046000e+10
1385.000000 3.46499000e+10
1395.000000 2.52285000e+10
1405.000000 2.69471000e+10
1415.000000 3.12150000e+10
1425.000000 2.90623000e+10
1435.000000 3.05906000e+10
1442.000000 3.10426000e+10
1447.000000 3.05891000e+10
1455.000000 2.92856000e+10
1465.000000 2.73864000e+10
1475.000000 2.77591000e+10
1485.000000 2.74275000e+10
1495.000000 2.66775000e+10
1505.000000 2.43233000e+10
1512.000000 2.23964000e+10
1517.000000 2.28759000e+10
1525.000000 2.30367000e+10
1535.000000 1.92888000e+10
1545.000000 1.78720000e+10
1555.000000 1.74855000e+10
1565.000000 1.92562000e+10
1575.000000 2.03929000e+10
1585.000000 2.04438000e+10
1595.000000 2.02742000e+10
1605.000000 2.00443000e+10
1615.000000 1.91035000e+10
1625.000000 1.92429000e+10
1635.000000 1.99271000e+10
1645.000000 1.98415000e+10
1655.000000 1.98156000e+10
1665.000000 1.97590000e+10
1672.000000 1.85644000e+10
1677.000000 2.09910000e+10
1685.000000 1.99376000e+10
1695.000000 1.89360000e+10
1705.000000 1.84411000e+10
1715.000000 1.75734000e+10
1725.000000 1.68461000e+10
1735.000000 1.75022000e+10
1745.000000 1.72564000e+10
1755.000000 1.71508000e+10
1765.000000 1.68845000e+10
1775.000000 1.59008000e+10
1785.000000 1.61890000e+10
1795.000000 1.62570000e+10
1805.000000 1.62751000e+10
1815.000000 1.49904000e+10
1825.000000 1.52247000e+10
1835.000000 1.48590000e+10
1845.000000 1.35374000e+10
1855.000000 1.38637000e+10
1865.000000 1.40208000e+10
1875.000000 1.41278000e+10
1885.000000 1.27717000e+10
1895.000000 1.19932000e+10
1905.000000 1.27593000e+10
1915.000000 1.21333000e+10
1925.000000 1.13508000e+10
1935.000000 1.21413000e+10
1945.000000 1.24799000e+10
1955.000000 1.11106000e+10
1967.000000 1.19082000e+10
1976.000000 1.24764000e+10
1984.000000 1.15184000e+10
1995.000000 1.13435000e+10
2005.000000 1.16167000e+10
2015.000000 1.15416000e+10
2025.000000 1.17200000e+10
2035.000000 1.07927000e+10
2045.000000 1.08532000e+10
2055.000000 9.90035000e+09
2065.000000 9.80381000e+09
2074.000000 1.01559000e+10
2078.000000 9.45382000e+09
2085.000000 9.76742000e+09
2095.000000 9.45981000e+09
2105.000000 1.00682000e+10
2115.000000 1.01105000e+10
2125.000000 1.01290000e+10
2135.000000 9.91366000e+09
2145.000000 9.50784000e+09
2155.000000 9.74754000e+09
2165.000000 9.56205000e+09
2175.000000 9.48309000e+09
2185.000000 9.22841000e+09
2195.000000 9.30324000e+09
2205.000000 9.21285000e+09
2215.000000 9.01544000e+09
2225.000000 8.84403000e+09
2235.000000 8.66326000e+09
2245.000000 8.66025000e+09
2255.000000 8.39395000e+09
2265.000000 8.43161000e+09
2275.000000 8.30670000e+09
2285.000000 8.18004000e+09
2295.000000 7.39150000e+09
2305.000000 7.86001000e+09
2315.000000 7.71845000e+09
2325.000000 7.64244000e+09
2335.000000 7.48246000e+09
2345.000000 7.50236000e+09
2355.000000 7.38851000e+09
2365.000000 7.30056000e+09
2375.000000 7.11299000e+09
2385.000000 6.99849000e+09
2395.000000 6.92441000e+09
2405.000000 6.84480000e+09
2415.000000 6.75270000e+09
2425.000000 6.70674000e+09
2435.000000 6.52723000e+09
2445.000000 6.49600000e+09
2455.000000 6.44694000e+09
2465.000000 6.35940000e+09
2475.000000 6.25153000e+09
2485.000000 6.11774000e+09
2495.000000 5.10649000e+09
2505.000000 5.88428000e+09
2513.000000 5.61619000e+09
2518.000000 5.77573000e+09
2525.000000 5.82435000e+09
2535.000000 5.77368000e+09
2545.000000 5.57967000e+09
2555.000000 5.57099000e+09
2565.000000 5.49918000e+09
2575.000000 5.45916000e+09
2585.000000 5.40156000e+09
2595.000000 5.33573000e+09
2605.000000 5.27997000e+09
2615.000000 5.19641000e+09
2625.000000 5.15318000e+09
2635.000000 5.09445000e+09
2645.000000 5.00199000e+09
2655.000000 4.96080000e+09
2665.000000 4.78169000e+09
2675.000000 4.75638000e+09
2685.000000 4.75760000e+09
2695.000000 4.58023000e+09
2705.000000 4.49623000e+09
2715.000000 4.48750000e+09
2725.000000 4.46746000e+09
2735.000000 4.40967000e+09
2745.000000 4.35065000e+09
2755.000000 4.32081000e+09
2765.000000 4.24103000e+09
2775.000000 4.26849000e+09
2785.000000 4.19320000e+09
2795.000000 4.03285000e+09
2805.000000 4.05510000e+09
2815.000000 4.06632000e+09
2825.000000 3.98632000e+09
2835.000000 3.85709000e+09
2845.000000 3.91064000e+09
2855.000000 3.83610000e+09
2865.000000 3.80836000e+09
2875.000000 3.76359000e+09
2885.000000 3.71442000e+09
2895.000000 3.66462000e+09
2910.000000 3.57653000e+09
2930.000000 3.53248000e+09
2950.000000 3.41271000e+09
2970.000000 3.36199000e+09
2990.000000 3.27106000e+09
3010.000000 3.15514000e+09
3030.000000 3.11982000e+09
3050.000000 3.06847000e+09
3070.000000 3.01986000e+09
3090.000000 2.89334000e+09
3110.000000 2.88071000e+09
3130.000000 2.79933000e+09
3150.000000 2.75053000e+09
3170.000000 2.67710000e+09
3190.000000 2.61646000e+09
3210.000000 2.57822000e+09
3230.000000 2.51288000e+09
3250.000000 2.47409000e+09
3270.000000 2.41175000e+09
3290.000000 2.36317000e+09
3310.000000 2.31644000e+09
3330.000000 2.26070000e+09
3350.000000 2.21771000e+09
3370.000000 2.16984000e+09
3390.000000 2.13680000e+09
3410.000000 2.09289000e+09
3430.000000 2.04797000e+09
3450.000000 1.99837000e+09
3470.000000 1.96044000e+09
3490.000000 1.91997000e+09
3510.000000 1.88507000e+09
3530.000000 1.85512000e+09
3550.000000 1.81757000e+09
3570.000000 1.79147000e+09
3590.000000 1.73418000e+09
3610.000000 1.71021000e+09
3630.000000 1.67578000e+09
3640.000000 1.67466000e+09
3650.000000 1.63533000e+09
3670.000000 1.61481000e+09
3690.000000 1.58642000e+09
3710.000000 1.52609000e+09
3730.000000 1.48570000e+09
3750.000000 1.46054000e+09
3770.000000 1.40891000e+09
3790.000000 1.44708000e+09
3810.000000 1.49191000e+09
3830.000000 1.31557000e+09
3850.000000 1.51360000e+09
3870.000000 1.50987000e+09
3890.000000 1.22855000e+09
3910.000000 1.51080000e+09
3930.000000 1.48176000e+09
3950.000000 1.44139000e+09
3970.000000 1.13749000e+09
3990.000000 1.39159000e+09
4010.000000 1.39808000e+09
4030.000000 1.31122000e+09
4050.000000 1.35625000e+09
4070.000000 1.28455000e+09
4090.000000 1.17554000e+09
4110.000000 1.05032000e+09
4130.000000 1.22793000e+09
4150.000000 1.22362000e+09
4170.000000 1.22143000e+09
4190.000000 1.20368000e+09
4210.000000 1.19178000e+09
4230.000000 1.16624000e+09
4250.000000 1.12905000e+09
4270.000000 1.09856000e+09
4290.000000 1.08267000e+09
4310.000000 1.04369000e+09
4330.000000 9.43386000e+08
4350.000000 8.68414000e+08
4370.000000 9.91078000e+08
4390.000000 9.80387000e+08
4410.000000 9.82285000e+08
4430.000000 9.76852000e+08
4450.000000 9.57742000e+08
4470.000000 9.02564000e+08
4490.000000 9.27542000e+08
4510.000000 9.19760000e+08
4530.000000 9.06332000e+08
4550.000000 8.91722000e+08
4570.000000 8.77242000e+08
4590.000000 8.60941000e+08
4610.000000 8.39607000e+08
4630.000000 8.24426000e+08
4650.000000 7.94037000e+08
4670.000000 8.02158000e+08
4690.000000 7.93156000e+08
4710.000000 7.62490000e+08
4730.000000 7.69324000e+08
4750.000000 7.56464000e+08
4770.000000 7.54124000e+08
4790.000000 7.40369000e+08
4810.000000 7.23169000e+08
4830.000000 7.04806000e+08
4850.000000 6.45657000e+08
4870.000000 5.78479000e+08
4890.000000 6.72886000e+08
4910.000000 6.69572000e+08
4930.000000 6.43860000e+08
4950.000000 6.49646000e+08
4970.000000 6.46487000e+08
4990.000000 6.35778000e+08
5010.000000 6.08438000e+08
5030.000000 6.15075000e+08
5050.000000 6.02132000e+08
5070.000000 5.99662000e+08
5090.000000 5.89201000e+08
5110.000000 5.79577000e+08
5130.000000 5.67580000e+08
5150.000000 5.60467000e+08
5170.000000 5.55139000e+08
5190.000000 5.48337000e+08
5210.000000 5.39999000e+08
5230.000000 5.32627000e+08
5250.000000 5.24913000e+08
5270.000000 5.16460000e+08
5290.000000 5.10462000e+08
5310.000000 5.03017000e+08
5330.000000 4.96225000e+08
5350.000000 4.88653000e+08
5370.000000 4.82629000e+08
5390.000000 4.75488000e+08
5410.000000 4.68928000e+08
5430.000000 4.62848000e+08
5450.000000 4.56121000e+08
5470.000000 4.49909000e+08
5490.000000 4.43762000e+08
5510.000000 4.38486000e+08
5530.000000 4.31649000e+08
5550.000000 4.26832000e+08
5570.000000 4.20894000e+08
5590.000000 4.15380000e+08
5610.000000 4.09754000e+08
5630.000000 4.04566000e+08
5650.000000 3.98037000e+08
5670.000000 3.91085000e+08
5690.000000 3.84001000e+08
5710.000000 3.81708000e+08
5730.000000 3.77557000e+08
5750.000000 3.71323000e+08
5770.000000 3.68493000e+08
5790.000000 3.63311000e+08
5810.000000 3.58693000e+08
5830.000000 3.53111000e+08
5850.000000 3.49214000e+08
5870.000000 3.33325000e+08
5890.000000 3.36929000e+08
5910.000000 3.35019000e+08
5930.000000 3.30546000e+08
5950.000000 3.26252000e+08
5970.000000 3.24081000e+08
5990.000000 3.18508000e+08
6010.000000 3.15567000e+08
6030.000000 3.11001000e+08
6050.000000 3.07477000e+08
6070.000000 3.04186000e+08
6090.000000 3.00475000e+08
6110.000000 2.96704000e+08
6130.000000 2.93288000e+08
6150.000000 2.88286000e+08
6170.000000 2.85301000e+08
6190.000000 2.82428000e+08
6210.000000 2.79293000e+08
6230.000000 2.76018000e+08
6250.000000 2.72084000e+08
6270.000000 2.69096000e+08
6290.000000 2.66121000e+08
6310.000000 2.62705000e+08
6330.000000 2.59863000e+08
6350.000000 2.56267000e+08
6370.000000 2.53769000e+08
6390.000000 2.50633000e+08
6410.000000 2.47732000e+08
6430.000000 2.44964000e+08
6450.000000 2.42007000e+08
6470.000000 2.38182000e+08
6490.000000 2.35706000e+08
6510.000000 2.32900000e+08
6530.000000 2.28816000e+08
6550.000000 2.16998000e+08
6570.000000 1.91634000e+08
6590.000000 2.18336000e+08
6610.000000 2.19336000e+08
6630.000000 2.17757000e+08
6650.000000 2.15317000e+08
6670.000000 2.10454000e+08
6690.000000 2.08246000e+08
6710.000000 2.08320000e+08
6730.000000 2.05470000e+08
6750.000000 2.03800000e+08
6770.000000 2.01586000e+08
6790.000000 1.97802000e+08
6810.000000 1.96821000e+08
6830.000000 1.94596000e+08
6850.000000 1.92714000e+08
6870.000000 1.90564000e+08
6890.000000 1.88182000e+08
6910.000000 1.85855000e+08
6930.000000 1.84423000e+08
6950.000000 1.82443000e+08
6970.000000 1.80467000e+08
6990.000000 1.78480000e+08
7010.000000 1.76520000e+08
7030.000000 1.74541000e+08
7050.000000 1.72703000e+08
7070.000000 1.68004000e+08
7090.000000 1.69044000e+08
7110.000000 1.66604000e+08
7130.000000 1.64900000e+08
7150.000000 1.63669000e+08
7170.000000 1.62024000e+08
7190.000000 1.60352000e+08
7210.000000 1.58659000e+08
7230.000000 1.54885000e+08
7250.000000 1.55028000e+08
7270.000000 1.53713000e+08
7290.000000 1.50829000e+08
7310.000000 1.50498000e+08
7330.000000 1.48907000e+08
7350.000000 1.47421000e+08
7370.000000 1.45929000e+08
7390.000000 1.44429000e+08
7410.000000 1.42951000e+08
7430.000000 1.41459000e+08
7450.000000 1.40028000e+08
7470.000000 1.37956000e+08
7490.000000 1.37086000e+08
7510.000000 1.35756000e+08
7530.000000 1.34312000e+08
7550.000000 1.33105000e+08
7570.000000 1.31772000e+08
7590.000000 1.30431000e+08
7610.000000 1.28907000e+08
7630.000000 1.27811000e+08
7650.000000 1.26558000e+08
7670.000000 1.25323000e+08
7690.000000 1.24060000e+08
7710.000000 1.22809000e+08
7730.000000 1.21550000e+08
7750.000000 1.20459000e+08
7770.000000 1.19029000e+08
7790.000000 1.18127000e+08
7810.000000 1.16923000e+08
7830.000000 1.15835000e+08
7850.000000 1.14744000e+08
7870.000000 1.13426000e+08
7890.000000 1.12156000e+08
7910.000000 1.11342000e+08
7930.000000 1.10236000e+08
7950.000000 1.09247000e+08
7970.000000 1.08190000e+08
7990.000000 1.07159000e+08
8010.000000 1.06119000e+08
8030.000000 1.05048000e+08
8050.000000 1.04102000e+08
8070.000000 1.03124000e+08
8090.000000 1.02034000e+08
8110.000000 1.00500000e+08
8130.000000 1.00246000e+08
8150.000000 9.92720000e+07
8170.000000 9.84423000e+07
8190.000000 9.69961000e+07
8210.000000 9.60825000e+07
8230.000000 9.50154000e+07
8250.000000 9.46162000e+07
8270.000000 9.29032000e+07
8290.000000 9.28063000e+07
8310.000000 9.20710000e+07
8330.000000 9.12059000e+07
8350.000000 9.00077000e+07
8370.000000 8.93791000e+07
8390.000000 8.87768000e+07
8410.000000 8.79023000e+07
8430.000000 8.71465000e+07
8450.000000 8.57478000e+07
8470.000000 8.55901000e+07
8490.000000 8.46333000e+07
8510.000000 8.38979000e+07
8530.000000 8.30855000e+07
8550.000000 8.22901000e+07
8570.000000 8.18860000e+07
8590.000000 7.98816000e+07
8610.000000 7.98869000e+07
8630.000000 8.00280000e+07
8650.000000 7.82586000e+07
8670.000000 7.63744000e+07
8690.000000 7.78292000e+07
8710.000000 7.77453000e+07
8730.000000 7.56890000e+07
8750.000000 7.18892000e+07
8770.000000 7.36483000e+07
8790.000000 7.52687000e+07
8810.000000 7.50876000e+07
8830.000000 7.37959000e+07
8850.000000 6.97158000e+07
8870.000000 6.64665000e+07
8890.000000 7.11157000e+07
8910.000000 7.19737000e+07
8930.000000 7.16658000e+07
8950.000000 7.12330000e+07
8970.000000 7.02883000e+07
8990.000000 6.78550000e+07
9010.000000 6.16512000e+07
9030.000000 6.36007000e+07
9050.000000 6.71193000e+07
9070.000000 6.68373000e+07
9090.000000 6.70405000e+07
9110.000000 6.68100000e+07
9130.000000 6.62871000e+07
9150.000000 6.56737000e+07
9170.000000 6.47962000e+07
9190.000000 6.37918000e+07
9210.000000 6.04728000e+07
9230.000000 5.42368000e+07
9250.000000 5.92816000e+07
9270.000000 6.13935000e+07
9290.000000 6.16925000e+07
9310.000000 6.11365000e+07
9330.000000 6.08228000e+07
9350.000000 6.05068000e+07
9370.000000 6.00986000e+07
9390.000000 5.96122000e+07
9410.000000 5.90697000e+07
9430.000000 5.85991000e+07
9450.000000 5.80096000e+07
9470.000000 5.71348000e+07
9490.000000 5.67687000e+07
9510.000000 5.52889000e+07
9530.000000 5.23069000e+07
9550.000000 4.71064000e+07
9570.000000 5.25698000e+07
9590.000000 5.41163000e+07
9610.000000 5.39810000e+07
9630.000000 5.35052000e+07
9650.000000 5.36113000e+07
9670.000000 5.32206000e+07
9690.000000 5.27523000e+07
9710.000000 5.20358000e+07
9730.000000 5.19415000e+07
9750.000000 5.15463000e+07
9770.000000 5.11579000e+07
9790.000000 5.07368000e+07
9810.000000 5.02835000e+07
9830.000000 4.99505000e+07
9850.000000 4.95304000e+07
9870.000000 4.91094000e+07
9890.000000 4.86452000e+07
9910.000000 4.80003000e+07
9930.000000 4.80058000e+07
9950.000000 4.75771000e+07
9970.000000 4.70756000e+07
9990.000000 4.66080000e+07
10025.000000 4.36404000e+07
10075.000000 4.21468000e+07
10125.000000 4.41313000e+07
10175.000000 4.36804000e+07
10225.000000 4.28507000e+07
10275.000000 4.20636000e+07
10325.000000 4.10882000e+07
10375.000000 4.05181000e+07
10425.000000 3.97699000e+07
10475.000000 3.90341000e+07
10525.000000 3.83070000e+07
10575.000000 3.76188000e+07
10625.000000 3.69352000e+07
10675.000000 3.61933000e+07
10725.000000 3.56143000e+07
10775.000000 3.49698000e+07
10825.000000 3.39498000e+07
10875.000000 3.34791000e+07
10925.000000 2.99712000e+07
10975.000000 3.13924000e+07
11025.000000 3.16910000e+07
11075.000000 3.13717000e+07
11125.000000 3.08773000e+07
11175.000000 3.03512000e+07
11225.000000 2.98141000e+07
11275.000000 2.93010000e+07
11325.000000 2.87668000e+07
11375.000000 2.83156000e+07
11425.000000 2.78195000e+07
11475.000000 2.73724000e+07
11525.000000 2.69171000e+07
11575.000000 2.64429000e+07
11625.000000 2.60152000e+07
11675.000000 2.55610000e+07
11725.000000 2.51714000e+07
11775.000000 2.47513000e+07
11825.000000 2.43471000e+07
11875.000000 2.39539000e+07
11925.000000 2.35635000e+07
11975.000000 2.28624000e+07
12025.000000 2.28071000e+07
12075.000000 2.24430000e+07
12125.000000 2.20817000e+07
12175.000000 2.17307000e+07
12225.000000 2.13856000e+07
12275.000000 2.10493000e+07
12325.000000 2.07141000e+07
12375.000000 2.03899000e+07
12425.000000 2.00746000e+07
12475.000000 1.97470000e+07
12525.000000 1.93953000e+07
12575.000000 1.91416000e+07
12625.000000 1.88492000e+07
12675.000000 1.85685000e+07
12725.000000 1.82332000e+07
12775.000000 1.75407000e+07
12825.000000 1.60061000e+07
12875.000000 1.72366000e+07
12925.000000 1.71616000e+07
12975.000000 1.67886000e+07
13025.000000 1.66828000e+07
13075.000000 1.64482000e+07
