# Kurucz ODFNEW /NOVER, alpha: 0.0 (2003)
# teff = 23000 K (value for the effective temperature for the model. Temperatures are given in K)
# logg = 5 log(cm/s2) (value for Log(G) for the model.)
# lh = 1.25  (l/Hp where l is the  mixing length of the convective element and Hp is the pressure scale height)
# meta = 0.5  (value for the Metallicity for the model.)
# vtur = 2 km/s (Microturbulence velocity)
# alpha = 0  (Alpha)
#
# column 1: WAVELENGTH (ANGSTROM), Wavelength in Angstrom
# column 2: FLUX (ERG/CM2/S/A), Flux in erg/cm2/s/A
147.200000 4.97412000e-15
151.000000 2.16808000e-14
155.200000 1.01673000e-13
158.800000 3.58945000e-13
162.000000 1.05323000e-12
166.000000 3.82239000e-12
170.300000 1.42562000e-11
173.400000 3.56462000e-11
176.800000 9.35838000e-11
180.200000 2.37231000e-10
181.700000 3.53532000e-10
186.100000 1.10289000e-09
191.000000 3.69459000e-09
193.900000 7.34527000e-09
198.400000 2.05570000e-08
201.800000 4.34703000e-08
205.000000 8.60404000e-08
210.500000 2.65750000e-07
216.200000 8.07178000e-07
219.800000 1.58312000e-06
223.000000 2.83117000e-06
226.800000 5.53359000e-06
230.000000 9.75437000e-05
234.000000 2.25518000e-04
240.000000 5.63878000e-04
246.500000 1.44015000e-03
252.400000 3.27175000e-03
256.800000 5.70605000e-03
260.000000 9.02646000e-03
264.000000 1.47933000e-02
268.500000 2.53868000e-02
273.500000 4.50843000e-02
278.500000 7.92877000e-02
284.000000 1.48224000e-01
290.000000 2.74193000e-01
296.000000 4.95721000e-01
301.000000 7.94657000e-01
308.000000 1.53370000e+00
318.000000 3.72989000e+00
328.000000 8.18598000e+00
338.000000 1.79824000e+01
348.000000 3.67322000e+01
357.000000 8.73298000e+01
366.000000 1.60109000e+02
375.000000 2.65684000e+02
385.000000 4.66410000e+02
395.000000 8.10635000e+02
405.000000 1.32839000e+03
414.000000 2.06138000e+03
422.000000 2.95043000e+03
430.000000 4.26485000e+03
441.000000 6.77385000e+03
451.000000 1.00427000e+04
460.000000 1.40027000e+04
470.000000 2.03509000e+04
480.000000 2.87992000e+04
490.000000 4.05208000e+04
500.000000 5.58328000e+04
506.000000 2.67308000e+05
512.000000 2.99192000e+06
520.000000 3.55803000e+06
530.000000 4.49567000e+06
540.000000 5.02810000e+06
550.000000 7.18887000e+06
560.000000 8.34475000e+06
570.000000 1.03666000e+07
580.000000 1.03315000e+07
590.000000 1.35822000e+07
600.000000 1.55160000e+07
610.000000 1.84588000e+07
620.000000 1.99028000e+07
630.000000 2.11667000e+07
640.000000 1.92770000e+07
650.000000 1.41811000e+07
658.000000 2.23316000e+07
665.000000 2.88290000e+07
675.000000 3.34730000e+07
685.000000 3.57866000e+07
695.000000 4.63486000e+07
705.000000 4.90626000e+07
716.000000 5.56846000e+07
726.000000 5.94432000e+07
735.000000 6.27182000e+07
745.000000 7.14803000e+07
755.000000 7.76359000e+07
765.000000 8.46961000e+07
775.000000 9.19267000e+07
785.000000 9.91733000e+07
795.000000 1.03662000e+08
805.000000 1.09305000e+08
815.000000 1.15130000e+08
825.000000 1.25701000e+08
835.000000 1.19612000e+08
845.000000 1.34003000e+08
855.000000 1.39746000e+08
865.000000 1.50405000e+08
875.000000 1.61128000e+08
885.000000 1.75362000e+08
895.000000 1.84869000e+08
905.000000 1.82246000e+08
915.000000 2.38527000e+08
925.000000 1.00044000e+09
935.000000 2.20882000e+09
945.000000 5.34789000e+09
955.000000 9.31017000e+09
965.000000 1.21625000e+10
975.000000 2.11242000e+09
985.000000 1.26229000e+10
995.000000 1.26152000e+10
1005.000000 1.61471000e+10
1015.000000 1.49865000e+10
1025.000000 4.47575000e+09
1035.000000 1.03338000e+10
1045.000000 2.12506000e+10
1055.000000 2.00962000e+10
1065.000000 1.45690000e+10
1075.000000 1.84709000e+10
1085.000000 1.62872000e+10
1095.000000 1.90658000e+10
1105.000000 1.65582000e+10
1115.000000 1.51764000e+10
1125.000000 1.26114000e+10
1135.000000 1.75245000e+10
1145.000000 1.46180000e+10
1155.000000 1.60291000e+10
1165.000000 1.60579000e+10
1175.000000 9.52339000e+09
1185.000000 1.59336000e+10
1195.000000 1.27735000e+10
1205.000000 7.16033000e+09
1215.000000 4.45754000e+09
1225.000000 1.00763000e+10
1235.000000 1.53349000e+10
1245.000000 1.54335000e+10
1255.000000 1.50481000e+10
1265.000000 1.49882000e+10
1275.000000 1.56518000e+10
1285.000000 1.59998000e+10
1295.000000 9.61421000e+09
1305.000000 9.72580000e+09
1315.000000 1.52082000e+10
1325.000000 1.37531000e+10
1335.000000 1.28277000e+10
1345.000000 1.39101000e+10
1355.000000 1.36421000e+10
1365.000000 1.17360000e+10
1375.000000 1.15915000e+10
1385.000000 1.15857000e+10
1395.000000 8.77811000e+09
1405.000000 9.48358000e+09
1415.000000 1.00016000e+10
1425.000000 1.02020000e+10
1435.000000 1.04306000e+10
1442.000000 1.09064000e+10
1447.000000 1.07192000e+10
1455.000000 1.03954000e+10
1465.000000 9.38951000e+09
1475.000000 9.61155000e+09
1485.000000 9.37320000e+09
1495.000000 9.30941000e+09
1505.000000 8.16055000e+09
1512.000000 7.29138000e+09
1517.000000 7.63252000e+09
1525.000000 8.00655000e+09
1535.000000 6.77696000e+09
1545.000000 6.70325000e+09
1555.000000 6.52321000e+09
1565.000000 6.94201000e+09
1575.000000 7.40937000e+09
1585.000000 7.49642000e+09
1595.000000 7.43204000e+09
1605.000000 7.63513000e+09
1615.000000 7.54997000e+09
1625.000000 7.29270000e+09
1635.000000 7.82018000e+09
1645.000000 7.79012000e+09
1655.000000 7.48748000e+09
1665.000000 7.95009000e+09
1672.000000 7.56751000e+09
1677.000000 8.01233000e+09
1685.000000 7.98513000e+09
1695.000000 7.47512000e+09
1705.000000 7.15559000e+09
1715.000000 6.71580000e+09
1725.000000 6.58056000e+09
1735.000000 6.99738000e+09
1745.000000 6.73035000e+09
1755.000000 6.88137000e+09
1765.000000 6.55208000e+09
1775.000000 6.28308000e+09
1785.000000 6.41885000e+09
1795.000000 6.77909000e+09
1805.000000 6.84803000e+09
1815.000000 5.96871000e+09
1825.000000 6.30389000e+09
1835.000000 5.97021000e+09
1845.000000 5.40211000e+09
1855.000000 5.33548000e+09
1865.000000 5.43287000e+09
1875.000000 5.93776000e+09
1885.000000 5.19765000e+09
1895.000000 4.83734000e+09
1905.000000 5.32847000e+09
1915.000000 4.88198000e+09
1925.000000 4.68296000e+09
1935.000000 4.98845000e+09
1945.000000 5.08497000e+09
1955.000000 4.58410000e+09
1967.000000 5.07137000e+09
1976.000000 5.28984000e+09
1984.000000 4.83046000e+09
1995.000000 4.74809000e+09
2005.000000 4.98479000e+09
2015.000000 4.78448000e+09
2025.000000 5.07304000e+09
2035.000000 4.57218000e+09
2045.000000 4.70341000e+09
2055.000000 4.53553000e+09
2065.000000 4.55462000e+09
2074.000000 4.77004000e+09
2078.000000 4.28127000e+09
2085.000000 4.55891000e+09
2095.000000 4.25576000e+09
2105.000000 4.42049000e+09
2115.000000 4.43412000e+09
2125.000000 4.48384000e+09
2135.000000 4.34713000e+09
2145.000000 4.15252000e+09
2155.000000 4.34502000e+09
2165.000000 4.31020000e+09
2175.000000 4.25544000e+09
2185.000000 4.08386000e+09
2195.000000 4.17332000e+09
2205.000000 4.11897000e+09
2215.000000 4.02543000e+09
2225.000000 3.88561000e+09
2235.000000 3.90687000e+09
2245.000000 3.91744000e+09
2255.000000 3.73957000e+09
2265.000000 3.84622000e+09
2275.000000 3.79406000e+09
2285.000000 3.81100000e+09
2295.000000 3.52523000e+09
2305.000000 3.63879000e+09
2315.000000 3.50128000e+09
2325.000000 3.45394000e+09
2335.000000 3.30143000e+09
2345.000000 3.30793000e+09
2355.000000 3.31556000e+09
2365.000000 3.24649000e+09
2375.000000 3.21260000e+09
2385.000000 3.16697000e+09
2395.000000 3.20081000e+09
2405.000000 3.07492000e+09
2415.000000 3.09885000e+09
2425.000000 3.10743000e+09
2435.000000 2.97928000e+09
2445.000000 3.02151000e+09
2455.000000 3.02332000e+09
2465.000000 2.95489000e+09
2475.000000 2.90233000e+09
2485.000000 2.90318000e+09
2495.000000 2.68896000e+09
2505.000000 2.83564000e+09
2513.000000 2.66597000e+09
2518.000000 2.80281000e+09
2525.000000 2.71419000e+09
2535.000000 2.68086000e+09
2545.000000 2.58347000e+09
2555.000000 2.65314000e+09
2565.000000 2.61652000e+09
2575.000000 2.64333000e+09
2585.000000 2.62884000e+09
2595.000000 2.60420000e+09
2605.000000 2.56454000e+09
2615.000000 2.54044000e+09
2625.000000 2.51806000e+09
2635.000000 2.50647000e+09
2645.000000 2.49844000e+09
2655.000000 2.49574000e+09
2665.000000 2.37589000e+09
2675.000000 2.40938000e+09
2685.000000 2.39147000e+09
2695.000000 2.30617000e+09
2705.000000 2.27113000e+09
2715.000000 2.26026000e+09
2725.000000 2.24583000e+09
2735.000000 2.25578000e+09
2745.000000 2.15463000e+09
2755.000000 2.15877000e+09
2765.000000 2.14505000e+09
2775.000000 2.17977000e+09
2785.000000 2.14364000e+09
2795.000000 2.04346000e+09
2805.000000 2.08005000e+09
2815.000000 2.09392000e+09
2825.000000 2.05589000e+09
2835.000000 1.95269000e+09
2845.000000 1.98525000e+09
2855.000000 1.96868000e+09
2865.000000 1.98333000e+09
2875.000000 1.95488000e+09
2885.000000 1.93126000e+09
2895.000000 1.90850000e+09
2910.000000 1.87735000e+09
2930.000000 1.84540000e+09
2950.000000 1.78713000e+09
2970.000000 1.77028000e+09
2990.000000 1.72455000e+09
3010.000000 1.68009000e+09
3030.000000 1.67480000e+09
3050.000000 1.64007000e+09
3070.000000 1.61210000e+09
3090.000000 1.55792000e+09
3110.000000 1.54266000e+09
3130.000000 1.51093000e+09
3150.000000 1.48463000e+09
3170.000000 1.44290000e+09
3190.000000 1.40806000e+09
3210.000000 1.39762000e+09
3230.000000 1.36907000e+09
3250.000000 1.34738000e+09
3270.000000 1.32020000e+09
3290.000000 1.29418000e+09
3310.000000 1.27246000e+09
3330.000000 1.24544000e+09
3350.000000 1.22185000e+09
3370.000000 1.19880000e+09
3390.000000 1.18010000e+09
3410.000000 1.15872000e+09
3430.000000 1.13161000e+09
3450.000000 1.10710000e+09
3470.000000 1.08887000e+09
3490.000000 1.06807000e+09
3510.000000 1.04976000e+09
3530.000000 1.03451000e+09
3550.000000 1.01652000e+09
3570.000000 1.00543000e+09
3590.000000 9.71456000e+08
3610.000000 9.58525000e+08
3630.000000 9.44161000e+08
3640.000000 9.45861000e+08
3650.000000 9.32202000e+08
3670.000000 9.22153000e+08
3690.000000 9.07315000e+08
3710.000000 8.73418000e+08
3730.000000 8.41440000e+08
3750.000000 8.37685000e+08
3770.000000 8.15807000e+08
3790.000000 8.56815000e+08
3810.000000 8.97464000e+08
3830.000000 7.72957000e+08
3850.000000 9.25475000e+08
3870.000000 9.44157000e+08
3890.000000 7.22657000e+08
3910.000000 9.46697000e+08
3930.000000 9.27402000e+08
3950.000000 9.11974000e+08
3970.000000 6.72672000e+08
3990.000000 8.70424000e+08
4010.000000 8.87300000e+08
4030.000000 8.17230000e+08
4050.000000 8.64715000e+08
4070.000000 8.19463000e+08
4090.000000 7.37960000e+08
4110.000000 6.40048000e+08
4130.000000 7.76875000e+08
4150.000000 7.79380000e+08
4170.000000 7.79959000e+08
4190.000000 7.74033000e+08
4210.000000 7.68057000e+08
4230.000000 7.50200000e+08
4250.000000 7.29244000e+08
4270.000000 7.02428000e+08
4290.000000 7.01748000e+08
4310.000000 6.75741000e+08
4330.000000 5.91630000e+08
4350.000000 5.37187000e+08
4370.000000 6.36973000e+08
4390.000000 6.28075000e+08
4410.000000 6.37093000e+08
4430.000000 6.30471000e+08
4450.000000 6.24074000e+08
4470.000000 5.77739000e+08
4490.000000 5.99774000e+08
4510.000000 6.01042000e+08
4530.000000 5.88733000e+08
4550.000000 5.81949000e+08
4570.000000 5.72520000e+08
4590.000000 5.63357000e+08
4610.000000 5.48978000e+08
4630.000000 5.38727000e+08
4650.000000 5.27726000e+08
4670.000000 5.26722000e+08
4690.000000 5.22736000e+08
4710.000000 4.97741000e+08
4730.000000 4.99906000e+08
4750.000000 4.93067000e+08
4770.000000 4.94355000e+08
4790.000000 4.83668000e+08
4810.000000 4.70535000e+08
4830.000000 4.59396000e+08
4850.000000 4.10515000e+08
4870.000000 3.61466000e+08
4890.000000 4.38786000e+08
4910.000000 4.39063000e+08
4930.000000 4.19387000e+08
4950.000000 4.28674000e+08
4970.000000 4.25933000e+08
4990.000000 4.18365000e+08
5010.000000 3.96270000e+08
5030.000000 4.04277000e+08
5050.000000 3.91686000e+08
5070.000000 3.95271000e+08
5090.000000 3.88681000e+08
5110.000000 3.81273000e+08
5130.000000 3.70232000e+08
5150.000000 3.66254000e+08
5170.000000 3.67189000e+08
5190.000000 3.62406000e+08
5210.000000 3.53703000e+08
5230.000000 3.52284000e+08
5250.000000 3.47842000e+08
5270.000000 3.41924000e+08
5290.000000 3.38926000e+08
5310.000000 3.33759000e+08
5330.000000 3.28580000e+08
5350.000000 3.22732000e+08
5370.000000 3.21038000e+08
5390.000000 3.16547000e+08
5410.000000 3.12202000e+08
5430.000000 3.07096000e+08
5450.000000 3.03210000e+08
5470.000000 2.98806000e+08
5490.000000 2.95745000e+08
5510.000000 2.92361000e+08
5530.000000 2.87935000e+08
5550.000000 2.85019000e+08
5570.000000 2.80972000e+08
5590.000000 2.77856000e+08
5610.000000 2.73700000e+08
5630.000000 2.70963000e+08
5650.000000 2.64044000e+08
5670.000000 2.59888000e+08
5690.000000 2.57366000e+08
5710.000000 2.56017000e+08
5730.000000 2.53338000e+08
5750.000000 2.49607000e+08
5770.000000 2.47552000e+08
5790.000000 2.44237000e+08
5810.000000 2.41086000e+08
5830.000000 2.37661000e+08
5850.000000 2.35015000e+08
5870.000000 2.22548000e+08
5890.000000 2.25535000e+08
5910.000000 2.25521000e+08
5930.000000 2.22749000e+08
5950.000000 2.19190000e+08
5970.000000 2.18506000e+08
5990.000000 2.14718000e+08
6010.000000 2.13167000e+08
6030.000000 2.10170000e+08
6050.000000 2.07846000e+08
6070.000000 2.05609000e+08
6090.000000 2.02971000e+08
6110.000000 2.00686000e+08
6130.000000 1.98526000e+08
6150.000000 1.94060000e+08
6170.000000 1.93130000e+08
6190.000000 1.91402000e+08
6210.000000 1.89243000e+08
6230.000000 1.87031000e+08
6250.000000 1.83810000e+08
6270.000000 1.82294000e+08
6290.000000 1.80385000e+08
6310.000000 1.78041000e+08
6330.000000 1.76392000e+08
6350.000000 1.72984000e+08
6370.000000 1.71723000e+08
6390.000000 1.70087000e+08
6410.000000 1.68147000e+08
6430.000000 1.66629000e+08
6450.000000 1.64474000e+08
6470.000000 1.61740000e+08
6490.000000 1.60199000e+08
6510.000000 1.58221000e+08
6530.000000 1.55150000e+08
6550.000000 1.44650000e+08
6570.000000 1.25268000e+08
6590.000000 1.46907000e+08
6610.000000 1.49210000e+08
6630.000000 1.48303000e+08
6650.000000 1.46926000e+08
6670.000000 1.43235000e+08
6690.000000 1.41858000e+08
6710.000000 1.42336000e+08
6730.000000 1.40518000e+08
6750.000000 1.39372000e+08
6770.000000 1.37884000e+08
6790.000000 1.34638000e+08
6810.000000 1.34515000e+08
6830.000000 1.33155000e+08
6850.000000 1.31969000e+08
6870.000000 1.30563000e+08
6890.000000 1.29084000e+08
6910.000000 1.27659000e+08
6930.000000 1.26264000e+08
6950.000000 1.25125000e+08
6970.000000 1.23827000e+08
6990.000000 1.22464000e+08
7010.000000 1.21130000e+08
7030.000000 1.19862000e+08
7050.000000 1.18448000e+08
7070.000000 1.14786000e+08
7090.000000 1.15856000e+08
7110.000000 1.14147000e+08
7130.000000 1.13018000e+08
7150.000000 1.12188000e+08
7170.000000 1.11299000e+08
7190.000000 1.10346000e+08
7210.000000 1.09234000e+08
7230.000000 1.05906000e+08
7250.000000 1.06814000e+08
7270.000000 1.05920000e+08
7290.000000 1.03837000e+08
7310.000000 1.03763000e+08
7330.000000 1.02707000e+08
7350.000000 1.01730000e+08
7370.000000 1.00714000e+08
7390.000000 9.97008000e+07
7410.000000 9.87105000e+07
7430.000000 9.75383000e+07
7450.000000 9.66895000e+07
7470.000000 9.53421000e+07
7490.000000 9.47194000e+07
7510.000000 9.37881000e+07
7530.000000 9.28188000e+07
7550.000000 9.20567000e+07
7570.000000 9.11699000e+07
7590.000000 9.02389000e+07
7610.000000 8.93423000e+07
7630.000000 8.85057000e+07
7650.000000 8.76702000e+07
7670.000000 8.68229000e+07
7690.000000 8.59769000e+07
7710.000000 8.51512000e+07
7730.000000 8.43013000e+07
7750.000000 8.35344000e+07
7770.000000 8.19068000e+07
7790.000000 8.19524000e+07
7810.000000 8.11255000e+07
7830.000000 8.04105000e+07
7850.000000 7.93961000e+07
7870.000000 7.86768000e+07
7890.000000 7.76551000e+07
7910.000000 7.73472000e+07
7930.000000 7.66760000e+07
7950.000000 7.56529000e+07
7970.000000 7.51550000e+07
7990.000000 7.40711000e+07
8010.000000 7.37487000e+07
8030.000000 7.30429000e+07
8050.000000 7.23490000e+07
8070.000000 7.16958000e+07
8090.000000 7.09907000e+07
8110.000000 7.01827000e+07
8130.000000 6.97467000e+07
8150.000000 6.91155000e+07
8170.000000 6.85461000e+07
8190.000000 6.77175000e+07
8210.000000 6.70191000e+07
8230.000000 6.62544000e+07
8250.000000 6.60830000e+07
8270.000000 6.50091000e+07
8290.000000 6.48767000e+07
8310.000000 6.43357000e+07
8330.000000 6.37774000e+07
8350.000000 6.28995000e+07
8370.000000 6.24863000e+07
8390.000000 6.21245000e+07
8410.000000 6.15577000e+07
8430.000000 6.09744000e+07
8450.000000 5.96731000e+07
8470.000000 5.99378000e+07
8490.000000 5.91853000e+07
8510.000000 5.87722000e+07
8530.000000 5.81914000e+07
8550.000000 5.74866000e+07
8570.000000 5.74751000e+07
8590.000000 5.56965000e+07
8610.000000 5.58243000e+07
8630.000000 5.62487000e+07
8650.000000 5.47050000e+07
8670.000000 5.28892000e+07
8690.000000 5.46565000e+07
8710.000000 5.49272000e+07
8730.000000 5.31039000e+07
8750.000000 4.94220000e+07
8770.000000 5.14842000e+07
8790.000000 5.32737000e+07
8810.000000 5.33088000e+07
8830.000000 5.22075000e+07
8850.000000 4.85567000e+07
8870.000000 4.56297000e+07
8890.000000 5.01180000e+07
8910.000000 5.11461000e+07
8930.000000 5.10023000e+07
8950.000000 5.08310000e+07
8970.000000 5.00568000e+07
8990.000000 4.78999000e+07
9010.000000 4.24551000e+07
9030.000000 4.42668000e+07
9050.000000 4.75796000e+07
9070.000000 4.75211000e+07
9090.000000 4.78001000e+07
9110.000000 4.77539000e+07
9130.000000 4.74229000e+07
9150.000000 4.69863000e+07
9170.000000 4.62663000e+07
9190.000000 4.53961000e+07
9210.000000 4.25348000e+07
9230.000000 3.72104000e+07
9250.000000 4.16006000e+07
9270.000000 4.33191000e+07
9290.000000 4.41010000e+07
9310.000000 4.37553000e+07
9330.000000 4.35938000e+07
9350.000000 4.33860000e+07
9370.000000 4.31366000e+07
9390.000000 4.27821000e+07
9410.000000 4.21504000e+07
9430.000000 4.20378000e+07
9450.000000 4.16504000e+07
9470.000000 4.09034000e+07
9490.000000 4.06697000e+07
9510.000000 3.94024000e+07
9530.000000 3.68247000e+07
9550.000000 3.25370000e+07
9570.000000 3.71666000e+07
9590.000000 3.86630000e+07
9610.000000 3.87013000e+07
9630.000000 3.82360000e+07
9650.000000 3.85073000e+07
9670.000000 3.82491000e+07
9690.000000 3.79401000e+07
9710.000000 3.75414000e+07
9730.000000 3.74064000e+07
9750.000000 3.70874000e+07
9770.000000 3.68375000e+07
9790.000000 3.65413000e+07
9810.000000 3.62315000e+07
9830.000000 3.59529000e+07
9850.000000 3.56909000e+07
9870.000000 3.53790000e+07
9890.000000 3.50438000e+07
9910.000000 3.44464000e+07
9930.000000 3.45707000e+07
9950.000000 3.42389000e+07
9970.000000 3.38758000e+07
9990.000000 3.35047000e+07
10025.000000 3.09985000e+07
10075.000000 2.97934000e+07
10125.000000 3.17261000e+07
10175.000000 3.14780000e+07
10225.000000 3.09363000e+07
10275.000000 3.03815000e+07
10325.000000 2.96537000e+07
10375.000000 2.92800000e+07
10425.000000 2.87513000e+07
10475.000000 2.82237000e+07
10525.000000 2.76937000e+07
10575.000000 2.72114000e+07
10625.000000 2.67343000e+07
10675.000000 2.61370000e+07
10725.000000 2.57858000e+07
10775.000000 2.53222000e+07
10825.000000 2.45056000e+07
10875.000000 2.41859000e+07
10925.000000 2.12395000e+07
10975.000000 2.25179000e+07
11025.000000 2.29003000e+07
11075.000000 2.27385000e+07
11125.000000 2.24128000e+07
11175.000000 2.20296000e+07
11225.000000 2.16460000e+07
11275.000000 2.12159000e+07
11325.000000 2.08739000e+07
11375.000000 2.05807000e+07
11425.000000 2.02082000e+07
11475.000000 1.99048000e+07
11525.000000 1.95745000e+07
11575.000000 1.92222000e+07
11625.000000 1.89125000e+07
11675.000000 1.86099000e+07
11725.000000 1.83183000e+07
11775.000000 1.79876000e+07
11825.000000 1.77334000e+07
11875.000000 1.74454000e+07
11925.000000 1.71712000e+07
11975.000000 1.66123000e+07
12025.000000 1.66281000e+07
12075.000000 1.63654000e+07
12125.000000 1.61062000e+07
12175.000000 1.58537000e+07
12225.000000 1.56053000e+07
12275.000000 1.53609000e+07
12325.000000 1.51222000e+07
12375.000000 1.48893000e+07
12425.000000 1.46621000e+07
12475.000000 1.44119000e+07
12525.000000 1.41705000e+07
12575.000000 1.39811000e+07
12625.000000 1.37770000e+07
12675.000000 1.35630000e+07
12725.000000 1.33114000e+07
12775.000000 1.27390000e+07
12825.000000 1.14622000e+07
12875.000000 1.25481000e+07
12925.000000 1.25427000e+07
12975.000000 1.22605000e+07
13025.000000 1.22225000e+07
13075.000000 1.20464000e+07
