# Kurucz ODFNEW /NOVER, alpha: 0.0 (2003)
# teff = 8250 K (value for the effective temperature for the model. Temperatures are given in K)
# logg = 4.5 log(cm/s2) (value for Log(G) for the model.)
# lh = 1.25  (l/Hp where l is the  mixing length of the convective element and Hp is the pressure scale height)
# meta = -0.5  (value for the Metallicity for the model.)
# vtur = 2 km/s (Microturbulence velocity)
# alpha = 0  (Alpha)
#
# column 1: WAVELENGTH (ANGSTROM), Wavelength in Angstrom
# column 2: FLUX (ERG/CM2/S/A), Flux in erg/cm2/s/A
318.000000 3.95565000e-23
328.000000 5.29566000e-22
338.000000 5.41859000e-21
348.000000 4.80897000e-20
357.000000 3.07889000e-19
366.000000 1.79348000e-18
375.000000 9.57167000e-18
385.000000 5.59484000e-17
395.000000 2.98076000e-16
405.000000 1.69953000e-16
414.000000 6.10804000e-16
422.000000 1.81238000e-15
430.000000 5.14931000e-15
441.000000 2.02563000e-14
451.000000 6.60644000e-14
460.000000 1.82614000e-13
470.000000 5.38114000e-13
480.000000 1.50976000e-12
490.000000 4.04894000e-12
500.000000 1.03932000e-11
506.000000 2.37674000e-11
512.000000 4.56598000e-11
520.000000 9.06658000e-11
530.000000 2.08576000e-10
540.000000 4.55861000e-10
550.000000 9.79235000e-10
560.000000 2.02792000e-09
570.000000 4.08222000e-09
580.000000 7.90695000e-09
590.000000 1.52824000e-08
600.000000 2.85027000e-08
610.000000 5.19757000e-08
620.000000 9.27142000e-08
630.000000 1.62025000e-07
640.000000 2.77764000e-07
650.000000 4.67510000e-07
658.000000 6.99914000e-07
665.000000 9.87006000e-07
675.000000 1.59134000e-06
685.000000 2.52529000e-06
695.000000 3.94750000e-06
705.000000 6.07330000e-06
716.000000 9.62664000e-06
726.000000 1.44166000e-05
735.000000 2.05155000e-05
745.000000 3.00162000e-05
755.000000 4.34132000e-05
765.000000 6.21011000e-05
775.000000 8.78873000e-05
785.000000 1.23132000e-04
795.000000 1.69998000e-04
805.000000 2.34313000e-04
815.000000 3.19346000e-04
825.000000 4.31048000e-04
835.000000 5.76961000e-04
845.000000 7.66095000e-04
855.000000 1.00925000e-03
865.000000 1.31962000e-03
875.000000 1.71102000e-03
885.000000 2.20783000e-03
895.000000 2.82698000e-03
905.000000 3.58972000e-03
915.000000 1.55237000e+00
925.000000 7.64312000e+00
935.000000 1.07676000e+01
945.000000 1.47262000e+01
955.000000 2.00772000e+01
965.000000 2.56292000e+01
975.000000 2.82167000e+01
985.000000 3.80777000e+01
995.000000 4.48183000e+01
1005.000000 5.76046000e+01
1015.000000 6.89484000e+01
1025.000000 7.11380000e+01
1035.000000 9.86219000e+01
1045.000000 1.20171000e+02
1055.000000 1.43523000e+02
1065.000000 1.67409000e+02
1075.000000 2.01997000e+02
1085.000000 2.40430000e+02
1095.000000 2.77464000e+02
1105.000000 6.48942000e+02
1115.000000 1.67837000e+03
1125.000000 2.22673000e+03
1135.000000 2.98348000e+03
1145.000000 3.55228000e+03
1155.000000 3.75339000e+03
1165.000000 4.69487000e+03
1175.000000 5.19706000e+03
1185.000000 5.37022000e+03
1195.000000 3.03726000e+03
1205.000000 2.29147000e+03
1215.000000 5.60312000e+02
1225.000000 2.52755000e+03
1235.000000 6.01221000e+03
1245.000000 1.04646000e+04
1255.000000 1.72126000e+04
1265.000000 1.93136000e+04
1275.000000 2.64722000e+04
1285.000000 3.83956000e+04
1295.000000 4.71455000e+04
1305.000000 4.86710000e+04
1315.000000 6.59833000e+04
1325.000000 7.95099000e+04
1335.000000 9.23991000e+04
1345.000000 1.16876000e+05
1355.000000 1.21680000e+05
1365.000000 1.38576000e+05
1375.000000 1.46850000e+05
1385.000000 1.43064000e+05
1395.000000 1.60480000e+05
1405.000000 1.92637000e+05
1415.000000 2.38675000e+05
1425.000000 2.63017000e+05
1435.000000 2.56711000e+05
1442.000000 3.24141000e+05
1447.000000 3.13916000e+05
1455.000000 3.69393000e+05
1465.000000 3.55416000e+05
1475.000000 3.86855000e+05
1485.000000 4.25311000e+05
1495.000000 4.71067000e+05
1505.000000 5.19149000e+05
1512.000000 5.07926000e+05
1517.000000 5.22182000e+05
1525.000000 5.41049000e+05
1535.000000 9.86566000e+05
1545.000000 1.45921000e+06
1555.000000 1.24016000e+06
1565.000000 9.36907000e+05
1575.000000 1.33093000e+06
1585.000000 1.49263000e+06
1595.000000 1.48587000e+06
1605.000000 1.58383000e+06
1615.000000 2.31146000e+06
1625.000000 3.28333000e+06
1635.000000 5.44866000e+06
1645.000000 1.09050000e+07
1655.000000 7.44347000e+06
1665.000000 1.48994000e+07
1672.000000 9.78753000e+06
1677.000000 1.69321000e+07
1685.000000 2.11451000e+07
1695.000000 1.64931000e+07
1705.000000 1.86108000e+07
1715.000000 2.27096000e+07
1725.000000 2.30991000e+07
1735.000000 2.71025000e+07
1745.000000 2.59675000e+07
1755.000000 3.02702000e+07
1765.000000 2.24691000e+07
1775.000000 2.85229000e+07
1785.000000 2.93712000e+07
1795.000000 3.38165000e+07
1805.000000 2.99311000e+07
1815.000000 3.09322000e+07
1825.000000 2.81838000e+07
1835.000000 2.83619000e+07
1845.000000 2.45935000e+07
1855.000000 2.72336000e+07
1865.000000 2.96869000e+07
1875.000000 2.97258000e+07
1885.000000 3.02881000e+07
1895.000000 3.14432000e+07
1905.000000 2.92641000e+07
1915.000000 3.21192000e+07
1925.000000 3.23841000e+07
1935.000000 2.73032000e+07
1945.000000 3.39004000e+07
1955.000000 3.39429000e+07
1967.000000 3.61960000e+07
1976.000000 3.51048000e+07
1984.000000 3.39704000e+07
1995.000000 3.31908000e+07
2005.000000 3.11999000e+07
2015.000000 3.15869000e+07
2025.000000 2.89743000e+07
2035.000000 3.25220000e+07
2045.000000 3.50396000e+07
2055.000000 3.37029000e+07
2065.000000 3.27598000e+07
2074.000000 3.63270000e+07
2078.000000 3.73206000e+07
2085.000000 3.63590000e+07
2095.000000 3.47174000e+07
2105.000000 3.28503000e+07
2115.000000 3.36134000e+07
2125.000000 3.45842000e+07
2135.000000 2.85484000e+07
2145.000000 3.31710000e+07
2155.000000 3.28955000e+07
2165.000000 3.06007000e+07
2175.000000 3.02307000e+07
2185.000000 3.19487000e+07
2195.000000 3.44004000e+07
2205.000000 3.29160000e+07
2215.000000 2.97216000e+07
2225.000000 2.99869000e+07
2235.000000 3.44569000e+07
2245.000000 3.07235000e+07
2255.000000 2.93396000e+07
2265.000000 2.88850000e+07
2275.000000 3.11225000e+07
2285.000000 3.25434000e+07
2295.000000 2.98299000e+07
2305.000000 3.07048000e+07
2315.000000 3.03585000e+07
2325.000000 2.99035000e+07
2335.000000 2.79502000e+07
2345.000000 2.41842000e+07
2355.000000 3.02333000e+07
2365.000000 2.53348000e+07
2375.000000 2.80599000e+07
2385.000000 2.28300000e+07
2395.000000 2.54909000e+07
2405.000000 2.46808000e+07
2415.000000 2.49251000e+07
2425.000000 2.83446000e+07
2435.000000 2.71776000e+07
2445.000000 2.91766000e+07
2455.000000 2.85474000e+07
2465.000000 2.88197000e+07
2475.000000 2.68069000e+07
2485.000000 2.74249000e+07
2495.000000 2.61495000e+07
2505.000000 3.06738000e+07
2513.000000 2.65678000e+07
2518.000000 2.67238000e+07
2525.000000 2.46561000e+07
2535.000000 2.37244000e+07
2545.000000 2.28631000e+07
2555.000000 2.52306000e+07
2565.000000 2.55313000e+07
2575.000000 2.84981000e+07
2585.000000 2.89884000e+07
2595.000000 2.84644000e+07
2605.000000 2.71071000e+07
2615.000000 2.60490000e+07
2625.000000 2.94189000e+07
2635.000000 2.96480000e+07
2645.000000 3.39745000e+07
2655.000000 3.41637000e+07
2665.000000 3.04026000e+07
2675.000000 3.21653000e+07
2685.000000 3.25924000e+07
2695.000000 2.99292000e+07
2705.000000 3.09574000e+07
2715.000000 2.87529000e+07
2725.000000 2.91480000e+07
2735.000000 3.16609000e+07
2745.000000 2.58055000e+07
2755.000000 2.71105000e+07
2765.000000 2.84773000e+07
2775.000000 3.09328000e+07
2785.000000 2.93730000e+07
2795.000000 1.84675000e+07
2805.000000 2.19860000e+07
2815.000000 3.23487000e+07
2825.000000 3.29249000e+07
2835.000000 3.16885000e+07
2845.000000 3.02481000e+07
2855.000000 2.82715000e+07
2865.000000 3.13304000e+07
2875.000000 3.06693000e+07
2885.000000 3.12963000e+07
2895.000000 2.99962000e+07
2910.000000 3.35685000e+07
2930.000000 3.21428000e+07
2950.000000 3.18622000e+07
2970.000000 3.25445000e+07
2990.000000 3.25964000e+07
3010.000000 3.28499000e+07
3030.000000 3.26816000e+07
3050.000000 3.26318000e+07
3070.000000 3.26773000e+07
3090.000000 3.28905000e+07
3110.000000 3.21907000e+07
3130.000000 3.21233000e+07
3150.000000 3.27342000e+07
3170.000000 3.25575000e+07
3190.000000 3.09714000e+07
3210.000000 3.15873000e+07
3230.000000 3.05196000e+07
3250.000000 3.13749000e+07
3270.000000 3.18491000e+07
3290.000000 3.20760000e+07
3310.000000 3.22799000e+07
3330.000000 3.16059000e+07
3350.000000 3.11723000e+07
3370.000000 3.09444000e+07
3390.000000 3.08419000e+07
3410.000000 3.10650000e+07
3430.000000 3.11441000e+07
3450.000000 3.08644000e+07
3470.000000 3.05513000e+07
3490.000000 3.05204000e+07
3510.000000 3.08750000e+07
3530.000000 3.06653000e+07
3550.000000 3.10172000e+07
3570.000000 3.00647000e+07
3590.000000 2.98534000e+07
3610.000000 2.98560000e+07
3630.000000 2.99996000e+07
3640.000000 2.97270000e+07
3650.000000 3.04975000e+07
3670.000000 3.04009000e+07
3690.000000 2.92727000e+07
3710.000000 2.92699000e+07
3730.000000 2.87240000e+07
3750.000000 3.44140000e+07
3770.000000 3.62313000e+07
3790.000000 4.34846000e+07
3810.000000 5.03375000e+07
3830.000000 4.02388000e+07
3850.000000 5.56993000e+07
3870.000000 6.25229000e+07
3890.000000 3.67739000e+07
3910.000000 6.28494000e+07
3930.000000 6.14942000e+07
3950.000000 6.30220000e+07
3970.000000 3.51156000e+07
3990.000000 6.13791000e+07
4010.000000 7.04676000e+07
4030.000000 7.12476000e+07
4050.000000 7.02126000e+07
4070.000000 6.58718000e+07
4090.000000 5.09892000e+07
4110.000000 3.93855000e+07
4130.000000 6.27327000e+07
4150.000000 6.70840000e+07
4170.000000 6.77636000e+07
4190.000000 6.69423000e+07
4210.000000 6.67754000e+07
4230.000000 6.51622000e+07
4250.000000 6.50905000e+07
4270.000000 6.34842000e+07
4290.000000 6.25927000e+07
4310.000000 5.72899000e+07
4330.000000 4.34359000e+07
4350.000000 3.72598000e+07
4370.000000 5.67612000e+07
4390.000000 5.95977000e+07
4410.000000 5.95988000e+07
4430.000000 5.93805000e+07
4450.000000 5.96051000e+07
4470.000000 5.91804000e+07
4490.000000 5.84974000e+07
4510.000000 5.87780000e+07
4530.000000 5.75479000e+07
4550.000000 5.66209000e+07
4570.000000 5.71798000e+07
4590.000000 5.60710000e+07
4610.000000 5.63106000e+07
4630.000000 5.51679000e+07
4650.000000 5.51387000e+07
4670.000000 5.47330000e+07
4690.000000 5.32756000e+07
4710.000000 5.15419000e+07
4730.000000 5.29138000e+07
4750.000000 5.24491000e+07
4770.000000 5.16923000e+07
4790.000000 5.08248000e+07
4810.000000 4.94406000e+07
4830.000000 4.63223000e+07
4850.000000 3.57807000e+07
4870.000000 2.91082000e+07
4890.000000 4.33965000e+07
4910.000000 4.66253000e+07
4930.000000 4.66477000e+07
4950.000000 4.70510000e+07
4970.000000 4.71932000e+07
4990.000000 4.63224000e+07
5010.000000 4.53469000e+07
5030.000000 4.57628000e+07
5050.000000 4.51100000e+07
5070.000000 4.51447000e+07
5090.000000 4.46394000e+07
5110.000000 4.43541000e+07
5130.000000 4.37255000e+07
5150.000000 4.30840000e+07
5170.000000 4.19493000e+07
5190.000000 4.17106000e+07
5210.000000 4.17712000e+07
5230.000000 4.12058000e+07
5250.000000 4.15472000e+07
5270.000000 4.00645000e+07
5290.000000 4.06547000e+07
5310.000000 4.01379000e+07
5330.000000 3.92670000e+07
5350.000000 3.95808000e+07
5370.000000 3.89991000e+07
5390.000000 3.87050000e+07
5410.000000 3.80603000e+07
5430.000000 3.79899000e+07
5450.000000 3.77446000e+07
5470.000000 3.74250000e+07
5490.000000 3.71953000e+07
5510.000000 3.69084000e+07
5530.000000 3.64288000e+07
5550.000000 3.62940000e+07
5570.000000 3.58067000e+07
5590.000000 3.54051000e+07
5610.000000 3.51986000e+07
5630.000000 3.50298000e+07
5650.000000 3.46972000e+07
5670.000000 3.43052000e+07
5690.000000 3.40831000e+07
5710.000000 3.37650000e+07
5730.000000 3.35940000e+07
5750.000000 3.32194000e+07
5770.000000 3.29624000e+07
5790.000000 3.26564000e+07
5810.000000 3.23951000e+07
5830.000000 3.21333000e+07
5850.000000 3.18105000e+07
5870.000000 3.15362000e+07
5890.000000 3.09390000e+07
5910.000000 3.09985000e+07
5930.000000 3.07341000e+07
5950.000000 3.04672000e+07
5970.000000 3.02137000e+07
5990.000000 2.99230000e+07
6010.000000 2.96178000e+07
6030.000000 2.93927000e+07
6050.000000 2.91750000e+07
6070.000000 2.89595000e+07
6090.000000 2.86843000e+07
6110.000000 2.84151000e+07
6130.000000 2.80545000e+07
6150.000000 2.77409000e+07
6170.000000 2.75306000e+07
6190.000000 2.74956000e+07
6210.000000 2.72709000e+07
6230.000000 2.69806000e+07
6250.000000 2.65931000e+07
6270.000000 2.65953000e+07
6290.000000 2.63759000e+07
6310.000000 2.60832000e+07
6330.000000 2.58951000e+07
6350.000000 2.55715000e+07
6370.000000 2.53880000e+07
6390.000000 2.52422000e+07
6410.000000 2.49181000e+07
6430.000000 2.47478000e+07
6450.000000 2.43637000e+07
6470.000000 2.42079000e+07
6490.000000 2.38121000e+07
6510.000000 2.33993000e+07
6530.000000 2.23842000e+07
6550.000000 1.91936000e+07
6570.000000 1.55021000e+07
6590.000000 2.09843000e+07
6610.000000 2.22492000e+07
6630.000000 2.25214000e+07
6650.000000 2.25122000e+07
6670.000000 2.23969000e+07
6690.000000 2.22867000e+07
6710.000000 2.21264000e+07
6730.000000 2.19768000e+07
6750.000000 2.17840000e+07
6770.000000 2.16637000e+07
6790.000000 2.14896000e+07
6810.000000 2.13197000e+07
6830.000000 2.11377000e+07
6850.000000 2.09695000e+07
6870.000000 2.08197000e+07
6890.000000 2.06585000e+07
6910.000000 2.04949000e+07
6930.000000 2.03297000e+07
6950.000000 2.01731000e+07
6970.000000 2.00117000e+07
6990.000000 1.98627000e+07
7010.000000 1.96598000e+07
7030.000000 1.95283000e+07
7050.000000 1.93949000e+07
7070.000000 1.92484000e+07
7090.000000 1.91010000e+07
7110.000000 1.87835000e+07
7130.000000 1.87665000e+07
7150.000000 1.86307000e+07
7170.000000 1.84888000e+07
7190.000000 1.83343000e+07
7210.000000 1.82103000e+07
7230.000000 1.80751000e+07
7250.000000 1.79260000e+07
7270.000000 1.78154000e+07
7290.000000 1.76420000e+07
7310.000000 1.75308000e+07
7330.000000 1.73925000e+07
7350.000000 1.72847000e+07
7370.000000 1.71563000e+07
7390.000000 1.70022000e+07
7410.000000 1.68405000e+07
7430.000000 1.67138000e+07
7450.000000 1.66100000e+07
7470.000000 1.64503000e+07
7490.000000 1.63370000e+07
7510.000000 1.62514000e+07
7530.000000 1.61406000e+07
7550.000000 1.60394000e+07
7570.000000 1.59127000e+07
7590.000000 1.57988000e+07
7610.000000 1.56795000e+07
7630.000000 1.55650000e+07
7650.000000 1.54425000e+07
7670.000000 1.52994000e+07
7690.000000 1.52046000e+07
7710.000000 1.50910000e+07
7730.000000 1.50029000e+07
7750.000000 1.48791000e+07
7770.000000 1.45561000e+07
7790.000000 1.46826000e+07
7810.000000 1.45711000e+07
7830.000000 1.44427000e+07
7850.000000 1.43246000e+07
7870.000000 1.42141000e+07
7890.000000 1.41046000e+07
7910.000000 1.40202000e+07
7930.000000 1.39016000e+07
7950.000000 1.37990000e+07
7970.000000 1.37553000e+07
7990.000000 1.36039000e+07
8010.000000 1.35449000e+07
8030.000000 1.34442000e+07
8050.000000 1.33548000e+07
8070.000000 1.32609000e+07
8090.000000 1.31626000e+07
8110.000000 1.30840000e+07
8130.000000 1.29952000e+07
8150.000000 1.29026000e+07
8170.000000 1.28124000e+07
8190.000000 1.26269000e+07
8210.000000 1.25928000e+07
8230.000000 1.24956000e+07
8250.000000 1.24146000e+07
8270.000000 1.24031000e+07
8290.000000 1.23170000e+07
8310.000000 1.22267000e+07
8330.000000 1.20687000e+07
8350.000000 1.20709000e+07
8370.000000 1.19977000e+07
8390.000000 1.18903000e+07
8410.000000 1.18210000e+07
8430.000000 1.17247000e+07
8450.000000 1.15442000e+07
8470.000000 1.14824000e+07
8490.000000 1.14932000e+07
8510.000000 1.10974000e+07
8530.000000 1.13701000e+07
8550.000000 1.05264000e+07
8570.000000 1.13324000e+07
8590.000000 1.08074000e+07
8610.000000 1.06165000e+07
8630.000000 1.12361000e+07
8650.000000 1.08640000e+07
8670.000000 9.45120000e+06
8690.000000 1.08704000e+07
8710.000000 1.11637000e+07
8730.000000 1.07671000e+07
8750.000000 8.94211000e+06
8770.000000 1.03160000e+07
8790.000000 1.09883000e+07
8810.000000 1.10083000e+07
8830.000000 1.07343000e+07
8850.000000 9.70413000e+06
8870.000000 8.41929000e+06
8890.000000 1.02491000e+07
8910.000000 1.06810000e+07
8930.000000 1.07617000e+07
8950.000000 1.07701000e+07
8970.000000 1.05386000e+07
8990.000000 9.98784000e+06
9010.000000 8.13322000e+06
9030.000000 8.83138000e+06
9050.000000 9.98647000e+06
9070.000000 1.01417000e+07
9090.000000 1.01167000e+07
9110.000000 1.02839000e+07
9130.000000 1.02976000e+07
9150.000000 1.02099000e+07
9170.000000 1.00350000e+07
9190.000000 9.71575000e+06
9210.000000 8.95988000e+06
9230.000000 7.16199000e+06
9250.000000 8.64304000e+06
9270.000000 9.30898000e+06
9290.000000 9.64434000e+06
9310.000000 9.70465000e+06
9330.000000 9.69209000e+06
9350.000000 9.66101000e+06
9370.000000 9.61423000e+06
9390.000000 9.53401000e+06
9410.000000 9.29187000e+06
9430.000000 9.37535000e+06
9450.000000 9.30660000e+06
9470.000000 9.20852000e+06
9490.000000 9.03631000e+06
9510.000000 8.70925000e+06
9530.000000 7.94890000e+06
9550.000000 6.49138000e+06
9570.000000 8.00435000e+06
9590.000000 8.54858000e+06
9610.000000 8.67947000e+06
9630.000000 8.68042000e+06
9650.000000 8.74238000e+06
9670.000000 8.65025000e+06
9690.000000 8.65470000e+06
9710.000000 8.64906000e+06
9730.000000 8.59722000e+06
9750.000000 8.52751000e+06
9770.000000 8.49697000e+06
9790.000000 8.44460000e+06
9810.000000 8.39181000e+06
9830.000000 8.33508000e+06
9850.000000 8.26516000e+06
9870.000000 8.20965000e+06
9890.000000 8.12179000e+06
9910.000000 8.08942000e+06
9930.000000 8.03127000e+06
9950.000000 7.96363000e+06
9970.000000 7.87600000e+06
9990.000000 7.73653000e+06
10025.000000 6.95914000e+06
10075.000000 6.61856000e+06
10125.000000 7.43716000e+06
10175.000000 7.45522000e+06
10225.000000 7.38068000e+06
10275.000000 7.28904000e+06
10325.000000 7.17409000e+06
10375.000000 7.07116000e+06
10425.000000 6.96675000e+06
10475.000000 6.81869000e+06
10525.000000 6.74929000e+06
10575.000000 6.64991000e+06
10625.000000 6.54976000e+06
10675.000000 6.36193000e+06
10725.000000 6.31913000e+06
10775.000000 6.23206000e+06
10825.000000 6.10325000e+06
10875.000000 5.89086000e+06
10925.000000 4.94318000e+06
10975.000000 5.38803000e+06
11025.000000 5.73196000e+06
11075.000000 5.73008000e+06
11125.000000 5.66316000e+06
11175.000000 5.59691000e+06
11225.000000 5.52653000e+06
11275.000000 5.39880000e+06
11325.000000 5.32392000e+06
11375.000000 5.28391000e+06
11425.000000 5.19851000e+06
11475.000000 5.15359000e+06
11525.000000 5.08515000e+06
11575.000000 5.01263000e+06
11625.000000 4.91246000e+06
11675.000000 4.82183000e+06
11725.000000 4.81285000e+06
11775.000000 4.68077000e+06
11825.000000 4.65151000e+06
11875.000000 4.57448000e+06
11925.000000 4.56031000e+06
11975.000000 4.46583000e+06
12025.000000 4.42590000e+06
12075.000000 4.35858000e+06
12125.000000 4.30707000e+06
12175.000000 4.26135000e+06
12225.000000 4.20287000e+06
12275.000000 4.14044000e+06
12325.000000 4.09030000e+06
12375.000000 4.03985000e+06
12425.000000 3.99154000e+06
12475.000000 3.93564000e+06
12525.000000 3.88243000e+06
12575.000000 3.81397000e+06
12625.000000 3.76303000e+06
12675.000000 3.71323000e+06
12725.000000 3.62920000e+06
12775.000000 3.42425000e+06
12825.000000 2.90356000e+06
12875.000000 3.37740000e+06
12925.000000 3.45529000e+06
12975.000000 3.44236000e+06
13025.000000 3.40998000e+06
13075.000000 3.37580000e+06
13125.000000 3.33263000e+06
13175.000000 3.28655000e+06
13225.000000 3.25399000e+06
13275.000000 3.21306000e+06
13325.000000 3.17393000e+06
13375.000000 3.13445000e+06
13425.000000 3.09652000e+06
13475.000000 3.05802000e+06
13525.000000 3.01671000e+06
13575.000000 2.97940000e+06
13625.000000 2.94722000e+06
13675.000000 2.91000000e+06
13725.000000 2.86023000e+06
13775.000000 2.83713000e+06
13825.000000 2.80383000e+06
13875.000000 2.77485000e+06
13925.000000 2.73631000e+06
13975.000000 2.70635000e+06
14025.000000 2.67444000e+06
14075.000000 2.64407000e+06
14125.000000 2.61028000e+06
14175.000000 2.58121000e+06
14225.000000 2.54838000e+06
14275.000000 2.51725000e+06
14325.000000 2.49053000e+06
14375.000000 2.46284000e+06
14425.000000 2.40235000e+06
14475.000000 2.40448000e+06
14525.000000 2.36135000e+06
14570.000000 2.35016000e+06
14620.000000 2.31966000e+06
14675.000000 2.29583000e+06
14725.000000 2.26758000e+06
14775.000000 2.23638000e+06
14825.000000 2.21515000e+06
