# Kurucz ODFNEW /NOVER, alpha: 0.0 (2003)
# teff = 31000 K (value for the effective temperature for the model. Temperatures are given in K)
# logg = 5 log(cm/s2) (value for Log(G) for the model.)
# lh = 1.25  (l/Hp where l is the  mixing length of the convective element and Hp is the pressure scale height)
# meta = -0.5  (value for the Metallicity for the model.)
# vtur = 2 km/s (Microturbulence velocity)
# alpha = 0  (Alpha)
#
# column 1: WAVELENGTH (ANGSTROM), Wavelength in Angstrom
# column 2: FLUX (ERG/CM2/S/A), Flux in erg/cm2/s/A
147.200000 6.87969000e-08
151.000000 2.07721000e-07
155.200000 6.64073000e-07
158.800000 1.71816000e-06
162.000000 3.87223000e-06
166.000000 1.02590000e-05
170.300000 2.78435000e-05
173.400000 5.55856000e-05
176.800000 1.15465000e-04
180.200000 2.33565000e-04
181.700000 3.16082000e-04
186.100000 7.48113000e-04
191.000000 1.86635000e-03
193.900000 3.13791000e-03
198.400000 6.82232000e-03
201.800000 1.19930000e-02
205.000000 2.00489000e-02
210.500000 4.67997000e-02
216.200000 1.07629000e-01
219.800000 1.78134000e-01
223.000000 2.74951000e-01
226.800000 4.54237000e-01
230.000000 1.18524000e+02
234.000000 2.97993000e+02
240.000000 5.29148000e+02
246.500000 9.78803000e+02
252.400000 1.67266000e+03
256.800000 2.23046000e+03
260.000000 3.40048000e+03
264.000000 4.66593000e+03
268.500000 6.81478000e+03
273.500000 9.89640000e+03
278.500000 1.38418000e+04
284.000000 2.31065000e+04
290.000000 3.41198000e+04
296.000000 4.88885000e+04
301.000000 6.42138000e+04
308.000000 9.72204000e+04
318.000000 1.93945000e+05
328.000000 3.09661000e+05
338.000000 5.19700000e+05
348.000000 8.17050000e+05
357.000000 1.55260000e+06
366.000000 2.44381000e+06
375.000000 3.23753000e+06
385.000000 4.68494000e+06
395.000000 6.82978000e+06
405.000000 9.00981000e+06
414.000000 1.18470000e+07
422.000000 1.41685000e+07
430.000000 1.75555000e+07
441.000000 2.29004000e+07
451.000000 2.86546000e+07
460.000000 3.40249000e+07
470.000000 4.24004000e+07
480.000000 5.14847000e+07
490.000000 6.20780000e+07
500.000000 7.50656000e+07
506.000000 2.58435000e+08
512.000000 1.32004000e+09
520.000000 1.30982000e+09
530.000000 1.36020000e+09
540.000000 1.26322000e+09
550.000000 1.54328000e+09
560.000000 1.70922000e+09
570.000000 1.82776000e+09
580.000000 1.70928000e+09
590.000000 1.92066000e+09
600.000000 1.90824000e+09
610.000000 2.06477000e+09
620.000000 2.23666000e+09
630.000000 2.27832000e+09
640.000000 2.22956000e+09
650.000000 2.39181000e+09
658.000000 2.40396000e+09
665.000000 2.51096000e+09
675.000000 2.52873000e+09
685.000000 2.42701000e+09
695.000000 2.83476000e+09
705.000000 2.74786000e+09
716.000000 3.01453000e+09
726.000000 3.02176000e+09
735.000000 3.07297000e+09
745.000000 3.23043000e+09
755.000000 3.28038000e+09
765.000000 3.37594000e+09
775.000000 3.46757000e+09
785.000000 3.61082000e+09
795.000000 3.63994000e+09
805.000000 3.66855000e+09
815.000000 3.69178000e+09
825.000000 3.84824000e+09
835.000000 3.57605000e+09
845.000000 3.87163000e+09
855.000000 3.90688000e+09
865.000000 4.02481000e+09
875.000000 4.12804000e+09
885.000000 4.24682000e+09
895.000000 4.32515000e+09
905.000000 4.29877000e+09
915.000000 4.52494000e+09
925.000000 1.50401000e+10
935.000000 2.97354000e+10
945.000000 5.87606000e+10
955.000000 7.19608000e+10
965.000000 9.30511000e+10
975.000000 3.31185000e+10
985.000000 9.02116000e+10
995.000000 8.14362000e+10
1005.000000 8.70447000e+10
1015.000000 8.39996000e+10
1025.000000 4.08670000e+10
1035.000000 7.56782000e+10
1045.000000 9.24277000e+10
1055.000000 8.82705000e+10
1065.000000 7.64935000e+10
1075.000000 8.04950000e+10
1085.000000 7.22593000e+10
1095.000000 7.87910000e+10
1105.000000 7.46594000e+10
1115.000000 7.32171000e+10
1125.000000 6.31611000e+10
1135.000000 7.02179000e+10
1145.000000 6.47066000e+10
1155.000000 6.48420000e+10
1165.000000 6.30980000e+10
1175.000000 4.61257000e+10
1185.000000 5.81879000e+10
1195.000000 5.57170000e+10
1205.000000 4.93943000e+10
1215.000000 2.70714000e+10
1225.000000 4.87335000e+10
1235.000000 5.35247000e+10
1245.000000 5.18906000e+10
1255.000000 5.14736000e+10
1265.000000 5.14422000e+10
1275.000000 5.13453000e+10
1285.000000 5.05447000e+10
1295.000000 4.52630000e+10
1305.000000 4.58860000e+10
1315.000000 4.76961000e+10
1325.000000 4.54232000e+10
1335.000000 4.39420000e+10
1345.000000 4.34680000e+10
1355.000000 4.31284000e+10
1365.000000 4.10167000e+10
1375.000000 4.02609000e+10
1385.000000 3.92181000e+10
1395.000000 3.30863000e+10
1405.000000 3.37430000e+10
1415.000000 3.61033000e+10
1425.000000 3.38340000e+10
1435.000000 3.45971000e+10
1442.000000 3.48110000e+10
1447.000000 3.42200000e+10
1455.000000 3.31863000e+10
1465.000000 3.20678000e+10
1475.000000 3.16327000e+10
1485.000000 3.12474000e+10
1495.000000 3.03740000e+10
1505.000000 2.88473000e+10
1512.000000 2.76300000e+10
1517.000000 2.77691000e+10
1525.000000 2.74056000e+10
1535.000000 2.44627000e+10
1545.000000 2.33721000e+10
1555.000000 2.26534000e+10
1565.000000 2.37215000e+10
1575.000000 2.42960000e+10
1585.000000 2.41718000e+10
1595.000000 2.38978000e+10
1605.000000 2.28361000e+10
1615.000000 2.19966000e+10
1625.000000 2.21390000e+10
1635.000000 2.22481000e+10
1645.000000 2.15998000e+10
1655.000000 2.18966000e+10
1665.000000 2.15827000e+10
1672.000000 2.07178000e+10
1677.000000 2.20867000e+10
1685.000000 2.13414000e+10
1695.000000 2.06485000e+10
1705.000000 2.00584000e+10
1715.000000 1.93820000e+10
1725.000000 1.88135000e+10
1735.000000 1.91204000e+10
1745.000000 1.87695000e+10
1755.000000 1.85305000e+10
1765.000000 1.80696000e+10
1775.000000 1.75581000e+10
1785.000000 1.75393000e+10
1795.000000 1.73724000e+10
1805.000000 1.72776000e+10
1815.000000 1.65171000e+10
1825.000000 1.64395000e+10
1835.000000 1.61601000e+10
1845.000000 1.50436000e+10
1855.000000 1.50198000e+10
1865.000000 1.50888000e+10
1875.000000 1.50311000e+10
1885.000000 1.39953000e+10
1895.000000 1.33454000e+10
1905.000000 1.38368000e+10
1915.000000 1.33085000e+10
1925.000000 1.27050000e+10
1935.000000 1.31616000e+10
1945.000000 1.33044000e+10
1955.000000 1.22845000e+10
1967.000000 1.26862000e+10
1976.000000 1.30186000e+10
1984.000000 1.23109000e+10
1995.000000 1.19900000e+10
2005.000000 1.20965000e+10
2015.000000 1.20723000e+10
2025.000000 1.20893000e+10
2035.000000 1.14868000e+10
2045.000000 1.13694000e+10
2055.000000 1.03981000e+10
2065.000000 1.02332000e+10
2074.000000 1.04607000e+10
2078.000000 1.00637000e+10
2085.000000 1.01583000e+10
2095.000000 1.00263000e+10
2105.000000 1.04380000e+10
2115.000000 1.04398000e+10
2125.000000 1.03885000e+10
2135.000000 1.01963000e+10
2145.000000 9.92543000e+09
2155.000000 9.92925000e+09
2165.000000 9.74611000e+09
2175.000000 9.64634000e+09
2185.000000 9.46672000e+09
2195.000000 9.43070000e+09
2205.000000 9.28879000e+09
2215.000000 9.10221000e+09
2225.000000 8.99090000e+09
2235.000000 8.82842000e+09
2245.000000 8.74995000e+09
2255.000000 8.53990000e+09
2265.000000 8.50064000e+09
2275.000000 8.38313000e+09
2285.000000 8.24642000e+09
2295.000000 7.80564000e+09
2305.000000 7.95007000e+09
2315.000000 7.86677000e+09
2325.000000 7.76579000e+09
2335.000000 7.63032000e+09
2345.000000 7.57360000e+09
2355.000000 7.46391000e+09
2365.000000 7.36455000e+09
2375.000000 7.23521000e+09
2385.000000 7.08525000e+09
2395.000000 7.02161000e+09
2405.000000 6.94250000e+09
2415.000000 6.84185000e+09
2425.000000 6.76311000e+09
2435.000000 6.63651000e+09
2445.000000 6.56532000e+09
2455.000000 6.48757000e+09
2465.000000 6.40342000e+09
2475.000000 6.30811000e+09
2485.000000 6.21535000e+09
2495.000000 5.63888000e+09
2505.000000 6.01684000e+09
2513.000000 5.78728000e+09
2518.000000 5.88518000e+09
2525.000000 5.89513000e+09
2535.000000 5.82304000e+09
2545.000000 5.68716000e+09
2555.000000 5.63626000e+09
2565.000000 5.58118000e+09
2575.000000 5.51280000e+09
2585.000000 5.44757000e+09
2595.000000 5.37774000e+09
2605.000000 5.32954000e+09
2615.000000 5.25630000e+09
2625.000000 5.19440000e+09
2635.000000 5.12841000e+09
2645.000000 5.05352000e+09
2655.000000 4.99153000e+09
2665.000000 4.89298000e+09
2675.000000 4.83330000e+09
2685.000000 4.80713000e+09
2695.000000 4.68236000e+09
2705.000000 4.64925000e+09
2715.000000 4.60167000e+09
2725.000000 4.52808000e+09
2735.000000 4.47620000e+09
2745.000000 4.43749000e+09
2755.000000 4.39223000e+09
2765.000000 4.30341000e+09
2775.000000 4.29789000e+09
2785.000000 4.23799000e+09
2795.000000 4.12009000e+09
2805.000000 4.11365000e+09
2815.000000 4.09251000e+09
2825.000000 4.00529000e+09
2835.000000 3.92806000e+09
2845.000000 3.94662000e+09
2855.000000 3.88948000e+09
2865.000000 3.84577000e+09
2875.000000 3.80142000e+09
2885.000000 3.75723000e+09
2895.000000 3.71141000e+09
2910.000000 3.63863000e+09
2930.000000 3.56306000e+09
2950.000000 3.44890000e+09
2970.000000 3.39829000e+09
2990.000000 3.31493000e+09
3010.000000 3.22799000e+09
3030.000000 3.16688000e+09
3050.000000 3.10155000e+09
3070.000000 3.03793000e+09
3090.000000 2.94424000e+09
3110.000000 2.90221000e+09
3130.000000 2.83379000e+09
3150.000000 2.77373000e+09
3170.000000 2.71144000e+09
3190.000000 2.63538000e+09
3210.000000 2.59668000e+09
3230.000000 2.54137000e+09
3250.000000 2.49171000e+09
3270.000000 2.43782000e+09
3290.000000 2.38510000e+09
3310.000000 2.33913000e+09
3330.000000 2.28754000e+09
3350.000000 2.23896000e+09
3370.000000 2.19505000e+09
3390.000000 2.15398000e+09
3410.000000 2.11045000e+09
3430.000000 2.06122000e+09
3450.000000 2.01280000e+09
3470.000000 1.97665000e+09
3490.000000 1.93717000e+09
3510.000000 1.90143000e+09
3530.000000 1.86685000e+09
3550.000000 1.83072000e+09
3570.000000 1.80568000e+09
3590.000000 1.75396000e+09
3610.000000 1.72883000e+09
3630.000000 1.68959000e+09
3640.000000 1.68777000e+09
3650.000000 1.65170000e+09
3670.000000 1.62863000e+09
3690.000000 1.59948000e+09
3710.000000 1.54613000e+09
3730.000000 1.50349000e+09
3750.000000 1.47678000e+09
3770.000000 1.42775000e+09
3790.000000 1.46151000e+09
3810.000000 1.50517000e+09
3830.000000 1.33265000e+09
3850.000000 1.53025000e+09
3870.000000 1.54358000e+09
3890.000000 1.24627000e+09
3910.000000 1.51994000e+09
3930.000000 1.50344000e+09
3950.000000 1.46370000e+09
3970.000000 1.15415000e+09
3990.000000 1.40437000e+09
4010.000000 1.40802000e+09
4030.000000 1.32286000e+09
4050.000000 1.37368000e+09
4070.000000 1.32303000e+09
4090.000000 1.20641000e+09
4110.000000 1.07075000e+09
4130.000000 1.24898000e+09
4150.000000 1.24276000e+09
4170.000000 1.23570000e+09
4190.000000 1.21496000e+09
4210.000000 1.19852000e+09
4230.000000 1.17704000e+09
4250.000000 1.15018000e+09
4270.000000 1.12183000e+09
4290.000000 1.10662000e+09
4310.000000 1.07555000e+09
4330.000000 9.67116000e+08
4350.000000 8.87666000e+08
4370.000000 1.01976000e+09
4390.000000 9.91509000e+08
4410.000000 9.99641000e+08
4430.000000 9.88025000e+08
4450.000000 9.72182000e+08
4470.000000 9.11407000e+08
4490.000000 9.39427000e+08
4510.000000 9.28335000e+08
4530.000000 9.13547000e+08
4550.000000 8.96817000e+08
4570.000000 8.82743000e+08
4590.000000 8.67593000e+08
4610.000000 8.52618000e+08
4630.000000 8.38467000e+08
4650.000000 8.12976000e+08
4670.000000 8.12229000e+08
4690.000000 7.98620000e+08
4710.000000 7.75107000e+08
4730.000000 7.77053000e+08
4750.000000 7.63961000e+08
4770.000000 7.55813000e+08
4790.000000 7.43440000e+08
4810.000000 7.28754000e+08
4830.000000 7.10910000e+08
4850.000000 6.50894000e+08
4870.000000 5.85754000e+08
4890.000000 6.76998000e+08
4910.000000 6.73541000e+08
4930.000000 6.47875000e+08
4950.000000 6.55519000e+08
4970.000000 6.48485000e+08
4990.000000 6.38576000e+08
5010.000000 6.18074000e+08
5030.000000 6.19333000e+08
5050.000000 6.06815000e+08
5070.000000 6.01934000e+08
5090.000000 5.92778000e+08
5110.000000 5.83992000e+08
5130.000000 5.74795000e+08
5150.000000 5.66532000e+08
5170.000000 5.59000000e+08
5190.000000 5.51316000e+08
5210.000000 5.43344000e+08
5230.000000 5.35670000e+08
5250.000000 5.28084000e+08
5270.000000 5.20435000e+08
5290.000000 5.13316000e+08
5310.000000 5.06063000e+08
5330.000000 4.99023000e+08
5350.000000 4.91956000e+08
5370.000000 4.85320000e+08
5390.000000 4.78444000e+08
5410.000000 4.71386000e+08
5430.000000 4.65493000e+08
5450.000000 4.59000000e+08
5470.000000 4.52754000e+08
5490.000000 4.46599000e+08
5510.000000 4.40707000e+08
5530.000000 4.34581000e+08
5550.000000 4.28923000e+08
5570.000000 4.23128000e+08
5590.000000 4.17490000e+08
5610.000000 4.11945000e+08
5630.000000 4.06515000e+08
5650.000000 4.00893000e+08
5670.000000 3.95081000e+08
5690.000000 3.88888000e+08
5710.000000 3.85013000e+08
5730.000000 3.80196000e+08
5750.000000 3.74696000e+08
5770.000000 3.70586000e+08
5790.000000 3.65671000e+08
5810.000000 3.60981000e+08
5830.000000 3.56048000e+08
5850.000000 3.51658000e+08
5870.000000 3.35862000e+08
5890.000000 3.40991000e+08
5910.000000 3.38223000e+08
5930.000000 3.33835000e+08
5950.000000 3.29615000e+08
5970.000000 3.25994000e+08
5990.000000 3.21584000e+08
6010.000000 3.17799000e+08
6030.000000 3.13685000e+08
6050.000000 3.09895000e+08
6070.000000 3.06190000e+08
6090.000000 3.02415000e+08
6110.000000 2.98702000e+08
6130.000000 2.95082000e+08
6150.000000 2.91144000e+08
6170.000000 2.87726000e+08
6190.000000 2.84375000e+08
6210.000000 2.80983000e+08
6230.000000 2.77610000e+08
6250.000000 2.74148000e+08
6270.000000 2.70936000e+08
6290.000000 2.67730000e+08
6310.000000 2.64493000e+08
6330.000000 2.61405000e+08
6350.000000 2.58210000e+08
6370.000000 2.55254000e+08
6390.000000 2.52220000e+08
6410.000000 2.49264000e+08
6430.000000 2.46376000e+08
6450.000000 2.43483000e+08
6470.000000 2.40360000e+08
6490.000000 2.37638000e+08
6510.000000 2.34598000e+08
6530.000000 2.30645000e+08
6550.000000 2.18885000e+08
6570.000000 1.94819000e+08
6590.000000 2.20574000e+08
6610.000000 2.21017000e+08
6630.000000 2.19266000e+08
6650.000000 2.16901000e+08
6670.000000 2.12003000e+08
6690.000000 2.09711000e+08
6710.000000 2.09709000e+08
6730.000000 2.07200000e+08
6750.000000 2.05081000e+08
6770.000000 2.02811000e+08
6790.000000 2.00131000e+08
6810.000000 1.98267000e+08
6830.000000 1.96065000e+08
6850.000000 1.93959000e+08
6870.000000 1.91825000e+08
6890.000000 1.89634000e+08
6910.000000 1.87489000e+08
6930.000000 1.85608000e+08
6950.000000 1.83597000e+08
6970.000000 1.81607000e+08
6990.000000 1.79636000e+08
7010.000000 1.77700000e+08
7030.000000 1.75768000e+08
7050.000000 1.73893000e+08
7070.000000 1.69353000e+08
7090.000000 1.70205000e+08
7110.000000 1.68362000e+08
7130.000000 1.66589000e+08
7150.000000 1.64841000e+08
7170.000000 1.63087000e+08
7190.000000 1.61386000e+08
7210.000000 1.59688000e+08
7230.000000 1.57033000e+08
7250.000000 1.56268000e+08
7270.000000 1.54732000e+08
7290.000000 1.51899000e+08
7310.000000 1.51521000e+08
7330.000000 1.49959000e+08
7350.000000 1.48418000e+08
7370.000000 1.46900000e+08
7390.000000 1.45395000e+08
7410.000000 1.43905000e+08
7430.000000 1.42435000e+08
7450.000000 1.40999000e+08
7470.000000 1.39394000e+08
7490.000000 1.38127000e+08
7510.000000 1.36718000e+08
7530.000000 1.35355000e+08
7550.000000 1.34017000e+08
7570.000000 1.32672000e+08
7590.000000 1.31346000e+08
7610.000000 1.29974000e+08
7630.000000 1.28737000e+08
7650.000000 1.27459000e+08
7670.000000 1.26200000e+08
7690.000000 1.24952000e+08
7710.000000 1.23715000e+08
7730.000000 1.22489000e+08
7750.000000 1.21306000e+08
7770.000000 1.20071000e+08
7790.000000 1.18952000e+08
7810.000000 1.17745000e+08
7830.000000 1.16646000e+08
7850.000000 1.15600000e+08
7870.000000 1.14430000e+08
7890.000000 1.13257000e+08
7910.000000 1.12288000e+08
7930.000000 1.11177000e+08
7950.000000 1.10135000e+08
7970.000000 1.09026000e+08
7990.000000 1.08020000e+08
8010.000000 1.06994000e+08
8030.000000 1.05936000e+08
8050.000000 1.04916000e+08
8070.000000 1.03940000e+08
8090.000000 1.02805000e+08
8110.000000 1.01726000e+08
8130.000000 1.01038000e+08
8150.000000 1.00021000e+08
8170.000000 9.91647000e+07
8190.000000 9.80239000e+07
8210.000000 9.69712000e+07
8230.000000 9.61612000e+07
8250.000000 9.54021000e+07
8270.000000 9.40765000e+07
8290.000000 9.36286000e+07
8310.000000 9.28238000e+07
8330.000000 9.19280000e+07
8350.000000 9.07587000e+07
8370.000000 9.01588000e+07
8390.000000 8.94726000e+07
8410.000000 8.86480000e+07
8430.000000 8.78197000e+07
8450.000000 8.65234000e+07
8470.000000 8.62570000e+07
8490.000000 8.53232000e+07
8510.000000 8.46522000e+07
8530.000000 8.37379000e+07
8550.000000 8.29652000e+07
8570.000000 8.25477000e+07
8590.000000 8.05657000e+07
8610.000000 8.05527000e+07
8630.000000 8.06400000e+07
8650.000000 7.89132000e+07
8670.000000 7.70861000e+07
8690.000000 7.84677000e+07
8710.000000 7.83759000e+07
8730.000000 7.63020000e+07
8750.000000 7.26273000e+07
8770.000000 7.42753000e+07
8790.000000 7.58685000e+07
8810.000000 7.56215000e+07
8830.000000 7.44289000e+07
8850.000000 7.03603000e+07
8870.000000 6.72327000e+07
8890.000000 7.16687000e+07
8910.000000 7.25052000e+07
8930.000000 7.21949000e+07
8950.000000 7.17363000e+07
8970.000000 7.08034000e+07
8990.000000 6.84051000e+07
9010.000000 6.23983000e+07
9030.000000 6.42244000e+07
9050.000000 6.76252000e+07
9070.000000 6.73548000e+07
9090.000000 6.75511000e+07
9110.000000 6.72776000e+07
9130.000000 6.67526000e+07
9150.000000 6.61327000e+07
9170.000000 6.52666000e+07
9190.000000 6.42691000e+07
9210.000000 6.10102000e+07
9230.000000 5.50858000e+07
9250.000000 5.98981000e+07
9270.000000 6.19941000e+07
9290.000000 6.21596000e+07
9310.000000 6.16103000e+07
9330.000000 6.13940000e+07
9350.000000 6.09550000e+07
9370.000000 6.05449000e+07
9390.000000 6.00565000e+07
9410.000000 5.95505000e+07
9430.000000 5.90567000e+07
9450.000000 5.84695000e+07
9470.000000 5.75674000e+07
9490.000000 5.72330000e+07
9510.000000 5.57429000e+07
9530.000000 5.28005000e+07
9550.000000 4.78334000e+07
9570.000000 5.30470000e+07
9590.000000 5.45218000e+07
9610.000000 5.44461000e+07
9630.000000 5.40048000e+07
9650.000000 5.39956000e+07
9670.000000 5.36073000e+07
9690.000000 5.31335000e+07
9710.000000 5.25432000e+07
9730.000000 5.23354000e+07
9750.000000 5.19228000e+07
9770.000000 5.15131000e+07
9790.000000 5.11063000e+07
9810.000000 5.06906000e+07
9830.000000 5.03091000e+07
9850.000000 4.99031000e+07
9870.000000 4.95077000e+07
9890.000000 4.90997000e+07
9910.000000 4.85795000e+07
9930.000000 4.83687000e+07
9950.000000 4.79424000e+07
9970.000000 4.74622000e+07
9990.000000 4.69590000e+07
10025.000000 4.40714000e+07
10075.000000 4.26367000e+07
10125.000000 4.45061000e+07
10175.000000 4.40043000e+07
10225.000000 4.31642000e+07
10275.000000 4.23740000e+07
10325.000000 4.13956000e+07
10375.000000 4.08121000e+07
10425.000000 4.00576000e+07
10475.000000 3.93190000e+07
10525.000000 3.85961000e+07
10575.000000 3.78951000e+07
10625.000000 3.72089000e+07
10675.000000 3.64644000e+07
10725.000000 3.58796000e+07
10775.000000 3.52359000e+07
10825.000000 3.42327000e+07
10875.000000 3.37435000e+07
10925.000000 3.03569000e+07
10975.000000 3.16801000e+07
11025.000000 3.19482000e+07
11075.000000 3.16174000e+07
11125.000000 3.11177000e+07
11175.000000 3.05805000e+07
11225.000000 3.00395000e+07
11275.000000 2.95378000e+07
11325.000000 2.90253000e+07
11375.000000 2.85406000e+07
11425.000000 2.80547000e+07
11475.000000 2.75864000e+07
11525.000000 2.71244000e+07
11575.000000 2.66662000e+07
11625.000000 2.62243000e+07
11675.000000 2.57832000e+07
11725.000000 2.53670000e+07
11775.000000 2.49496000e+07
11825.000000 2.45411000e+07
11875.000000 2.41414000e+07
11925.000000 2.37492000e+07
11975.000000 2.30650000e+07
12025.000000 2.29887000e+07
12075.000000 2.26202000e+07
12125.000000 2.22585000e+07
12175.000000 2.19042000e+07
12225.000000 2.15571000e+07
12275.000000 2.12168000e+07
12325.000000 2.08830000e+07
12375.000000 2.05555000e+07
12425.000000 2.02352000e+07
12475.000000 1.99174000e+07
12525.000000 1.95663000e+07
12575.000000 1.93067000e+07
12625.000000 1.90101000e+07
12675.000000 1.87216000e+07
12725.000000 1.83833000e+07
12775.000000 1.77076000e+07
12825.000000 1.62310000e+07
12875.000000 1.73861000e+07
12925.000000 1.73080000e+07
12975.000000 1.69415000e+07
13025.000000 1.68296000e+07
13075.000000 1.65830000e+07
