# Kurucz ODFNEW /NOVER, alpha: 0.0 (2003)
# teff = 22000 K (value for the effective temperature for the model. Temperatures are given in K)
# logg = 4 log(cm/s2) (value for Log(G) for the model.)
# lh = 1.25  (l/Hp where l is the  mixing length of the convective element and Hp is the pressure scale height)
# meta = 0.2  (value for the Metallicity for the model.)
# vtur = 2 km/s (Microturbulence velocity)
# alpha = 0  (Alpha)
#
# column 1: WAVELENGTH (ANGSTROM), Wavelength in Angstrom
# column 2: FLUX (ERG/CM2/S/A), Flux in erg/cm2/s/A
147.200000 1.97407000e-17
151.000000 9.88475000e-17
155.200000 5.37527000e-16
158.800000 2.14602000e-15
162.000000 7.00561000e-15
166.000000 2.89465000e-14
170.300000 1.23853000e-13
173.400000 3.39949000e-13
176.800000 9.89025000e-13
180.200000 2.77396000e-12
181.700000 4.31822000e-12
186.100000 1.52560000e-11
191.000000 5.84142000e-11
193.900000 1.25442000e-10
198.400000 3.94143000e-10
201.800000 9.07131000e-10
205.000000 1.94142000e-09
210.500000 6.82598000e-09
216.200000 2.35697000e-08
219.800000 4.99568000e-08
223.000000 9.55289000e-08
226.800000 2.01664000e-07
230.000000 5.55822000e-06
234.000000 1.35140000e-05
240.000000 3.62478000e-05
246.500000 9.98023000e-05
252.400000 2.42084000e-04
256.800000 4.40076000e-04
260.000000 7.20802000e-04
264.000000 1.22949000e-03
268.500000 2.20141000e-03
273.500000 4.09510000e-03
278.500000 7.52174000e-03
284.000000 1.46388000e-02
290.000000 2.84608000e-02
296.000000 5.39278000e-02
301.000000 8.97862000e-02
308.000000 1.79902000e-01
318.000000 4.71117000e-01
328.000000 1.10595000e+00
338.000000 2.57347000e+00
348.000000 5.56801000e+00
357.000000 1.30785000e+01
366.000000 2.49212000e+01
375.000000 4.35332000e+01
385.000000 8.03300000e+01
395.000000 1.45247000e+02
405.000000 2.49752000e+02
414.000000 4.02323000e+02
422.000000 5.94719000e+02
430.000000 8.83633000e+02
441.000000 1.46491000e+03
451.000000 2.25518000e+03
460.000000 3.25223000e+03
470.000000 4.88128000e+03
480.000000 7.12352000e+03
490.000000 1.03186000e+04
500.000000 1.46447000e+04
506.000000 8.93459000e+04
512.000000 8.95822000e+05
520.000000 1.09116000e+06
530.000000 1.42953000e+06
540.000000 1.62526000e+06
550.000000 2.40870000e+06
560.000000 2.87388000e+06
570.000000 3.65366000e+06
580.000000 3.61600000e+06
590.000000 4.92346000e+06
600.000000 5.90942000e+06
610.000000 7.24989000e+06
620.000000 8.14202000e+06
630.000000 9.13604000e+06
640.000000 9.00269000e+06
650.000000 6.90578000e+06
658.000000 1.11384000e+07
665.000000 1.35758000e+07
675.000000 1.50402000e+07
685.000000 1.62004000e+07
695.000000 2.05139000e+07
705.000000 2.18378000e+07
716.000000 2.49844000e+07
726.000000 2.68619000e+07
735.000000 2.86300000e+07
745.000000 3.30204000e+07
755.000000 3.62741000e+07
765.000000 3.99057000e+07
775.000000 4.38126000e+07
785.000000 4.77000000e+07
795.000000 5.05429000e+07
805.000000 5.38284000e+07
815.000000 5.70234000e+07
825.000000 6.28893000e+07
835.000000 6.03059000e+07
845.000000 6.83049000e+07
855.000000 7.18750000e+07
865.000000 7.78709000e+07
875.000000 8.43087000e+07
885.000000 9.23323000e+07
895.000000 9.80877000e+07
905.000000 9.77305000e+07
915.000000 1.54031000e+08
925.000000 1.03901000e+09
935.000000 2.96704000e+09
945.000000 7.26101000e+09
955.000000 1.09001000e+10
965.000000 1.27806000e+10
975.000000 1.68759000e+09
985.000000 1.07638000e+10
995.000000 1.15071000e+10
1005.000000 1.47943000e+10
1015.000000 1.45521000e+10
1025.000000 5.70137000e+09
1035.000000 9.88927000e+09
1045.000000 1.86736000e+10
1055.000000 1.72374000e+10
1065.000000 1.30291000e+10
1075.000000 1.60367000e+10
1085.000000 1.37939000e+10
1095.000000 1.62861000e+10
1105.000000 1.40701000e+10
1115.000000 1.29068000e+10
1125.000000 1.06855000e+10
1135.000000 1.49899000e+10
1145.000000 1.30913000e+10
1155.000000 1.38430000e+10
1165.000000 1.38531000e+10
1175.000000 8.03789000e+09
1185.000000 1.35491000e+10
1195.000000 1.11099000e+10
1205.000000 5.83142000e+09
1215.000000 4.52823000e+09
1225.000000 1.02568000e+10
1235.000000 1.33113000e+10
1245.000000 1.31282000e+10
1255.000000 1.28268000e+10
1265.000000 1.26672000e+10
1275.000000 1.32206000e+10
1285.000000 1.32816000e+10
1295.000000 7.95770000e+09
1305.000000 8.33770000e+09
1315.000000 1.26300000e+10
1325.000000 1.15991000e+10
1335.000000 1.06135000e+10
1345.000000 1.16909000e+10
1355.000000 1.13452000e+10
1365.000000 9.95230000e+09
1375.000000 9.81663000e+09
1385.000000 9.67951000e+09
1395.000000 7.20694000e+09
1405.000000 7.83641000e+09
1415.000000 8.33171000e+09
1425.000000 8.48586000e+09
1435.000000 8.71945000e+09
1442.000000 9.02543000e+09
1447.000000 8.83614000e+09
1455.000000 8.55915000e+09
1465.000000 7.73566000e+09
1475.000000 7.95476000e+09
1485.000000 7.82373000e+09
1495.000000 7.68739000e+09
1505.000000 6.86255000e+09
1512.000000 6.01098000e+09
1517.000000 6.28900000e+09
1525.000000 6.59318000e+09
1535.000000 5.55767000e+09
1545.000000 5.49574000e+09
1555.000000 5.34037000e+09
1565.000000 5.71502000e+09
1575.000000 6.10907000e+09
1585.000000 6.18939000e+09
1595.000000 6.11646000e+09
1605.000000 6.27228000e+09
1615.000000 6.20987000e+09
1625.000000 5.98202000e+09
1635.000000 6.42697000e+09
1645.000000 6.39167000e+09
1655.000000 6.17368000e+09
1665.000000 6.50553000e+09
1672.000000 6.19055000e+09
1677.000000 6.58556000e+09
1685.000000 6.53207000e+09
1695.000000 6.09253000e+09
1705.000000 5.86472000e+09
1715.000000 5.48361000e+09
1725.000000 5.42085000e+09
1735.000000 5.74626000e+09
1745.000000 5.52445000e+09
1755.000000 5.64478000e+09
1765.000000 5.42016000e+09
1775.000000 5.15694000e+09
1785.000000 5.27715000e+09
1795.000000 5.54567000e+09
1805.000000 5.61124000e+09
1815.000000 4.84992000e+09
1825.000000 5.14518000e+09
1835.000000 4.90085000e+09
1845.000000 4.43849000e+09
1855.000000 4.35869000e+09
1865.000000 4.44952000e+09
1875.000000 4.86521000e+09
1885.000000 4.24947000e+09
1895.000000 3.93124000e+09
1905.000000 4.35992000e+09
1915.000000 3.99286000e+09
1925.000000 3.82115000e+09
1935.000000 4.09186000e+09
1945.000000 4.15505000e+09
1955.000000 3.73760000e+09
1967.000000 4.14880000e+09
1976.000000 4.31409000e+09
1984.000000 3.97033000e+09
1995.000000 3.88436000e+09
2005.000000 4.09161000e+09
2015.000000 3.96073000e+09
2025.000000 4.16480000e+09
2035.000000 3.73880000e+09
2045.000000 3.85934000e+09
2055.000000 3.72302000e+09
2065.000000 3.71691000e+09
2074.000000 3.95877000e+09
2078.000000 3.49031000e+09
2085.000000 3.74699000e+09
2095.000000 3.50874000e+09
2105.000000 3.62937000e+09
2115.000000 3.65029000e+09
2125.000000 3.68510000e+09
2135.000000 3.59784000e+09
2145.000000 3.40528000e+09
2155.000000 3.58013000e+09
2165.000000 3.56457000e+09
2175.000000 3.52319000e+09
2185.000000 3.36934000e+09
2195.000000 3.45326000e+09
2205.000000 3.41643000e+09
2215.000000 3.33466000e+09
2225.000000 3.22965000e+09
2235.000000 3.23807000e+09
2245.000000 3.25757000e+09
2255.000000 3.11510000e+09
2265.000000 3.19729000e+09
2275.000000 3.15577000e+09
2285.000000 3.17280000e+09
2295.000000 2.93221000e+09
2305.000000 3.04084000e+09
2315.000000 2.92486000e+09
2325.000000 2.88386000e+09
2335.000000 2.75757000e+09
2345.000000 2.76815000e+09
2355.000000 2.78450000e+09
2365.000000 2.73056000e+09
2375.000000 2.70120000e+09
2385.000000 2.65972000e+09
2395.000000 2.68064000e+09
2405.000000 2.58473000e+09
2415.000000 2.59721000e+09
2425.000000 2.60524000e+09
2435.000000 2.50320000e+09
2445.000000 2.53784000e+09
2455.000000 2.54290000e+09
2465.000000 2.47984000e+09
2475.000000 2.43727000e+09
2485.000000 2.43319000e+09
2495.000000 2.23961000e+09
2505.000000 2.37894000e+09
2513.000000 2.24433000e+09
2518.000000 2.34957000e+09
2525.000000 2.28202000e+09
2535.000000 2.25133000e+09
2545.000000 2.17190000e+09
2555.000000 2.23267000e+09
2565.000000 2.19869000e+09
2575.000000 2.22391000e+09
2585.000000 2.20178000e+09
2595.000000 2.18216000e+09
2605.000000 2.16033000e+09
2615.000000 2.13458000e+09
2625.000000 2.11671000e+09
2635.000000 2.10344000e+09
2645.000000 2.10178000e+09
2655.000000 2.09715000e+09
2665.000000 2.00702000e+09
2675.000000 2.02984000e+09
2685.000000 2.01669000e+09
2695.000000 1.94718000e+09
2705.000000 1.92205000e+09
2715.000000 1.91333000e+09
2725.000000 1.89861000e+09
2735.000000 1.90384000e+09
2745.000000 1.82559000e+09
2755.000000 1.82567000e+09
2765.000000 1.81579000e+09
2775.000000 1.83849000e+09
2785.000000 1.80831000e+09
2795.000000 1.73742000e+09
2805.000000 1.76332000e+09
2815.000000 1.76593000e+09
2825.000000 1.73844000e+09
2835.000000 1.66038000e+09
2845.000000 1.68080000e+09
2855.000000 1.66438000e+09
2865.000000 1.67550000e+09
2875.000000 1.65293000e+09
2885.000000 1.63660000e+09
2895.000000 1.61358000e+09
2910.000000 1.58929000e+09
2930.000000 1.56025000e+09
2950.000000 1.51397000e+09
2970.000000 1.49818000e+09
2990.000000 1.46362000e+09
3010.000000 1.42274000e+09
3030.000000 1.41859000e+09
3050.000000 1.39085000e+09
3070.000000 1.36659000e+09
3090.000000 1.32205000e+09
3110.000000 1.30904000e+09
3130.000000 1.28294000e+09
3150.000000 1.26081000e+09
3170.000000 1.22805000e+09
3190.000000 1.19970000e+09
3210.000000 1.18798000e+09
3230.000000 1.16403000e+09
3250.000000 1.14540000e+09
3270.000000 1.12266000e+09
3290.000000 1.10077000e+09
3310.000000 1.08293000e+09
3330.000000 1.06110000e+09
3350.000000 1.04108000e+09
3370.000000 1.02236000e+09
3390.000000 1.00607000e+09
3410.000000 9.88307000e+08
3430.000000 9.64935000e+08
3450.000000 9.44379000e+08
3470.000000 9.29582000e+08
3490.000000 9.12247000e+08
3510.000000 8.98578000e+08
3530.000000 8.87004000e+08
3550.000000 8.71657000e+08
3570.000000 8.60853000e+08
3590.000000 8.35533000e+08
3610.000000 8.21675000e+08
3630.000000 8.11045000e+08
3640.000000 8.10803000e+08
3650.000000 7.93387000e+08
3670.000000 7.84903000e+08
3690.000000 7.67370000e+08
3710.000000 7.39768000e+08
3730.000000 7.12821000e+08
3750.000000 7.61764000e+08
3770.000000 7.64279000e+08
3790.000000 8.07796000e+08
3810.000000 8.43742000e+08
3830.000000 7.32456000e+08
3850.000000 8.61553000e+08
3870.000000 8.60595000e+08
3890.000000 6.93355000e+08
3910.000000 8.59316000e+08
3930.000000 8.29981000e+08
3950.000000 8.26161000e+08
3970.000000 6.44323000e+08
3990.000000 7.93304000e+08
4010.000000 7.92181000e+08
4030.000000 7.43234000e+08
4050.000000 7.69169000e+08
4070.000000 7.36702000e+08
4090.000000 6.86297000e+08
4110.000000 6.03384000e+08
4130.000000 6.98423000e+08
4150.000000 6.95120000e+08
4170.000000 6.92065000e+08
4190.000000 6.86482000e+08
4210.000000 6.79784000e+08
4230.000000 6.64802000e+08
4250.000000 6.48965000e+08
4270.000000 6.28664000e+08
4290.000000 6.25539000e+08
4310.000000 6.07599000e+08
4330.000000 5.52609000e+08
4350.000000 5.03998000e+08
4370.000000 5.75681000e+08
4390.000000 5.66381000e+08
4410.000000 5.68501000e+08
4430.000000 5.60595000e+08
4450.000000 5.55282000e+08
4470.000000 5.24701000e+08
4490.000000 5.35398000e+08
4510.000000 5.33197000e+08
4530.000000 5.22662000e+08
4550.000000 5.16184000e+08
4570.000000 5.07870000e+08
4590.000000 4.99985000e+08
4610.000000 4.88583000e+08
4630.000000 4.80681000e+08
4650.000000 4.69986000e+08
4670.000000 4.68457000e+08
4690.000000 4.64607000e+08
4710.000000 4.45759000e+08
4730.000000 4.45264000e+08
4750.000000 4.38918000e+08
4770.000000 4.39285000e+08
4790.000000 4.31076000e+08
4810.000000 4.21181000e+08
4830.000000 4.13954000e+08
4850.000000 3.83656000e+08
4870.000000 3.40769000e+08
4890.000000 3.96752000e+08
4910.000000 3.93386000e+08
4930.000000 3.78467000e+08
4950.000000 3.82534000e+08
4970.000000 3.79217000e+08
4990.000000 3.72734000e+08
5010.000000 3.55835000e+08
5030.000000 3.61082000e+08
5050.000000 3.51063000e+08
5070.000000 3.52182000e+08
5090.000000 3.46817000e+08
5110.000000 3.40789000e+08
5130.000000 3.32497000e+08
5150.000000 3.29053000e+08
5170.000000 3.28006000e+08
5190.000000 3.23707000e+08
5210.000000 3.16646000e+08
5230.000000 3.14656000e+08
5250.000000 3.10678000e+08
5270.000000 3.05747000e+08
5290.000000 3.02632000e+08
5310.000000 2.98138000e+08
5330.000000 2.93889000e+08
5350.000000 2.89103000e+08
5370.000000 2.86876000e+08
5390.000000 2.82896000e+08
5410.000000 2.79264000e+08
5430.000000 2.74681000e+08
5450.000000 2.71273000e+08
5470.000000 2.67568000e+08
5490.000000 2.64597000e+08
5510.000000 2.61501000e+08
5530.000000 2.57703000e+08
5550.000000 2.55006000e+08
5570.000000 2.51417000e+08
5590.000000 2.48596000e+08
5610.000000 2.44972000e+08
5630.000000 2.42438000e+08
5650.000000 2.36972000e+08
5670.000000 2.33463000e+08
5690.000000 2.30847000e+08
5710.000000 2.29499000e+08
5730.000000 2.26890000e+08
5750.000000 2.23685000e+08
5770.000000 2.21741000e+08
5790.000000 2.18840000e+08
5810.000000 2.16109000e+08
5830.000000 2.13088000e+08
5850.000000 2.10742000e+08
5870.000000 2.01666000e+08
5890.000000 2.03285000e+08
5910.000000 2.02537000e+08
5930.000000 1.99909000e+08
5950.000000 1.96939000e+08
5970.000000 1.95992000e+08
5990.000000 1.92806000e+08
6010.000000 1.91222000e+08
6030.000000 1.88629000e+08
6050.000000 1.86561000e+08
6070.000000 1.84526000e+08
6090.000000 1.82239000e+08
6110.000000 1.80170000e+08
6130.000000 1.78194000e+08
6150.000000 1.74846000e+08
6170.000000 1.73586000e+08
6190.000000 1.71886000e+08
6210.000000 1.69969000e+08
6230.000000 1.68006000e+08
6250.000000 1.65486000e+08
6270.000000 1.63915000e+08
6290.000000 1.62131000e+08
6310.000000 1.60102000e+08
6330.000000 1.58547000e+08
6350.000000 1.55840000e+08
6370.000000 1.54510000e+08
6390.000000 1.53009000e+08
6410.000000 1.51304000e+08
6430.000000 1.49845000e+08
6450.000000 1.48020000e+08
6470.000000 1.45901000e+08
6490.000000 1.44430000e+08
6510.000000 1.42869000e+08
6530.000000 1.40696000e+08
6550.000000 1.34306000e+08
6570.000000 1.17937000e+08
6590.000000 1.34182000e+08
6610.000000 1.34923000e+08
6630.000000 1.33862000e+08
6650.000000 1.32470000e+08
6670.000000 1.29695000e+08
6690.000000 1.28357000e+08
6710.000000 1.28270000e+08
6730.000000 1.26694000e+08
6750.000000 1.25589000e+08
6770.000000 1.24248000e+08
6790.000000 1.21687000e+08
6810.000000 1.21330000e+08
6830.000000 1.20104000e+08
6850.000000 1.18970000e+08
6870.000000 1.17712000e+08
6890.000000 1.16410000e+08
6910.000000 1.15154000e+08
6930.000000 1.13917000e+08
6950.000000 1.12849000e+08
6970.000000 1.11683000e+08
6990.000000 1.10482000e+08
7010.000000 1.09323000e+08
7030.000000 1.08191000e+08
7050.000000 1.06980000e+08
7070.000000 1.04061000e+08
7090.000000 1.04817000e+08
7110.000000 1.02968000e+08
7130.000000 1.01991000e+08
7150.000000 1.01547000e+08
7170.000000 1.00629000e+08
7190.000000 9.96623000e+07
7210.000000 9.86536000e+07
7230.000000 9.59969000e+07
7250.000000 9.65287000e+07
7270.000000 9.56776000e+07
7290.000000 9.39057000e+07
7310.000000 9.37521000e+07
7330.000000 9.28135000e+07
7350.000000 9.19255000e+07
7370.000000 9.10181000e+07
7390.000000 9.01122000e+07
7410.000000 8.92216000e+07
7430.000000 8.82506000e+07
7450.000000 8.74448000e+07
7470.000000 8.63426000e+07
7490.000000 8.57008000e+07
7510.000000 8.48441000e+07
7530.000000 8.40087000e+07
7550.000000 8.32734000e+07
7570.000000 8.24789000e+07
7590.000000 8.16525000e+07
7610.000000 8.08531000e+07
7630.000000 8.00997000e+07
7650.000000 7.93467000e+07
7670.000000 7.85812000e+07
7690.000000 7.78226000e+07
7710.000000 7.70835000e+07
7730.000000 7.63321000e+07
7750.000000 7.56313000e+07
7770.000000 7.43376000e+07
7790.000000 7.42109000e+07
7810.000000 7.34608000e+07
7830.000000 7.28279000e+07
7850.000000 7.20415000e+07
7870.000000 7.13717000e+07
7890.000000 7.05081000e+07
7910.000000 7.01218000e+07
7930.000000 6.94451000e+07
7950.000000 6.85775000e+07
7970.000000 6.80499000e+07
7990.000000 6.72317000e+07
8010.000000 6.68083000e+07
8030.000000 6.61896000e+07
8050.000000 6.55937000e+07
8070.000000 6.50492000e+07
8090.000000 6.43423000e+07
8110.000000 6.37275000e+07
8130.000000 6.33231000e+07
8150.000000 6.26781000e+07
8170.000000 6.22418000e+07
8190.000000 6.15001000e+07
8210.000000 6.07369000e+07
8230.000000 6.02029000e+07
8250.000000 5.99225000e+07
8270.000000 5.89389000e+07
8290.000000 5.87919000e+07
8310.000000 5.82911000e+07
8330.000000 5.77889000e+07
8350.000000 5.69613000e+07
8370.000000 5.66141000e+07
8390.000000 5.62589000e+07
8410.000000 5.57413000e+07
8430.000000 5.51749000e+07
8450.000000 5.40804000e+07
8470.000000 5.41036000e+07
8490.000000 5.36034000e+07
8510.000000 5.29200000e+07
8530.000000 5.28067000e+07
8550.000000 5.13066000e+07
8570.000000 5.26175000e+07
8590.000000 5.01611000e+07
8610.000000 5.00112000e+07
8630.000000 5.18126000e+07
8650.000000 5.01051000e+07
8670.000000 4.65664000e+07
8690.000000 5.04810000e+07
8710.000000 5.08751000e+07
8730.000000 4.91287000e+07
8750.000000 4.39892000e+07
8770.000000 4.75922000e+07
8790.000000 4.94169000e+07
8810.000000 4.92316000e+07
8830.000000 4.84919000e+07
8850.000000 4.51743000e+07
8870.000000 4.16080000e+07
8890.000000 4.67641000e+07
8910.000000 4.71955000e+07
8930.000000 4.68426000e+07
8950.000000 4.66768000e+07
8970.000000 4.61701000e+07
8990.000000 4.47120000e+07
9010.000000 3.94266000e+07
9030.000000 4.15941000e+07
9050.000000 4.42756000e+07
9070.000000 4.38489000e+07
9090.000000 4.38348000e+07
9110.000000 4.37497000e+07
9130.000000 4.34484000e+07
9150.000000 4.30616000e+07
9170.000000 4.24855000e+07
9190.000000 4.20260000e+07
9210.000000 3.99753000e+07
9230.000000 3.49791000e+07
9250.000000 3.92913000e+07
9270.000000 4.02547000e+07
9290.000000 4.05439000e+07
9310.000000 4.01125000e+07
9330.000000 3.99438000e+07
9350.000000 3.96955000e+07
9370.000000 3.94104000e+07
9390.000000 3.90948000e+07
9410.000000 3.86246000e+07
9430.000000 3.84720000e+07
9450.000000 3.81562000e+07
9470.000000 3.75369000e+07
9490.000000 3.74144000e+07
9510.000000 3.65678000e+07
9530.000000 3.48005000e+07
9550.000000 3.08930000e+07
9570.000000 3.50795000e+07
9590.000000 3.58107000e+07
9610.000000 3.55643000e+07
9630.000000 3.51535000e+07
9650.000000 3.52770000e+07
9670.000000 3.49817000e+07
9690.000000 3.46838000e+07
9710.000000 3.43301000e+07
9730.000000 3.41911000e+07
9750.000000 3.39079000e+07
9770.000000 3.36662000e+07
9790.000000 3.34023000e+07
9810.000000 3.31300000e+07
9830.000000 3.28795000e+07
9850.000000 3.26355000e+07
9870.000000 3.23645000e+07
9890.000000 3.20843000e+07
9910.000000 3.16707000e+07
9930.000000 3.16513000e+07
9950.000000 3.14025000e+07
9970.000000 3.11140000e+07
9990.000000 3.08321000e+07
10025.000000 2.91032000e+07
10075.000000 2.80691000e+07
10125.000000 2.92051000e+07
10175.000000 2.88497000e+07
10225.000000 2.83149000e+07
10275.000000 2.78084000e+07
10325.000000 2.71842000e+07
10375.000000 2.68070000e+07
10425.000000 2.63241000e+07
10475.000000 2.58482000e+07
10525.000000 2.53719000e+07
10575.000000 2.49298000e+07
10625.000000 2.44908000e+07
10675.000000 2.39763000e+07
10725.000000 2.36324000e+07
10775.000000 2.32153000e+07
10825.000000 2.25348000e+07
10875.000000 2.23313000e+07
10925.000000 2.01439000e+07
10975.000000 2.11139000e+07
11025.000000 2.10881000e+07
11075.000000 2.08972000e+07
11125.000000 2.05612000e+07
11175.000000 2.02123000e+07
11225.000000 1.98604000e+07
11275.000000 1.94926000e+07
11325.000000 1.91787000e+07
11375.000000 1.88920000e+07
11425.000000 1.85645000e+07
11475.000000 1.82740000e+07
11525.000000 1.79729000e+07
11575.000000 1.76644000e+07
11625.000000 1.73798000e+07
11675.000000 1.71005000e+07
11725.000000 1.68295000e+07
11775.000000 1.65402000e+07
11825.000000 1.62944000e+07
11875.000000 1.60330000e+07
11925.000000 1.57809000e+07
11975.000000 1.53631000e+07
12025.000000 1.52851000e+07
12075.000000 1.50453000e+07
12125.000000 1.48088000e+07
12175.000000 1.45781000e+07
12225.000000 1.43515000e+07
12275.000000 1.41295000e+07
12325.000000 1.39114000e+07
12375.000000 1.36979000e+07
12425.000000 1.34893000e+07
12475.000000 1.32703000e+07
12525.000000 1.30495000e+07
12575.000000 1.28752000e+07
12625.000000 1.26857000e+07
12675.000000 1.24988000e+07
12725.000000 1.23017000e+07
12775.000000 1.18923000e+07
12825.000000 1.09519000e+07
12875.000000 1.16819000e+07
12925.000000 1.15944000e+07
12975.000000 1.13390000e+07
13025.000000 1.12612000e+07
13075.000000 1.10983000e+07
