# Kurucz ODFNEW /NOVER, alpha: 0.0 (2003)
# teff = 19000 K (value for the effective temperature for the model. Temperatures are given in K)
# logg = 3 log(cm/s2) (value for Log(G) for the model.)
# lh = 1.25  (l/Hp where l is the  mixing length of the convective element and Hp is the pressure scale height)
# meta = -1.5  (value for the Metallicity for the model.)
# vtur = 2 km/s (Microturbulence velocity)
# alpha = 0  (Alpha)
#
# column 1: WAVELENGTH (ANGSTROM), Wavelength in Angstrom
# column 2: FLUX (ERG/CM2/S/A), Flux in erg/cm2/s/A
147.200000 1.85323000e-21
151.000000 1.36529000e-20
155.200000 1.10469000e-19
158.800000 6.08371000e-19
162.000000 2.60455000e-18
166.000000 1.48362000e-17
170.300000 8.79665000e-17
173.400000 3.00644000e-16
176.800000 1.10115000e-15
180.200000 3.83945000e-15
181.700000 6.56241000e-15
186.100000 3.00790000e-14
191.000000 1.50791000e-13
193.900000 3.76487000e-13
198.400000 1.47552000e-12
201.800000 3.97505000e-12
205.000000 9.79631000e-12
210.500000 4.32271000e-11
216.200000 1.85502000e-10
219.800000 4.47167000e-10
223.000000 9.53698000e-10
226.800000 2.27788000e-09
230.000000 9.05432000e-09
234.000000 2.30843000e-08
240.000000 7.59999000e-08
246.500000 2.58015000e-07
252.400000 7.43929000e-07
256.800000 1.56087000e-06
260.000000 2.68827000e-06
264.000000 5.12690000e-06
268.500000 1.03400000e-05
273.500000 2.19186000e-05
278.500000 4.52422000e-05
284.000000 9.73398000e-05
290.000000 2.16846000e-04
296.000000 4.66569000e-04
301.000000 8.63142000e-04
308.000000 1.95330000e-03
318.000000 6.00352000e-03
328.000000 1.70128000e-02
338.000000 4.52198000e-02
348.000000 1.13220000e-01
357.000000 2.46858000e-01
366.000000 5.17161000e-01
375.000000 1.04161000e+00
385.000000 2.17788000e+00
395.000000 4.37274000e+00
405.000000 8.46295000e+00
414.000000 1.48897000e+01
422.000000 2.40570000e+01
430.000000 3.81008000e+01
441.000000 6.97589000e+01
451.000000 1.17476000e+02
460.000000 1.83807000e+02
470.000000 2.95739000e+02
480.000000 4.65451000e+02
490.000000 7.17951000e+02
500.000000 1.08611000e+03
506.000000 8.14018000e+03
512.000000 2.48979000e+04
520.000000 3.29847000e+04
530.000000 5.06580000e+04
540.000000 5.74887000e+04
550.000000 9.00589000e+04
560.000000 1.14575000e+05
570.000000 1.48187000e+05
580.000000 1.51229000e+05
590.000000 2.12196000e+05
600.000000 2.86283000e+05
610.000000 3.57797000e+05
620.000000 4.32278000e+05
630.000000 5.26463000e+05
640.000000 6.16618000e+05
650.000000 7.36187000e+05
658.000000 8.66306000e+05
665.000000 9.65623000e+05
675.000000 1.11111000e+06
685.000000 1.29656000e+06
695.000000 1.54841000e+06
705.000000 1.77873000e+06
716.000000 2.07884000e+06
726.000000 2.36362000e+06
735.000000 2.66955000e+06
745.000000 3.06658000e+06
755.000000 3.47931000e+06
765.000000 3.91796000e+06
775.000000 4.42529000e+06
785.000000 4.96533000e+06
795.000000 5.51553000e+06
805.000000 6.13150000e+06
815.000000 6.75331000e+06
825.000000 7.51715000e+06
835.000000 8.15299000e+06
845.000000 9.02325000e+06
855.000000 9.85441000e+06
865.000000 1.08388000e+07
875.000000 1.18905000e+07
885.000000 1.30057000e+07
895.000000 1.41069000e+07
905.000000 1.50103000e+07
915.000000 3.00448000e+07
925.000000 3.94414000e+08
935.000000 1.49408000e+09
945.000000 3.80773000e+09
955.000000 4.92750000e+09
965.000000 6.03390000e+09
975.000000 2.01180000e+09
985.000000 6.45378000e+09
995.000000 6.17440000e+09
1005.000000 6.61051000e+09
1015.000000 6.28160000e+09
1025.000000 2.54561000e+09
1035.000000 5.14017000e+09
1045.000000 7.12044000e+09
1055.000000 6.84596000e+09
1065.000000 6.18292000e+09
1075.000000 6.77485000e+09
1085.000000 6.25341000e+09
1095.000000 6.80864000e+09
1105.000000 6.37835000e+09
1115.000000 6.42506000e+09
1125.000000 5.98034000e+09
1135.000000 6.46645000e+09
1145.000000 6.11922000e+09
1155.000000 6.32521000e+09
1165.000000 6.38918000e+09
1175.000000 5.41917000e+09
1185.000000 6.28157000e+09
1195.000000 5.65823000e+09
1205.000000 4.33154000e+09
1215.000000 1.73910000e+09
1225.000000 4.95143000e+09
1235.000000 5.73458000e+09
1245.000000 5.83994000e+09
1255.000000 5.67884000e+09
1265.000000 5.56681000e+09
1275.000000 5.69744000e+09
1285.000000 5.60614000e+09
1295.000000 4.89786000e+09
1305.000000 4.96311000e+09
1315.000000 5.42015000e+09
1325.000000 5.22706000e+09
1335.000000 4.96725000e+09
1345.000000 5.13794000e+09
1355.000000 5.14774000e+09
1365.000000 4.96402000e+09
1375.000000 4.89407000e+09
1385.000000 4.88964000e+09
1395.000000 4.57413000e+09
1405.000000 4.66116000e+09
1415.000000 4.67322000e+09
1425.000000 4.61992000e+09
1435.000000 4.61923000e+09
1442.000000 4.62740000e+09
1447.000000 4.57100000e+09
1455.000000 4.50255000e+09
1465.000000 4.39635000e+09
1475.000000 4.34803000e+09
1485.000000 4.27463000e+09
1495.000000 4.21747000e+09
1505.000000 4.08926000e+09
1512.000000 3.92822000e+09
1517.000000 3.98226000e+09
1525.000000 3.96018000e+09
1535.000000 3.75334000e+09
1545.000000 3.81129000e+09
1555.000000 3.66583000e+09
1565.000000 3.72680000e+09
1575.000000 3.75389000e+09
1585.000000 3.70667000e+09
1595.000000 3.69721000e+09
1605.000000 3.58357000e+09
1615.000000 3.53991000e+09
1625.000000 3.51303000e+09
1635.000000 3.52853000e+09
1645.000000 3.47379000e+09
1655.000000 3.41020000e+09
1665.000000 3.43853000e+09
1672.000000 3.33757000e+09
1677.000000 3.39955000e+09
1685.000000 3.36296000e+09
1695.000000 3.27764000e+09
1705.000000 3.19239000e+09
1715.000000 3.10416000e+09
1725.000000 3.07688000e+09
1735.000000 3.08582000e+09
1745.000000 3.02705000e+09
1755.000000 3.04476000e+09
1765.000000 2.90163000e+09
1775.000000 2.90502000e+09
1785.000000 2.89491000e+09
1795.000000 2.90075000e+09
1805.000000 2.88107000e+09
1815.000000 2.77484000e+09
1825.000000 2.78422000e+09
1835.000000 2.73964000e+09
1845.000000 2.60178000e+09
1855.000000 2.54326000e+09
1865.000000 2.56220000e+09
1875.000000 2.60760000e+09
1885.000000 2.44832000e+09
1895.000000 2.34607000e+09
1905.000000 2.44494000e+09
1915.000000 2.35475000e+09
1925.000000 2.30391000e+09
1935.000000 2.34727000e+09
1945.000000 2.36453000e+09
1955.000000 2.23197000e+09
1967.000000 2.30307000e+09
1976.000000 2.34128000e+09
1984.000000 2.24138000e+09
1995.000000 2.18218000e+09
2005.000000 2.20938000e+09
2015.000000 2.20959000e+09
2025.000000 2.22108000e+09
2035.000000 2.13417000e+09
2045.000000 2.11929000e+09
2055.000000 2.06214000e+09
2065.000000 2.07049000e+09
2074.000000 2.11527000e+09
2078.000000 2.03210000e+09
2085.000000 2.04474000e+09
2095.000000 1.98175000e+09
2105.000000 2.00114000e+09
2115.000000 1.98546000e+09
2125.000000 1.99693000e+09
2135.000000 1.96356000e+09
2145.000000 1.91041000e+09
2155.000000 1.92501000e+09
2165.000000 1.90188000e+09
2175.000000 1.87766000e+09
2185.000000 1.85728000e+09
2195.000000 1.84915000e+09
2205.000000 1.82366000e+09
2215.000000 1.80155000e+09
2225.000000 1.77094000e+09
2235.000000 1.75882000e+09
2245.000000 1.74820000e+09
2255.000000 1.71754000e+09
2265.000000 1.71151000e+09
2275.000000 1.69097000e+09
2285.000000 1.68074000e+09
2295.000000 1.63973000e+09
2305.000000 1.63993000e+09
2315.000000 1.61314000e+09
2325.000000 1.59964000e+09
2335.000000 1.56697000e+09
2345.000000 1.54260000e+09
2355.000000 1.54828000e+09
2365.000000 1.51959000e+09
2375.000000 1.50976000e+09
2385.000000 1.48394000e+09
2395.000000 1.47663000e+09
2405.000000 1.45936000e+09
2415.000000 1.44000000e+09
2425.000000 1.44135000e+09
2435.000000 1.41759000e+09
2445.000000 1.40646000e+09
2455.000000 1.39896000e+09
2465.000000 1.37765000e+09
2475.000000 1.36599000e+09
2485.000000 1.35191000e+09
2495.000000 1.31821000e+09
2505.000000 1.32506000e+09
2513.000000 1.29528000e+09
2518.000000 1.30595000e+09
2525.000000 1.29192000e+09
2535.000000 1.27290000e+09
2545.000000 1.25844000e+09
2555.000000 1.26043000e+09
2565.000000 1.24118000e+09
2575.000000 1.23724000e+09
2585.000000 1.22391000e+09
2595.000000 1.21086000e+09
2605.000000 1.20585000e+09
2615.000000 1.19444000e+09
2625.000000 1.18263000e+09
2635.000000 1.16705000e+09
2645.000000 1.16729000e+09
2655.000000 1.15530000e+09
2665.000000 1.13954000e+09
2675.000000 1.13109000e+09
2685.000000 1.12623000e+09
2695.000000 1.10581000e+09
2705.000000 1.10315000e+09
2715.000000 1.09100000e+09
2725.000000 1.07210000e+09
2735.000000 1.07128000e+09
2745.000000 1.04679000e+09
2755.000000 1.04044000e+09
2765.000000 1.03042000e+09
2775.000000 1.03191000e+09
2785.000000 1.02048000e+09
2795.000000 9.92215000e+08
2805.000000 9.94825000e+08
2815.000000 9.93617000e+08
2825.000000 9.76068000e+08
2835.000000 9.62960000e+08
2845.000000 9.63883000e+08
2855.000000 9.55617000e+08
2865.000000 9.47994000e+08
2875.000000 9.38585000e+08
2885.000000 9.30279000e+08
2895.000000 9.21616000e+08
2910.000000 9.08891000e+08
2930.000000 8.90952000e+08
2950.000000 8.70298000e+08
2970.000000 8.60026000e+08
2990.000000 8.43502000e+08
3010.000000 8.28837000e+08
3030.000000 8.14977000e+08
3050.000000 8.00436000e+08
3070.000000 7.86244000e+08
3090.000000 7.71759000e+08
3110.000000 7.58709000e+08
3130.000000 7.46314000e+08
3150.000000 7.33222000e+08
3170.000000 7.20101000e+08
3190.000000 7.02807000e+08
3210.000000 6.95722000e+08
3230.000000 6.83774000e+08
3250.000000 6.72174000e+08
3270.000000 6.61511000e+08
3290.000000 6.49560000e+08
3310.000000 6.39602000e+08
3330.000000 6.28953000e+08
3350.000000 6.17470000e+08
3370.000000 6.08305000e+08
3390.000000 5.98330000e+08
3410.000000 5.88578000e+08
3430.000000 5.76643000e+08
3450.000000 5.65545000e+08
3470.000000 5.57981000e+08
3490.000000 5.49563000e+08
3510.000000 5.43409000e+08
3530.000000 5.35123000e+08
3550.000000 5.26749000e+08
3570.000000 5.20154000e+08
3590.000000 5.09844000e+08
3610.000000 5.02129000e+08
3630.000000 4.93980000e+08
3640.000000 4.92521000e+08
3650.000000 4.84991000e+08
3670.000000 4.78600000e+08
3690.000000 4.61335000e+08
3710.000000 4.67213000e+08
3730.000000 4.75241000e+08
3750.000000 5.37668000e+08
3770.000000 5.41733000e+08
3790.000000 5.59137000e+08
3810.000000 5.82037000e+08
3830.000000 5.15493000e+08
3850.000000 5.91279000e+08
3870.000000 5.84529000e+08
3890.000000 4.94435000e+08
3910.000000 5.74997000e+08
3930.000000 5.61695000e+08
3950.000000 5.56963000e+08
3970.000000 4.59961000e+08
3990.000000 5.37712000e+08
4010.000000 5.29831000e+08
4030.000000 5.07490000e+08
4050.000000 5.17005000e+08
4070.000000 5.07525000e+08
4090.000000 4.83430000e+08
4110.000000 4.27152000e+08
4130.000000 4.78949000e+08
4150.000000 4.73556000e+08
4170.000000 4.68764000e+08
4190.000000 4.63034000e+08
4210.000000 4.56073000e+08
4230.000000 4.48970000e+08
4250.000000 4.42001000e+08
4270.000000 4.33532000e+08
4290.000000 4.28618000e+08
4310.000000 4.21405000e+08
4330.000000 3.95137000e+08
4350.000000 3.61389000e+08
4370.000000 4.02258000e+08
4390.000000 3.90548000e+08
4410.000000 3.91411000e+08
4430.000000 3.84122000e+08
4450.000000 3.80182000e+08
4470.000000 3.63873000e+08
4490.000000 3.68468000e+08
4510.000000 3.63818000e+08
4530.000000 3.58410000e+08
4550.000000 3.53155000e+08
4570.000000 3.48032000e+08
4590.000000 3.43146000e+08
4610.000000 3.38208000e+08
4630.000000 3.33324000e+08
4650.000000 3.28232000e+08
4670.000000 3.23976000e+08
4690.000000 3.19523000e+08
4710.000000 3.11330000e+08
4730.000000 3.09966000e+08
4750.000000 3.05324000e+08
4770.000000 3.02041000e+08
4790.000000 2.97799000e+08
4810.000000 2.93553000e+08
4830.000000 2.88979000e+08
4850.000000 2.74397000e+08
4870.000000 2.46463000e+08
4890.000000 2.76890000e+08
4910.000000 2.74014000e+08
4930.000000 2.65874000e+08
4950.000000 2.66728000e+08
4970.000000 2.63182000e+08
4990.000000 2.59609000e+08
5010.000000 2.53248000e+08
5030.000000 2.52698000e+08
5050.000000 2.47613000e+08
5070.000000 2.46059000e+08
5090.000000 2.42805000e+08
5110.000000 2.39596000e+08
5130.000000 2.36357000e+08
5150.000000 2.33275000e+08
5170.000000 2.30332000e+08
5190.000000 2.27343000e+08
5210.000000 2.24241000e+08
5230.000000 2.21496000e+08
5250.000000 2.18650000e+08
5270.000000 2.15827000e+08
5290.000000 2.13094000e+08
5310.000000 2.10370000e+08
5330.000000 2.07680000e+08
5350.000000 2.04998000e+08
5370.000000 2.02481000e+08
5390.000000 1.99931000e+08
5410.000000 1.97426000e+08
5430.000000 1.94888000e+08
5450.000000 1.92484000e+08
5470.000000 1.90109000e+08
5490.000000 1.87764000e+08
5510.000000 1.85436000e+08
5530.000000 1.83161000e+08
5550.000000 1.80913000e+08
5570.000000 1.78694000e+08
5590.000000 1.76525000e+08
5610.000000 1.74347000e+08
5630.000000 1.72267000e+08
5650.000000 1.70070000e+08
5670.000000 1.68028000e+08
5690.000000 1.66011000e+08
5710.000000 1.64111000e+08
5730.000000 1.62141000e+08
5750.000000 1.60206000e+08
5770.000000 1.58328000e+08
5790.000000 1.56449000e+08
5810.000000 1.54604000e+08
5830.000000 1.52769000e+08
5850.000000 1.50989000e+08
5870.000000 1.45731000e+08
5890.000000 1.47349000e+08
5910.000000 1.45760000e+08
5930.000000 1.44061000e+08
5950.000000 1.42370000e+08
5970.000000 1.40763000e+08
5990.000000 1.39121000e+08
6010.000000 1.37550000e+08
6030.000000 1.35965000e+08
6050.000000 1.34419000e+08
6070.000000 1.32901000e+08
6090.000000 1.31390000e+08
6110.000000 1.29905000e+08
6130.000000 1.28437000e+08
6150.000000 1.26966000e+08
6170.000000 1.25570000e+08
6190.000000 1.24170000e+08
6210.000000 1.22785000e+08
6230.000000 1.21426000e+08
6250.000000 1.20071000e+08
6270.000000 1.18751000e+08
6290.000000 1.17444000e+08
6310.000000 1.16143000e+08
6330.000000 1.14874000e+08
6350.000000 1.13535000e+08
6370.000000 1.12340000e+08
6390.000000 1.11159000e+08
6410.000000 1.09952000e+08
6430.000000 1.08768000e+08
6450.000000 1.07597000e+08
6470.000000 1.06429000e+08
6490.000000 1.05291000e+08
6510.000000 1.04165000e+08
6530.000000 1.02892000e+08
6550.000000 9.97089000e+07
6570.000000 8.92842000e+07
6590.000000 9.91354000e+07
6610.000000 9.87520000e+07
6630.000000 9.77286000e+07
6650.000000 9.67668000e+07
6670.000000 9.50611000e+07
6690.000000 9.40896000e+07
6710.000000 9.37721000e+07
6730.000000 9.27914000e+07
6750.000000 9.18372000e+07
6770.000000 9.08844000e+07
6790.000000 8.99249000e+07
6810.000000 8.90238000e+07
6830.000000 8.81156000e+07
6850.000000 8.72084000e+07
6870.000000 8.63262000e+07
6890.000000 8.54448000e+07
6910.000000 8.45801000e+07
6930.000000 8.37161000e+07
6950.000000 8.28762000e+07
6970.000000 8.20445000e+07
6990.000000 8.12056000e+07
7010.000000 8.04056000e+07
7030.000000 7.95981000e+07
7050.000000 7.88060000e+07
7070.000000 7.69062000e+07
7090.000000 7.72523000e+07
7110.000000 7.64830000e+07
7130.000000 7.57284000e+07
7150.000000 7.49811000e+07
7170.000000 7.42336000e+07
7190.000000 7.35224000e+07
7210.000000 7.28035000e+07
7230.000000 7.18953000e+07
7250.000000 7.13917000e+07
7270.000000 7.07001000e+07
7290.000000 6.95152000e+07
7310.000000 6.93292000e+07
7330.000000 6.86730000e+07
7350.000000 6.80132000e+07
7370.000000 6.73616000e+07
7390.000000 6.67181000e+07
7410.000000 6.60819000e+07
7430.000000 6.54516000e+07
7450.000000 6.48414000e+07
7470.000000 6.42259000e+07
7490.000000 6.36202000e+07
7510.000000 6.29972000e+07
7530.000000 6.24285000e+07
7550.000000 6.18437000e+07
7570.000000 6.12649000e+07
7590.000000 6.06926000e+07
7610.000000 6.01275000e+07
7630.000000 5.95687000e+07
7650.000000 5.90163000e+07
7670.000000 5.84720000e+07
7690.000000 5.79312000e+07
7710.000000 5.73940000e+07
7730.000000 5.68723000e+07
7750.000000 5.63446000e+07
7770.000000 5.57991000e+07
7790.000000 5.53273000e+07
7810.000000 5.47824000e+07
7830.000000 5.43266000e+07
7850.000000 5.38856000e+07
7870.000000 5.33980000e+07
7890.000000 5.28807000e+07
7910.000000 5.24487000e+07
7930.000000 5.19023000e+07
7950.000000 5.13882000e+07
7970.000000 5.09010000e+07
7990.000000 5.04766000e+07
8010.000000 5.00176000e+07
8030.000000 4.96016000e+07
8050.000000 4.91915000e+07
8070.000000 4.87791000e+07
8090.000000 4.82602000e+07
8110.000000 4.78718000e+07
8130.000000 4.75243000e+07
8150.000000 4.70134000e+07
8170.000000 4.67005000e+07
8190.000000 4.62621000e+07
8210.000000 4.56933000e+07
8230.000000 4.54309000e+07
8250.000000 4.50476000e+07
8270.000000 4.44515000e+07
8290.000000 4.42170000e+07
8310.000000 4.38517000e+07
8330.000000 4.34676000e+07
8350.000000 4.29079000e+07
8370.000000 4.25606000e+07
8390.000000 4.22332000e+07
8410.000000 4.18163000e+07
8430.000000 4.14512000e+07
8450.000000 4.09634000e+07
8470.000000 4.03201000e+07
8490.000000 4.07665000e+07
8510.000000 3.94213000e+07
8530.000000 4.04006000e+07
8550.000000 3.80968000e+07
8570.000000 4.04501000e+07
8590.000000 3.82171000e+07
8610.000000 3.78538000e+07
8630.000000 3.99847000e+07
8650.000000 3.88841000e+07
8670.000000 3.53465000e+07
8690.000000 3.92329000e+07
8710.000000 3.92898000e+07
8730.000000 3.81713000e+07
8750.000000 3.40167000e+07
8770.000000 3.72209000e+07
8790.000000 3.80703000e+07
8810.000000 3.77452000e+07
8830.000000 3.74121000e+07
8850.000000 3.54673000e+07
8870.000000 3.25768000e+07
8890.000000 3.62996000e+07
8910.000000 3.62583000e+07
8930.000000 3.59685000e+07
8950.000000 3.57797000e+07
8970.000000 3.54607000e+07
8990.000000 3.46929000e+07
9010.000000 3.11235000e+07
9030.000000 3.28172000e+07
9050.000000 3.41967000e+07
9070.000000 3.38070000e+07
9090.000000 3.36990000e+07
9110.000000 3.35326000e+07
9130.000000 3.32846000e+07
9150.000000 3.30195000e+07
9170.000000 3.26700000e+07
9190.000000 3.24058000e+07
9210.000000 3.13387000e+07
9230.000000 2.79183000e+07
9250.000000 3.09859000e+07
9270.000000 3.13438000e+07
9290.000000 3.12269000e+07
9310.000000 3.08595000e+07
9330.000000 3.07377000e+07
9350.000000 3.04762000e+07
9370.000000 3.02613000e+07
9390.000000 3.00248000e+07
9410.000000 2.97795000e+07
9430.000000 2.95593000e+07
9450.000000 2.93297000e+07
9470.000000 2.89488000e+07
9490.000000 2.88750000e+07
9510.000000 2.83467000e+07
9530.000000 2.74634000e+07
9550.000000 2.47189000e+07
9570.000000 2.75453000e+07
9590.000000 2.77066000e+07
9610.000000 2.74878000e+07
9630.000000 2.72368000e+07
9650.000000 2.71532000e+07
9670.000000 2.69467000e+07
9690.000000 2.67172000e+07
9710.000000 2.64650000e+07
9730.000000 2.63396000e+07
9750.000000 2.61409000e+07
9770.000000 2.59440000e+07
9790.000000 2.57493000e+07
9810.000000 2.55559000e+07
9830.000000 2.53647000e+07
9850.000000 2.51752000e+07
9870.000000 2.49871000e+07
9890.000000 2.48006000e+07
9910.000000 2.46028000e+07
9930.000000 2.44342000e+07
9950.000000 2.42532000e+07
9970.000000 2.40737000e+07
9990.000000 2.38959000e+07
10025.000000 2.28938000e+07
10075.000000 2.21828000e+07
10125.000000 2.26933000e+07
10175.000000 2.23289000e+07
10225.000000 2.19179000e+07
10275.000000 2.15353000e+07
10325.000000 2.10873000e+07
10375.000000 2.07767000e+07
10425.000000 2.04098000e+07
10475.000000 2.00509000e+07
10525.000000 1.97000000e+07
10575.000000 1.93568000e+07
10625.000000 1.90212000e+07
10675.000000 1.86613000e+07
10725.000000 1.83711000e+07
10775.000000 1.80566000e+07
10825.000000 1.75674000e+07
10875.000000 1.74340000e+07
10925.000000 1.61044000e+07
10975.000000 1.66564000e+07
11025.000000 1.65022000e+07
11075.000000 1.63007000e+07
11125.000000 1.60334000e+07
11175.000000 1.57681000e+07
11225.000000 1.54996000e+07
11275.000000 1.52519000e+07
11325.000000 1.50033000e+07
11375.000000 1.47599000e+07
11425.000000 1.45204000e+07
11475.000000 1.42860000e+07
11525.000000 1.40563000e+07
11575.000000 1.38311000e+07
11625.000000 1.36103000e+07
11675.000000 1.33939000e+07
11725.000000 1.31821000e+07
11775.000000 1.29734000e+07
11825.000000 1.27704000e+07
11875.000000 1.25707000e+07
11925.000000 1.23749000e+07
11975.000000 1.21107000e+07
12025.000000 1.19946000e+07
12075.000000 1.18097000e+07
12125.000000 1.16287000e+07
12175.000000 1.14508000e+07
12225.000000 1.12766000e+07
12275.000000 1.11054000e+07
12325.000000 1.09379000e+07
12375.000000 1.07732000e+07
12425.000000 1.06117000e+07
12475.000000 1.04530000e+07
12525.000000 1.02804000e+07
12575.000000 1.01449000e+07
12625.000000 9.99503000e+06
12675.000000 9.84809000e+06
12725.000000 9.70361000e+06
12775.000000 9.45583000e+06
12825.000000 8.87400000e+06
12875.000000 9.26178000e+06
12925.000000 9.15193000e+06
12975.000000 8.97859000e+06
13025.000000 8.89091000e+06
13075.000000 8.76399000e+06
