# Kurucz ODFNEW /NOVER, alpha: 0.0 (2003)
# teff = 19000 K (value for the effective temperature for the model. Temperatures are given in K)
# logg = 4.5 log(cm/s2) (value for Log(G) for the model.)
# lh = 1.25  (l/Hp where l is the  mixing length of the convective element and Hp is the pressure scale height)
# meta = -0.5  (value for the Metallicity for the model.)
# vtur = 2 km/s (Microturbulence velocity)
# alpha = 0  (Alpha)
#
# column 1: WAVELENGTH (ANGSTROM), Wavelength in Angstrom
# column 2: FLUX (ERG/CM2/S/A), Flux in erg/cm2/s/A
147.200000 5.73183000e-21
151.000000 3.78630000e-20
155.200000 2.73549000e-19
158.800000 1.36866000e-18
162.000000 5.39715000e-18
166.000000 2.78637000e-17
170.300000 1.49356000e-16
173.400000 4.76131000e-16
176.800000 1.62090000e-15
180.200000 5.27237000e-15
181.700000 8.74759000e-15
186.100000 3.69156000e-14
191.000000 1.69782000e-13
193.900000 4.03191000e-13
198.400000 1.46997000e-12
201.800000 3.77069000e-12
205.000000 8.91233000e-12
210.500000 3.66559000e-11
216.200000 1.47363000e-10
219.800000 3.42169000e-10
223.000000 7.06210000e-10
226.800000 1.62833000e-09
230.000000 5.17102000e-09
234.000000 1.31652000e-08
240.000000 4.33101000e-08
246.500000 1.45931000e-07
252.400000 4.17168000e-07
256.800000 8.72954000e-07
260.000000 1.50129000e-06
264.000000 2.85882000e-06
268.500000 5.75449000e-06
273.500000 1.21764000e-05
278.500000 2.51269000e-05
284.000000 5.40740000e-05
290.000000 1.20473000e-04
296.000000 2.59229000e-04
301.000000 4.80138000e-04
308.000000 1.08951000e-03
318.000000 3.35832000e-03
328.000000 9.54640000e-03
338.000000 2.55233000e-02
348.000000 6.42596000e-02
357.000000 1.40974000e-01
366.000000 2.97320000e-01
375.000000 6.01722000e-01
385.000000 1.26615000e+00
395.000000 2.55700000e+00
405.000000 4.98080000e+00
414.000000 8.81708000e+00
422.000000 1.43113000e+01
430.000000 2.27484000e+01
441.000000 4.19983000e+01
451.000000 7.11893000e+01
460.000000 1.11972000e+02
470.000000 1.81287000e+02
480.000000 2.86995000e+02
490.000000 4.45470000e+02
500.000000 6.77827000e+02
506.000000 5.97989000e+03
512.000000 1.83864000e+04
520.000000 2.39524000e+04
530.000000 3.45414000e+04
540.000000 4.17736000e+04
550.000000 6.18409000e+04
560.000000 7.91853000e+04
570.000000 1.03678000e+05
580.000000 1.13904000e+05
590.000000 1.58549000e+05
600.000000 2.04198000e+05
610.000000 2.57352000e+05
620.000000 3.11664000e+05
630.000000 3.82007000e+05
640.000000 4.47890000e+05
650.000000 5.31362000e+05
658.000000 6.36987000e+05
665.000000 7.10574000e+05
675.000000 8.24832000e+05
685.000000 9.69392000e+05
695.000000 1.16078000e+06
705.000000 1.34100000e+06
716.000000 1.57274000e+06
726.000000 1.79753000e+06
735.000000 2.03300000e+06
745.000000 2.34750000e+06
755.000000 2.67935000e+06
765.000000 3.02928000e+06
775.000000 3.43822000e+06
785.000000 3.87572000e+06
795.000000 4.31070000e+06
805.000000 4.81044000e+06
815.000000 5.31621000e+06
825.000000 5.94354000e+06
835.000000 6.45204000e+06
845.000000 7.16077000e+06
855.000000 7.85333000e+06
865.000000 8.66972000e+06
875.000000 9.52962000e+06
885.000000 1.04872000e+07
895.000000 1.14092000e+07
905.000000 1.20987000e+07
915.000000 1.92058000e+07
925.000000 6.61723000e+07
935.000000 1.70200000e+08
945.000000 8.29667000e+08
955.000000 2.49229000e+09
965.000000 3.61763000e+09
975.000000 7.58987000e+08
985.000000 6.29769000e+09
995.000000 6.63141000e+09
1005.000000 7.42735000e+09
1015.000000 5.33998000e+09
1025.000000 5.47582000e+08
1035.000000 3.48424000e+09
1045.000000 8.26750000e+09
1055.000000 8.34608000e+09
1065.000000 7.09233000e+09
1075.000000 8.23499000e+09
1085.000000 7.44834000e+09
1095.000000 8.15560000e+09
1105.000000 7.36351000e+09
1115.000000 7.18565000e+09
1125.000000 6.74444000e+09
1135.000000 7.64674000e+09
1145.000000 6.82755000e+09
1155.000000 7.14784000e+09
1165.000000 7.40427000e+09
1175.000000 6.03395000e+09
1185.000000 7.19239000e+09
1195.000000 5.17545000e+09
1205.000000 3.03921000e+09
1215.000000 5.32164000e+08
1225.000000 2.92396000e+09
1235.000000 5.95046000e+09
1245.000000 6.57176000e+09
1255.000000 6.45836000e+09
1265.000000 5.96302000e+09
1275.000000 6.39800000e+09
1285.000000 6.47859000e+09
1295.000000 5.07735000e+09
1305.000000 4.70385000e+09
1315.000000 6.12318000e+09
1325.000000 5.83776000e+09
1335.000000 5.33823000e+09
1345.000000 5.79789000e+09
1355.000000 5.63753000e+09
1365.000000 5.27337000e+09
1375.000000 5.26609000e+09
1385.000000 5.31798000e+09
1395.000000 4.91658000e+09
1405.000000 5.06135000e+09
1415.000000 4.93833000e+09
1425.000000 4.94866000e+09
1435.000000 4.91250000e+09
1442.000000 5.01366000e+09
1447.000000 4.94615000e+09
1455.000000 4.83603000e+09
1465.000000 4.62981000e+09
1475.000000 4.55997000e+09
1485.000000 4.42890000e+09
1495.000000 4.41738000e+09
1505.000000 4.20718000e+09
1512.000000 3.93283000e+09
1517.000000 4.06247000e+09
1525.000000 4.05867000e+09
1535.000000 3.77525000e+09
1545.000000 3.87694000e+09
1555.000000 3.66645000e+09
1565.000000 3.65851000e+09
1575.000000 3.78077000e+09
1585.000000 3.76081000e+09
1595.000000 3.79184000e+09
1605.000000 3.65874000e+09
1615.000000 3.62629000e+09
1625.000000 3.50975000e+09
1635.000000 3.56757000e+09
1645.000000 3.52474000e+09
1655.000000 3.33277000e+09
1665.000000 3.52034000e+09
1672.000000 3.36924000e+09
1677.000000 3.42272000e+09
1685.000000 3.44005000e+09
1695.000000 3.31304000e+09
1705.000000 3.17425000e+09
1715.000000 3.05088000e+09
1725.000000 3.00434000e+09
1735.000000 3.08182000e+09
1745.000000 2.98115000e+09
1755.000000 3.04745000e+09
1765.000000 2.82545000e+09
1775.000000 2.89271000e+09
1785.000000 2.87670000e+09
1795.000000 2.92168000e+09
1805.000000 2.89032000e+09
1815.000000 2.74340000e+09
1825.000000 2.77970000e+09
1835.000000 2.68951000e+09
1845.000000 2.53040000e+09
1855.000000 2.46509000e+09
1865.000000 2.48313000e+09
1875.000000 2.58649000e+09
1885.000000 2.40220000e+09
1895.000000 2.29330000e+09
1905.000000 2.40985000e+09
1915.000000 2.30277000e+09
1925.000000 2.25207000e+09
1935.000000 2.29113000e+09
1945.000000 2.32350000e+09
1955.000000 2.18062000e+09
1967.000000 2.27970000e+09
1976.000000 2.32864000e+09
1984.000000 2.20529000e+09
1995.000000 2.14006000e+09
2005.000000 2.17190000e+09
2015.000000 2.13091000e+09
2025.000000 2.18984000e+09
2035.000000 2.08268000e+09
2045.000000 2.07767000e+09
2055.000000 2.00202000e+09
2065.000000 2.02746000e+09
2074.000000 2.06316000e+09
2078.000000 1.98673000e+09
2085.000000 2.01111000e+09
2095.000000 1.93059000e+09
2105.000000 1.95395000e+09
2115.000000 1.93661000e+09
2125.000000 1.95722000e+09
2135.000000 1.90405000e+09
2145.000000 1.86276000e+09
2155.000000 1.88331000e+09
2165.000000 1.84136000e+09
2175.000000 1.81913000e+09
2185.000000 1.79100000e+09
2195.000000 1.80201000e+09
2205.000000 1.75827000e+09
2215.000000 1.72346000e+09
2225.000000 1.67566000e+09
2235.000000 1.70392000e+09
2245.000000 1.67599000e+09
2255.000000 1.63212000e+09
2265.000000 1.64190000e+09
2275.000000 1.62939000e+09
2285.000000 1.62764000e+09
2295.000000 1.57879000e+09
2305.000000 1.56392000e+09
2315.000000 1.53307000e+09
2325.000000 1.52068000e+09
2335.000000 1.47348000e+09
2345.000000 1.43402000e+09
2355.000000 1.45175000e+09
2365.000000 1.40913000e+09
2375.000000 1.41411000e+09
2385.000000 1.37142000e+09
2395.000000 1.39454000e+09
2405.000000 1.35737000e+09
2415.000000 1.35132000e+09
2425.000000 1.35730000e+09
2435.000000 1.31371000e+09
2445.000000 1.32138000e+09
2455.000000 1.31527000e+09
2465.000000 1.28620000e+09
2475.000000 1.26993000e+09
2485.000000 1.28028000e+09
2495.000000 1.24372000e+09
2505.000000 1.25968000e+09
2513.000000 1.21928000e+09
2518.000000 1.23809000e+09
2525.000000 1.20217000e+09
2535.000000 1.18479000e+09
2545.000000 1.17020000e+09
2555.000000 1.18887000e+09
2565.000000 1.17000000e+09
2575.000000 1.17786000e+09
2585.000000 1.17266000e+09
2595.000000 1.16073000e+09
2605.000000 1.14379000e+09
2615.000000 1.13406000e+09
2625.000000 1.12243000e+09
2635.000000 1.11382000e+09
2645.000000 1.12857000e+09
2655.000000 1.11607000e+09
2665.000000 1.09016000e+09
2675.000000 1.09155000e+09
2685.000000 1.08270000e+09
2695.000000 1.06218000e+09
2705.000000 1.05831000e+09
2715.000000 1.04051000e+09
2725.000000 1.02421000e+09
2735.000000 1.02968000e+09
2745.000000 9.91293000e+08
2755.000000 9.85847000e+08
2765.000000 9.85134000e+08
2775.000000 9.92283000e+08
2785.000000 9.79973000e+08
2795.000000 9.43798000e+08
2805.000000 9.57478000e+08
2815.000000 9.59149000e+08
2825.000000 9.41655000e+08
2835.000000 9.18525000e+08
2845.000000 9.16873000e+08
2855.000000 9.14852000e+08
2865.000000 9.14902000e+08
2875.000000 9.01621000e+08
2885.000000 8.95834000e+08
2895.000000 8.89117000e+08
2910.000000 8.79040000e+08
2930.000000 8.57601000e+08
2950.000000 8.38653000e+08
2970.000000 8.30258000e+08
2990.000000 8.12909000e+08
3010.000000 8.02059000e+08
3030.000000 7.89577000e+08
3050.000000 7.74761000e+08
3070.000000 7.60782000e+08
3090.000000 7.47611000e+08
3110.000000 7.33898000e+08
3130.000000 7.22242000e+08
3150.000000 7.09417000e+08
3170.000000 6.96895000e+08
3190.000000 6.78928000e+08
3210.000000 6.72761000e+08
3230.000000 6.61783000e+08
3250.000000 6.50739000e+08
3270.000000 6.40548000e+08
3290.000000 6.29408000e+08
3310.000000 6.19762000e+08
3330.000000 6.09350000e+08
3350.000000 5.98370000e+08
3370.000000 5.89265000e+08
3390.000000 5.79710000e+08
3410.000000 5.70435000e+08
3430.000000 5.60056000e+08
3450.000000 5.49973000e+08
3470.000000 5.41962000e+08
3490.000000 5.33355000e+08
3510.000000 5.25705000e+08
3530.000000 5.17799000e+08
3550.000000 5.09590000e+08
3570.000000 5.03098000e+08
3590.000000 4.93065000e+08
3610.000000 4.86345000e+08
3630.000000 4.78142000e+08
3640.000000 4.76456000e+08
3650.000000 4.71446000e+08
3670.000000 4.65958000e+08
3690.000000 4.57157000e+08
3710.000000 4.42443000e+08
3730.000000 4.23170000e+08
3750.000000 4.49289000e+08
3770.000000 4.54236000e+08
3790.000000 4.95719000e+08
3810.000000 5.29873000e+08
3830.000000 4.50055000e+08
3850.000000 5.56205000e+08
3870.000000 5.79121000e+08
3890.000000 4.18478000e+08
3910.000000 5.73912000e+08
3930.000000 5.72891000e+08
3950.000000 5.58050000e+08
3970.000000 3.92484000e+08
3990.000000 5.31985000e+08
4010.000000 5.43232000e+08
4030.000000 5.07652000e+08
4050.000000 5.33910000e+08
4070.000000 5.18987000e+08
4090.000000 4.52915000e+08
4110.000000 3.82102000e+08
4130.000000 4.83432000e+08
4150.000000 4.86221000e+08
4170.000000 4.83843000e+08
4190.000000 4.79106000e+08
4210.000000 4.72036000e+08
4230.000000 4.64151000e+08
4250.000000 4.56455000e+08
4270.000000 4.45102000e+08
4290.000000 4.40286000e+08
4310.000000 4.27996000e+08
4330.000000 3.64896000e+08
4350.000000 3.27683000e+08
4370.000000 4.05711000e+08
4390.000000 3.93695000e+08
4410.000000 4.01600000e+08
4430.000000 3.94488000e+08
4450.000000 3.90703000e+08
4470.000000 3.64400000e+08
4490.000000 3.75905000e+08
4510.000000 3.73820000e+08
4530.000000 3.67662000e+08
4550.000000 3.62235000e+08
4570.000000 3.57142000e+08
4590.000000 3.51908000e+08
4610.000000 3.46610000e+08
4630.000000 3.41109000e+08
4650.000000 3.36090000e+08
4670.000000 3.31646000e+08
4690.000000 3.27059000e+08
4710.000000 3.17121000e+08
4730.000000 3.16348000e+08
4750.000000 3.11485000e+08
4770.000000 3.08763000e+08
4790.000000 3.03546000e+08
4810.000000 2.97722000e+08
4830.000000 2.90061000e+08
4850.000000 2.54442000e+08
4870.000000 2.22716000e+08
4890.000000 2.75819000e+08
4910.000000 2.76905000e+08
4930.000000 2.66990000e+08
4950.000000 2.71525000e+08
4970.000000 2.68124000e+08
4990.000000 2.64284000e+08
5010.000000 2.56220000e+08
5030.000000 2.56703000e+08
5050.000000 2.50345000e+08
5070.000000 2.50192000e+08
5090.000000 2.46775000e+08
5110.000000 2.43231000e+08
5130.000000 2.39936000e+08
5150.000000 2.36556000e+08
5170.000000 2.33813000e+08
5190.000000 2.30728000e+08
5210.000000 2.26711000e+08
5230.000000 2.24636000e+08
5250.000000 2.21753000e+08
5270.000000 2.18757000e+08
5290.000000 2.16123000e+08
5310.000000 2.13229000e+08
5330.000000 2.10412000e+08
5350.000000 2.07433000e+08
5370.000000 2.05172000e+08
5390.000000 2.02524000e+08
5410.000000 1.99858000e+08
5430.000000 1.96996000e+08
5450.000000 1.94691000e+08
5470.000000 1.92199000e+08
5490.000000 1.89976000e+08
5510.000000 1.87508000e+08
5530.000000 1.85205000e+08
5550.000000 1.82944000e+08
5570.000000 1.80636000e+08
5590.000000 1.78418000e+08
5610.000000 1.76107000e+08
5630.000000 1.74121000e+08
5650.000000 1.71380000e+08
5670.000000 1.69434000e+08
5690.000000 1.67582000e+08
5710.000000 1.65717000e+08
5730.000000 1.63725000e+08
5750.000000 1.61733000e+08
5770.000000 1.59822000e+08
5790.000000 1.57877000e+08
5810.000000 1.55966000e+08
5830.000000 1.54110000e+08
5850.000000 1.52288000e+08
5870.000000 1.45938000e+08
5890.000000 1.48174000e+08
5910.000000 1.46936000e+08
5930.000000 1.45228000e+08
5950.000000 1.43317000e+08
5970.000000 1.41841000e+08
5990.000000 1.40076000e+08
6010.000000 1.38593000e+08
6030.000000 1.36970000e+08
6050.000000 1.35407000e+08
6070.000000 1.33832000e+08
6090.000000 1.32284000e+08
6110.000000 1.30803000e+08
6130.000000 1.29310000e+08
6150.000000 1.27663000e+08
6170.000000 1.26372000e+08
6190.000000 1.24957000e+08
6210.000000 1.23547000e+08
6230.000000 1.22134000e+08
6250.000000 1.20660000e+08
6270.000000 1.19431000e+08
6290.000000 1.18092000e+08
6310.000000 1.16729000e+08
6330.000000 1.15495000e+08
6350.000000 1.13741000e+08
6370.000000 1.12665000e+08
6390.000000 1.11694000e+08
6410.000000 1.10438000e+08
6430.000000 1.09306000e+08
6450.000000 1.08068000e+08
6470.000000 1.06888000e+08
6490.000000 1.05622000e+08
6510.000000 1.04147000e+08
6530.000000 1.02229000e+08
6550.000000 9.49233000e+07
6570.000000 8.27943000e+07
6590.000000 9.75133000e+07
6610.000000 9.85192000e+07
6630.000000 9.78400000e+07
6650.000000 9.70650000e+07
6670.000000 9.51373000e+07
6690.000000 9.41737000e+07
6710.000000 9.40566000e+07
6730.000000 9.30742000e+07
6750.000000 9.21101000e+07
6770.000000 9.11557000e+07
6790.000000 9.01292000e+07
6810.000000 8.92513000e+07
6830.000000 8.83175000e+07
6850.000000 8.74332000e+07
6870.000000 8.65337000e+07
6890.000000 8.56432000e+07
6910.000000 8.47695000e+07
6930.000000 8.38651000e+07
6950.000000 8.30556000e+07
6970.000000 8.22151000e+07
6990.000000 8.13752000e+07
7010.000000 8.05512000e+07
7030.000000 7.97429000e+07
7050.000000 7.88970000e+07
7070.000000 7.71021000e+07
7090.000000 7.73797000e+07
7110.000000 7.65947000e+07
7130.000000 7.58396000e+07
7150.000000 7.50843000e+07
7170.000000 7.43435000e+07
7190.000000 7.36172000e+07
7210.000000 7.28977000e+07
7230.000000 7.18557000e+07
7250.000000 7.14576000e+07
7270.000000 7.07756000e+07
7290.000000 6.96711000e+07
7310.000000 6.94004000e+07
7330.000000 6.87326000e+07
7350.000000 6.80704000e+07
7370.000000 6.74136000e+07
7390.000000 6.67657000e+07
7410.000000 6.61251000e+07
7430.000000 6.54694000e+07
7450.000000 6.48638000e+07
7470.000000 6.42273000e+07
7490.000000 6.36269000e+07
7510.000000 6.30199000e+07
7530.000000 6.24384000e+07
7550.000000 6.18516000e+07
7570.000000 6.12728000e+07
7590.000000 6.06933000e+07
7610.000000 6.01308000e+07
7630.000000 5.95687000e+07
7650.000000 5.90118000e+07
7670.000000 5.84643000e+07
7690.000000 5.79223000e+07
7710.000000 5.73864000e+07
7730.000000 5.68541000e+07
7750.000000 5.63314000e+07
7770.000000 5.55613000e+07
7790.000000 5.53031000e+07
7810.000000 5.47849000e+07
7830.000000 5.43002000e+07
7850.000000 5.37689000e+07
7870.000000 5.32837000e+07
7890.000000 5.27470000e+07
7910.000000 5.23800000e+07
7930.000000 5.19119000e+07
7950.000000 5.13911000e+07
7970.000000 5.09704000e+07
7990.000000 5.04418000e+07
8010.000000 5.00722000e+07
8030.000000 4.96250000e+07
8050.000000 4.91782000e+07
8070.000000 4.87473000e+07
8090.000000 4.82838000e+07
8110.000000 4.78603000e+07
8130.000000 4.74508000e+07
8150.000000 4.70140000e+07
8170.000000 4.66362000e+07
8190.000000 4.61914000e+07
8210.000000 4.56966000e+07
8230.000000 4.53396000e+07
8250.000000 4.50177000e+07
8270.000000 4.45303000e+07
8290.000000 4.42389000e+07
8310.000000 4.38811000e+07
8330.000000 4.35018000e+07
8350.000000 4.30241000e+07
8370.000000 4.27273000e+07
8390.000000 4.24130000e+07
8410.000000 4.20315000e+07
8430.000000 4.16367000e+07
8450.000000 4.10531000e+07
8470.000000 4.08405000e+07
8490.000000 4.04905000e+07
8510.000000 3.99847000e+07
8530.000000 3.98481000e+07
8550.000000 3.88173000e+07
8570.000000 3.95309000e+07
8590.000000 3.80109000e+07
8610.000000 3.77176000e+07
8630.000000 3.89573000e+07
8650.000000 3.77125000e+07
8670.000000 3.51240000e+07
8690.000000 3.79069000e+07
8710.000000 3.83900000e+07
8730.000000 3.70561000e+07
8750.000000 3.29367000e+07
8770.000000 3.56300000e+07
8790.000000 3.74535000e+07
8810.000000 3.75084000e+07
8830.000000 3.67670000e+07
8850.000000 3.38079000e+07
8870.000000 3.10062000e+07
8890.000000 3.51003000e+07
8910.000000 3.60205000e+07
8930.000000 3.59652000e+07
8950.000000 3.57712000e+07
8970.000000 3.52500000e+07
8990.000000 3.38124000e+07
9010.000000 2.94524000e+07
9030.000000 3.08394000e+07
9050.000000 3.35468000e+07
9070.000000 3.37021000e+07
9090.000000 3.37619000e+07
9110.000000 3.36597000e+07
9130.000000 3.34111000e+07
9150.000000 3.31167000e+07
9170.000000 3.26723000e+07
9190.000000 3.20797000e+07
9210.000000 3.01764000e+07
9230.000000 2.61530000e+07
9250.000000 2.93890000e+07
9270.000000 3.08370000e+07
9290.000000 3.11710000e+07
9310.000000 3.09742000e+07
9330.000000 3.08697000e+07
9350.000000 3.06774000e+07
9370.000000 3.04702000e+07
9390.000000 3.02265000e+07
9410.000000 2.98901000e+07
9430.000000 2.97317000e+07
9450.000000 2.94499000e+07
9470.000000 2.90316000e+07
9490.000000 2.88060000e+07
9510.000000 2.80385000e+07
9530.000000 2.62285000e+07
9550.000000 2.31348000e+07
9570.000000 2.63565000e+07
9590.000000 2.74190000e+07
9610.000000 2.74792000e+07
9630.000000 2.72681000e+07
9650.000000 2.72729000e+07
9670.000000 2.70982000e+07
9690.000000 2.68869000e+07
9710.000000 2.66496000e+07
9730.000000 2.65000000e+07
9750.000000 2.62955000e+07
9770.000000 2.60995000e+07
9790.000000 2.59018000e+07
9810.000000 2.57059000e+07
9830.000000 2.55074000e+07
9850.000000 2.53201000e+07
9870.000000 2.51278000e+07
9890.000000 2.49319000e+07
9910.000000 2.47198000e+07
9930.000000 2.45649000e+07
9950.000000 2.43262000e+07
9970.000000 2.41036000e+07
9990.000000 2.38309000e+07
10025.000000 2.21718000e+07
10075.000000 2.13440000e+07
10125.000000 2.26643000e+07
10175.000000 2.24191000e+07
10225.000000 2.20267000e+07
10275.000000 2.16366000e+07
10325.000000 2.11848000e+07
10375.000000 2.08701000e+07
10425.000000 2.04999000e+07
10475.000000 2.01364000e+07
10525.000000 1.97809000e+07
10575.000000 1.94350000e+07
10625.000000 1.90970000e+07
10675.000000 1.87238000e+07
10725.000000 1.84376000e+07
10775.000000 1.81209000e+07
10825.000000 1.76131000e+07
10875.000000 1.73387000e+07
10925.000000 1.54340000e+07
10975.000000 1.61966000e+07
11025.000000 1.64902000e+07
11075.000000 1.63321000e+07
11125.000000 1.60812000e+07
11175.000000 1.58130000e+07
11225.000000 1.55472000e+07
11275.000000 1.52768000e+07
11325.000000 1.50339000e+07
11375.000000 1.47972000e+07
11425.000000 1.45557000e+07
11475.000000 1.43204000e+07
11525.000000 1.40886000e+07
11575.000000 1.38617000e+07
11625.000000 1.36360000e+07
11675.000000 1.34191000e+07
11725.000000 1.32076000e+07
11775.000000 1.29889000e+07
11825.000000 1.27939000e+07
11875.000000 1.25921000e+07
11925.000000 1.23966000e+07
11975.000000 1.21152000e+07
12025.000000 1.20139000e+07
12075.000000 1.18280000e+07
12125.000000 1.16459000e+07
12175.000000 1.14673000e+07
12225.000000 1.12920000e+07
12275.000000 1.11199000e+07
12325.000000 1.09513000e+07
12375.000000 1.07857000e+07
12425.000000 1.06237000e+07
12475.000000 1.04612000e+07
12525.000000 1.02950000e+07
12575.000000 1.01528000e+07
12625.000000 1.00031000e+07
12675.000000 9.85231000e+06
12725.000000 9.67267000e+06
12775.000000 9.32263000e+06
12825.000000 8.47615000e+06
12875.000000 9.14383000e+06
12925.000000 9.12690000e+06
12975.000000 8.97993000e+06
13025.000000 8.89491000e+06
13075.000000 8.76729000e+06
