# Kurucz ODFNEW /NOVER, alpha: 0.0 (2003)
# teff = 30000 K (value for the effective temperature for the model. Temperatures are given in K)
# logg = 3.5 log(cm/s2) (value for Log(G) for the model.)
# lh = 1.25  (l/Hp where l is the  mixing length of the convective element and Hp is the pressure scale height)
# meta = 0.2  (value for the Metallicity for the model.)
# vtur = 2 km/s (Microturbulence velocity)
# alpha = 0  (Alpha)
#
# column 1: WAVELENGTH (ANGSTROM), Wavelength in Angstrom
# column 2: FLUX (ERG/CM2/S/A), Flux in erg/cm2/s/A
147.200000 1.69423000e-08
151.000000 5.17154000e-08
155.200000 1.66695000e-07
158.800000 4.33193000e-07
162.000000 9.78357000e-07
166.000000 2.59511000e-06
170.300000 7.02576000e-06
173.400000 1.40367000e-05
176.800000 2.92446000e-05
180.200000 5.91035000e-05
181.700000 8.03418000e-05
186.100000 1.89576000e-04
191.000000 4.72417000e-04
193.900000 7.93325000e-04
198.400000 1.72838000e-03
201.800000 3.03691000e-03
205.000000 5.07789000e-03
210.500000 1.18834000e-02
216.200000 2.73054000e-02
219.800000 4.55581000e-02
223.000000 7.05846000e-02
226.800000 1.18691000e-01
230.000000 5.62986000e+01
234.000000 1.20719000e+02
240.000000 2.06495000e+02
246.500000 3.76951000e+02
252.400000 6.55639000e+02
256.800000 9.41277000e+02
260.000000 1.81315000e+03
264.000000 3.30606000e+03
268.500000 5.12794000e+03
273.500000 7.28909000e+03
278.500000 9.49665000e+03
284.000000 2.30538000e+04
290.000000 3.45619000e+04
296.000000 4.73578000e+04
301.000000 7.71330000e+04
308.000000 2.41909000e+05
318.000000 5.68350000e+05
328.000000 8.53300000e+05
338.000000 1.64454000e+06
348.000000 2.65935000e+06
357.000000 6.41435000e+06
366.000000 1.41843000e+07
375.000000 1.70363000e+07
385.000000 2.57897000e+07
395.000000 4.90080000e+07
405.000000 6.21876000e+07
414.000000 8.37374000e+07
422.000000 9.65771000e+07
430.000000 1.13271000e+08
441.000000 1.43915000e+08
451.000000 1.58487000e+08
460.000000 1.67146000e+08
470.000000 2.08011000e+08
480.000000 2.50613000e+08
490.000000 2.68888000e+08
500.000000 3.36284000e+08
506.000000 6.22384000e+08
512.000000 4.77896000e+09
520.000000 4.59529000e+09
530.000000 4.10513000e+09
540.000000 3.80747000e+09
550.000000 4.45350000e+09
560.000000 6.31875000e+09
570.000000 7.19879000e+09
580.000000 6.52994000e+09
590.000000 6.96381000e+09
600.000000 4.82674000e+09
610.000000 6.59666000e+09
620.000000 8.48856000e+09
630.000000 8.10628000e+09
640.000000 7.93882000e+09
650.000000 6.63302000e+09
658.000000 5.44981000e+09
665.000000 7.52130000e+09
675.000000 9.13825000e+09
685.000000 6.40302000e+09
695.000000 9.58777000e+09
705.000000 6.74175000e+09
716.000000 1.05967000e+10
726.000000 1.02646000e+10
735.000000 1.02846000e+10
745.000000 9.28885000e+09
755.000000 9.45351000e+09
765.000000 9.58714000e+09
775.000000 1.03643000e+10
785.000000 1.06387000e+10
795.000000 1.09277000e+10
805.000000 1.01562000e+10
815.000000 9.99129000e+09
825.000000 1.09378000e+10
835.000000 8.04817000e+09
845.000000 1.02605000e+10
855.000000 1.01327000e+10
865.000000 1.05468000e+10
875.000000 1.06599000e+10
885.000000 1.09523000e+10
895.000000 1.10344000e+10
905.000000 1.06281000e+10
915.000000 1.37850000e+10
925.000000 3.77370000e+10
935.000000 5.40084000e+10
945.000000 5.89799000e+10
955.000000 6.05725000e+10
965.000000 6.31668000e+10
975.000000 2.45609000e+10
985.000000 4.74181000e+10
995.000000 4.65611000e+10
1005.000000 4.99210000e+10
1015.000000 5.28586000e+10
1025.000000 4.81030000e+10
1035.000000 5.10008000e+10
1045.000000 5.90023000e+10
1055.000000 5.58380000e+10
1065.000000 4.88356000e+10
1075.000000 5.06044000e+10
1085.000000 4.74902000e+10
1095.000000 4.97059000e+10
1105.000000 4.78816000e+10
1115.000000 4.68175000e+10
1125.000000 3.76008000e+10
1135.000000 4.52435000e+10
1145.000000 4.40400000e+10
1155.000000 4.20975000e+10
1165.000000 4.08255000e+10
1175.000000 2.51773000e+10
1185.000000 3.69560000e+10
1195.000000 3.64324000e+10
1205.000000 3.47197000e+10
1215.000000 3.11137000e+10
1225.000000 3.43886000e+10
1235.000000 3.66226000e+10
1245.000000 3.47995000e+10
1255.000000 3.50126000e+10
1265.000000 3.60456000e+10
1275.000000 3.71741000e+10
1285.000000 3.71248000e+10
1295.000000 3.45364000e+10
1305.000000 3.44294000e+10
1315.000000 3.64611000e+10
1325.000000 3.52111000e+10
1335.000000 3.40028000e+10
1345.000000 3.42884000e+10
1355.000000 3.32999000e+10
1365.000000 3.23548000e+10
1375.000000 3.12841000e+10
1385.000000 3.02153000e+10
1395.000000 2.25396000e+10
1405.000000 2.37657000e+10
1415.000000 2.88724000e+10
1425.000000 2.60921000e+10
1435.000000 2.77805000e+10
1442.000000 2.74535000e+10
1447.000000 2.73325000e+10
1455.000000 2.60291000e+10
1465.000000 2.52905000e+10
1475.000000 2.57141000e+10
1485.000000 2.56406000e+10
1495.000000 2.48622000e+10
1505.000000 2.41686000e+10
1512.000000 2.34526000e+10
1517.000000 2.38189000e+10
1525.000000 2.28925000e+10
1535.000000 1.99299000e+10
1545.000000 1.65226000e+10
1555.000000 1.66987000e+10
1565.000000 1.92731000e+10
1575.000000 2.04172000e+10
1585.000000 2.05728000e+10
1595.000000 2.03216000e+10
1605.000000 1.92238000e+10
1615.000000 1.83914000e+10
1625.000000 1.88206000e+10
1635.000000 1.91787000e+10
1645.000000 1.92011000e+10
1655.000000 1.90632000e+10
1665.000000 1.88757000e+10
1672.000000 1.73098000e+10
1677.000000 2.03707000e+10
1685.000000 1.92649000e+10
1695.000000 1.85334000e+10
1705.000000 1.84216000e+10
1715.000000 1.73953000e+10
1725.000000 1.69322000e+10
1735.000000 1.75122000e+10
1745.000000 1.72911000e+10
1755.000000 1.70811000e+10
1765.000000 1.69510000e+10
1775.000000 1.63026000e+10
1785.000000 1.65508000e+10
1795.000000 1.61974000e+10
1805.000000 1.62080000e+10
1815.000000 1.56571000e+10
1825.000000 1.55188000e+10
1835.000000 1.54866000e+10
1845.000000 1.46109000e+10
1855.000000 1.49081000e+10
1865.000000 1.49036000e+10
1875.000000 1.46261000e+10
1885.000000 1.38140000e+10
1895.000000 1.34598000e+10
1905.000000 1.38867000e+10
1915.000000 1.35099000e+10
1925.000000 1.26826000e+10
1935.000000 1.34524000e+10
1945.000000 1.36042000e+10
1955.000000 1.23328000e+10
1967.000000 1.29627000e+10
1976.000000 1.32714000e+10
1984.000000 1.27616000e+10
1995.000000 1.24216000e+10
2005.000000 1.26672000e+10
2015.000000 1.26457000e+10
2025.000000 1.26727000e+10
2035.000000 1.20745000e+10
2045.000000 1.19450000e+10
2055.000000 1.00538000e+10
2065.000000 9.83120000e+09
2074.000000 1.04371000e+10
2078.000000 1.02922000e+10
2085.000000 1.10803000e+10
2095.000000 1.09508000e+10
2105.000000 1.10621000e+10
2115.000000 1.11901000e+10
2125.000000 1.10392000e+10
2135.000000 1.09484000e+10
2145.000000 1.06885000e+10
2155.000000 1.07315000e+10
2165.000000 1.03843000e+10
2175.000000 1.04459000e+10
2185.000000 1.02424000e+10
2195.000000 1.03158000e+10
2205.000000 1.01582000e+10
2215.000000 9.90616000e+09
2225.000000 9.83939000e+09
2235.000000 9.67989000e+09
2245.000000 9.56320000e+09
2255.000000 9.36818000e+09
2265.000000 9.33705000e+09
2275.000000 9.25733000e+09
2285.000000 9.05454000e+09
2295.000000 8.01807000e+09
2305.000000 8.71090000e+09
2315.000000 8.62596000e+09
2325.000000 8.59234000e+09
2335.000000 8.44635000e+09
2345.000000 8.36282000e+09
2355.000000 8.20840000e+09
2365.000000 8.08390000e+09
2375.000000 7.92447000e+09
2385.000000 7.67735000e+09
2395.000000 7.66525000e+09
2405.000000 7.63812000e+09
2415.000000 7.54657000e+09
2425.000000 7.50112000e+09
2435.000000 7.36783000e+09
2445.000000 7.29319000e+09
2455.000000 7.20077000e+09
2465.000000 7.09659000e+09
2475.000000 6.99630000e+09
2485.000000 6.73330000e+09
2495.000000 4.82175000e+09
2505.000000 6.39567000e+09
2513.000000 6.37470000e+09
2518.000000 6.46527000e+09
2525.000000 6.56774000e+09
2535.000000 6.52482000e+09
2545.000000 6.38989000e+09
2555.000000 6.32901000e+09
2565.000000 6.27059000e+09
2575.000000 6.19358000e+09
2585.000000 6.12094000e+09
2595.000000 6.02015000e+09
2605.000000 5.99234000e+09
2615.000000 5.87167000e+09
2625.000000 5.83358000e+09
2635.000000 5.78179000e+09
2645.000000 5.68485000e+09
2655.000000 5.62928000e+09
2665.000000 5.50754000e+09
2675.000000 5.39537000e+09
2685.000000 5.41848000e+09
2695.000000 5.29639000e+09
2705.000000 5.25319000e+09
2715.000000 5.18185000e+09
2725.000000 5.14744000e+09
2735.000000 5.04188000e+09
2745.000000 5.04571000e+09
2755.000000 4.98532000e+09
2765.000000 4.91054000e+09
2775.000000 4.89415000e+09
2785.000000 4.80661000e+09
2795.000000 4.66430000e+09
2805.000000 4.68636000e+09
2815.000000 4.66263000e+09
2825.000000 4.60409000e+09
2835.000000 4.51233000e+09
2845.000000 4.50482000e+09
2855.000000 4.44157000e+09
2865.000000 4.37661000e+09
2875.000000 4.33290000e+09
2885.000000 4.28939000e+09
2895.000000 4.24349000e+09
2910.000000 4.14753000e+09
2930.000000 4.08514000e+09
2950.000000 3.97491000e+09
2970.000000 3.89077000e+09
2990.000000 3.78032000e+09
3010.000000 3.67731000e+09
3030.000000 3.59315000e+09
3050.000000 3.54322000e+09
3070.000000 3.48074000e+09
3090.000000 3.37889000e+09
3110.000000 3.34021000e+09
3130.000000 3.25724000e+09
3150.000000 3.19931000e+09
3170.000000 3.12502000e+09
3190.000000 3.06401000e+09
3210.000000 2.98514000e+09
3230.000000 2.93016000e+09
3250.000000 2.88593000e+09
3270.000000 2.80311000e+09
3290.000000 2.75806000e+09
3310.000000 2.69918000e+09
3330.000000 2.63686000e+09
3350.000000 2.57425000e+09
3370.000000 2.52779000e+09
3390.000000 2.49556000e+09
3410.000000 2.44396000e+09
3430.000000 2.39998000e+09
3450.000000 2.34052000e+09
3470.000000 2.30195000e+09
3490.000000 2.25658000e+09
3510.000000 2.21562000e+09
3530.000000 2.17668000e+09
3550.000000 2.13282000e+09
3570.000000 2.09315000e+09
3590.000000 2.04569000e+09
3610.000000 2.00357000e+09
3630.000000 1.96880000e+09
3640.000000 1.94540000e+09
3650.000000 1.84928000e+09
3670.000000 1.82020000e+09
3690.000000 1.78480000e+09
3710.000000 1.73843000e+09
3730.000000 1.71196000e+09
3750.000000 1.75175000e+09
3770.000000 1.72857000e+09
3790.000000 1.74400000e+09
3810.000000 1.76425000e+09
3830.000000 1.64289000e+09
3850.000000 1.73106000e+09
3870.000000 1.67722000e+09
3890.000000 1.56178000e+09
3910.000000 1.65510000e+09
3930.000000 1.60293000e+09
3950.000000 1.57653000e+09
3970.000000 1.44112000e+09
3990.000000 1.53755000e+09
4010.000000 1.50735000e+09
4030.000000 1.46531000e+09
4050.000000 1.45878000e+09
4070.000000 1.40970000e+09
4090.000000 1.36122000e+09
4110.000000 1.28329000e+09
4130.000000 1.34397000e+09
4150.000000 1.32637000e+09
4170.000000 1.31480000e+09
4190.000000 1.29202000e+09
4210.000000 1.26921000e+09
4230.000000 1.25383000e+09
4250.000000 1.22397000e+09
4270.000000 1.19766000e+09
4290.000000 1.18048000e+09
4310.000000 1.15290000e+09
4330.000000 1.11567000e+09
4350.000000 1.05198000e+09
4370.000000 1.10163000e+09
4390.000000 1.08276000e+09
4410.000000 1.06599000e+09
4430.000000 1.05840000e+09
4450.000000 1.03928000e+09
4470.000000 1.01328000e+09
4490.000000 1.00879000e+09
4510.000000 9.86511000e+08
4530.000000 9.75543000e+08
4550.000000 9.56122000e+08
4570.000000 9.47519000e+08
4590.000000 9.29874000e+08
4610.000000 9.15265000e+08
4630.000000 8.96988000e+08
4650.000000 8.54356000e+08
4670.000000 8.69873000e+08
4690.000000 8.52467000e+08
4710.000000 8.41184000e+08
4730.000000 8.41596000e+08
4750.000000 8.27577000e+08
4770.000000 8.18980000e+08
4790.000000 8.06408000e+08
4810.000000 7.92942000e+08
4830.000000 7.79542000e+08
4850.000000 7.60041000e+08
4870.000000 7.05396000e+08
4890.000000 7.46130000e+08
4910.000000 7.34735000e+08
4930.000000 7.17858000e+08
4950.000000 7.11454000e+08
4970.000000 7.05434000e+08
4990.000000 6.95161000e+08
5010.000000 6.75018000e+08
5030.000000 6.73026000e+08
5050.000000 6.62477000e+08
5070.000000 6.55927000e+08
5090.000000 6.46245000e+08
5110.000000 6.36811000e+08
5130.000000 6.26802000e+08
5150.000000 6.18093000e+08
5170.000000 6.09557000e+08
5190.000000 6.01666000e+08
5210.000000 5.93585000e+08
5230.000000 5.85336000e+08
5250.000000 5.75554000e+08
5270.000000 5.67463000e+08
5290.000000 5.61323000e+08
5310.000000 5.53481000e+08
5330.000000 5.45994000e+08
5350.000000 5.38642000e+08
5370.000000 5.31293000e+08
5390.000000 5.23700000e+08
5410.000000 5.13670000e+08
5430.000000 5.10148000e+08
5450.000000 5.03190000e+08
5470.000000 4.96268000e+08
5490.000000 4.89709000e+08
5510.000000 4.83071000e+08
5530.000000 4.76676000e+08
5550.000000 4.70788000e+08
5570.000000 4.64159000e+08
5590.000000 4.57275000e+08
5610.000000 4.52488000e+08
5630.000000 4.46581000e+08
5650.000000 4.40534000e+08
5670.000000 4.34009000e+08
5690.000000 4.23179000e+08
5710.000000 4.13565000e+08
5730.000000 4.08583000e+08
5750.000000 4.02703000e+08
5770.000000 3.98694000e+08
5790.000000 3.93686000e+08
5810.000000 3.88413000e+08
5830.000000 3.83968000e+08
5850.000000 3.80995000e+08
5870.000000 3.70783000e+08
5890.000000 3.72233000e+08
5910.000000 3.69070000e+08
5930.000000 3.65278000e+08
5950.000000 3.61879000e+08
5970.000000 3.59226000e+08
5990.000000 3.54228000e+08
6010.000000 3.50330000e+08
6030.000000 3.45555000e+08
6050.000000 3.41524000e+08
6070.000000 3.37570000e+08
6090.000000 3.33670000e+08
6110.000000 3.29350000e+08
6130.000000 3.25480000e+08
6150.000000 3.21085000e+08
6170.000000 3.17127000e+08
6190.000000 3.13999000e+08
6210.000000 3.10437000e+08
6230.000000 3.06311000e+08
6250.000000 3.02801000e+08
6270.000000 2.99378000e+08
6290.000000 2.95915000e+08
6310.000000 2.91762000e+08
6330.000000 2.89038000e+08
6350.000000 2.85426000e+08
6370.000000 2.82337000e+08
6390.000000 2.78994000e+08
6410.000000 2.75266000e+08
6430.000000 2.72618000e+08
6450.000000 2.69246000e+08
6470.000000 2.65712000e+08
6490.000000 2.62789000e+08
6510.000000 2.59852000e+08
6530.000000 2.56354000e+08
6550.000000 2.52139000e+08
6570.000000 2.31790000e+08
6590.000000 2.47414000e+08
6610.000000 2.45539000e+08
6630.000000 2.42980000e+08
6650.000000 2.40115000e+08
6670.000000 2.35663000e+08
6690.000000 2.32732000e+08
6710.000000 2.31874000e+08
6730.000000 2.28909000e+08
6750.000000 2.26794000e+08
6770.000000 2.24618000e+08
6790.000000 2.21654000e+08
6810.000000 2.19720000e+08
6830.000000 2.17281000e+08
6850.000000 2.14930000e+08
6870.000000 2.12483000e+08
6890.000000 2.09458000e+08
6910.000000 2.07561000e+08
6930.000000 2.05831000e+08
6950.000000 2.03587000e+08
6970.000000 2.01412000e+08
6990.000000 1.99236000e+08
7010.000000 1.96951000e+08
7030.000000 1.94536000e+08
7050.000000 1.92714000e+08
7070.000000 1.88512000e+08
7090.000000 1.88836000e+08
7110.000000 1.86382000e+08
7130.000000 1.84530000e+08
7150.000000 1.82939000e+08
7170.000000 1.80608000e+08
7190.000000 1.79000000e+08
7210.000000 1.77262000e+08
7230.000000 1.74106000e+08
7250.000000 1.73326000e+08
7270.000000 1.71789000e+08
7290.000000 1.69033000e+08
7310.000000 1.68180000e+08
7330.000000 1.66485000e+08
7350.000000 1.64806000e+08
7370.000000 1.63115000e+08
7390.000000 1.61475000e+08
7410.000000 1.59809000e+08
7430.000000 1.58205000e+08
7450.000000 1.56536000e+08
7470.000000 1.54700000e+08
7490.000000 1.53069000e+08
7510.000000 1.51840000e+08
7530.000000 1.50304000e+08
7550.000000 1.48881000e+08
7570.000000 1.47352000e+08
7590.000000 1.45354000e+08
7610.000000 1.44214000e+08
7630.000000 1.42941000e+08
7650.000000 1.41564000e+08
7670.000000 1.40237000e+08
7690.000000 1.38623000e+08
7710.000000 1.37341000e+08
7730.000000 1.35868000e+08
7750.000000 1.34760000e+08
7770.000000 1.33493000e+08
7790.000000 1.32206000e+08
7810.000000 1.30888000e+08
7830.000000 1.29655000e+08
7850.000000 1.28329000e+08
7870.000000 1.27020000e+08
7890.000000 1.25766000e+08
7910.000000 1.24709000e+08
7930.000000 1.23488000e+08
7950.000000 1.22414000e+08
7970.000000 1.21136000e+08
7990.000000 1.20059000e+08
8010.000000 1.18879000e+08
8030.000000 1.17685000e+08
8050.000000 1.16689000e+08
8070.000000 1.15596000e+08
8090.000000 1.14415000e+08
8110.000000 1.12969000e+08
8130.000000 1.12391000e+08
8150.000000 1.11234000e+08
8170.000000 1.10300000e+08
8190.000000 1.08920000e+08
8210.000000 1.06892000e+08
8230.000000 1.05667000e+08
8250.000000 1.05116000e+08
8270.000000 1.03666000e+08
8290.000000 1.03150000e+08
8310.000000 1.02305000e+08
8330.000000 1.01201000e+08
8350.000000 1.00004000e+08
8370.000000 9.93597000e+07
8390.000000 9.86564000e+07
8410.000000 9.77190000e+07
8430.000000 9.68689000e+07
8450.000000 9.57408000e+07
8470.000000 9.50109000e+07
8490.000000 9.44331000e+07
8510.000000 9.27621000e+07
8530.000000 9.29955000e+07
8550.000000 9.08139000e+07
8570.000000 9.19961000e+07
8590.000000 8.93319000e+07
8610.000000 8.86277000e+07
8630.000000 9.01497000e+07
8650.000000 8.85451000e+07
8670.000000 8.40524000e+07
8690.000000 8.80411000e+07
8710.000000 8.76770000e+07
8730.000000 8.61338000e+07
8750.000000 8.02935000e+07
8770.000000 8.42625000e+07
8790.000000 8.49181000e+07
8810.000000 8.42806000e+07
8830.000000 8.33629000e+07
8850.000000 8.06874000e+07
8870.000000 7.60527000e+07
8890.000000 8.10783000e+07
8910.000000 8.07053000e+07
8930.000000 7.99568000e+07
8950.000000 7.93082000e+07
8970.000000 7.87209000e+07
8990.000000 7.74294000e+07
9010.000000 7.18467000e+07
9030.000000 7.44118000e+07
9050.000000 7.59783000e+07
9070.000000 7.50254000e+07
9090.000000 7.46546000e+07
9110.000000 7.41864000e+07
9130.000000 7.35996000e+07
9150.000000 7.30038000e+07
9170.000000 7.22645000e+07
9190.000000 7.17005000e+07
9210.000000 6.99816000e+07
9230.000000 6.43235000e+07
9250.000000 6.90386000e+07
9270.000000 6.93110000e+07
9290.000000 6.87946000e+07
9310.000000 6.80864000e+07
9330.000000 6.75785000e+07
9350.000000 6.68156000e+07
9370.000000 6.65007000e+07
9390.000000 6.60468000e+07
9410.000000 6.54302000e+07
9430.000000 6.49327000e+07
9450.000000 6.44177000e+07
9470.000000 6.37300000e+07
9490.000000 6.33696000e+07
9510.000000 6.24452000e+07
9530.000000 6.11464000e+07
9550.000000 5.64170000e+07
9570.000000 6.08625000e+07
9590.000000 6.08793000e+07
9610.000000 6.02794000e+07
9630.000000 5.96881000e+07
9650.000000 5.94773000e+07
9670.000000 5.90180000e+07
9690.000000 5.85179000e+07
9710.000000 5.69904000e+07
9730.000000 5.74488000e+07
9750.000000 5.71618000e+07
9770.000000 5.66715000e+07
9790.000000 5.62633000e+07
9810.000000 5.57992000e+07
9830.000000 5.53853000e+07
9850.000000 5.49431000e+07
9870.000000 5.45080000e+07
9890.000000 5.40259000e+07
9910.000000 5.34705000e+07
9930.000000 5.32706000e+07
9950.000000 5.28626000e+07
9970.000000 5.24271000e+07
9990.000000 5.20475000e+07
10025.000000 5.03277000e+07
10075.000000 4.88162000e+07
10125.000000 4.90482000e+07
10175.000000 4.84982000e+07
10225.000000 4.75602000e+07
10275.000000 4.66810000e+07
10325.000000 4.56964000e+07
10375.000000 4.49805000e+07
10425.000000 4.41271000e+07
10475.000000 4.33464000e+07
10525.000000 4.25444000e+07
10575.000000 4.17792000e+07
10625.000000 4.10199000e+07
10675.000000 4.02464000e+07
10725.000000 3.95642000e+07
10775.000000 3.88539000e+07
10825.000000 3.78399000e+07
10875.000000 3.74768000e+07
10925.000000 3.51145000e+07
10975.000000 3.59025000e+07
11025.000000 3.54350000e+07
11075.000000 3.49284000e+07
11125.000000 3.43229000e+07
11175.000000 3.37390000e+07
11225.000000 3.31490000e+07
11275.000000 3.25890000e+07
11325.000000 3.20081000e+07
11375.000000 3.14828000e+07
11425.000000 3.09481000e+07
11475.000000 3.04358000e+07
11525.000000 2.99340000e+07
11575.000000 2.94201000e+07
11625.000000 2.88776000e+07
11675.000000 2.84069000e+07
11725.000000 2.79980000e+07
11775.000000 2.75352000e+07
11825.000000 2.70765000e+07
11875.000000 2.66422000e+07
11925.000000 2.62103000e+07
11975.000000 2.56101000e+07
12025.000000 2.53762000e+07
12075.000000 2.49673000e+07
12125.000000 2.45591000e+07
12175.000000 2.41802000e+07
12225.000000 2.37973000e+07
12275.000000 2.34238000e+07
12325.000000 2.30516000e+07
12375.000000 2.26922000e+07
12425.000000 2.23418000e+07
12475.000000 2.19895000e+07
12525.000000 2.16116000e+07
12575.000000 2.13100000e+07
12625.000000 2.09875000e+07
12675.000000 2.06728000e+07
12725.000000 2.03572000e+07
12775.000000 1.98576000e+07
12825.000000 1.88373000e+07
12875.000000 1.94238000e+07
12925.000000 1.91561000e+07
12975.000000 1.87923000e+07
13025.000000 1.85768000e+07
13075.000000 1.83138000e+07
