# Kurucz ODFNEW /NOVER, alpha: 0.0 (2003)
# teff = 9750 K (value for the effective temperature for the model. Temperatures are given in K)
# logg = 5 log(cm/s2) (value for Log(G) for the model.)
# lh = 1.25  (l/Hp where l is the  mixing length of the convective element and Hp is the pressure scale height)
# meta = -0.5  (value for the Metallicity for the model.)
# vtur = 2 km/s (Microturbulence velocity)
# alpha = 0  (Alpha)
#
# column 1: WAVELENGTH (ANGSTROM), Wavelength in Angstrom
# column 2: FLUX (ERG/CM2/S/A), Flux in erg/cm2/s/A
268.500000 4.23884000e-23
273.500000 2.06943000e-22
278.500000 8.50919000e-22
284.000000 3.72713000e-21
290.000000 1.75249000e-20
296.000000 7.74089000e-20
301.000000 2.55878000e-19
308.000000 1.28057000e-18
318.000000 1.13026000e-17
328.000000 8.77077000e-17
338.000000 6.03623000e-16
348.000000 3.71335000e-15
357.000000 1.74739000e-14
366.000000 7.62593000e-14
375.000000 3.09367000e-13
385.000000 1.35628000e-12
395.000000 5.51868000e-12
405.000000 2.09055000e-11
414.000000 6.54984000e-11
422.000000 1.73411000e-10
430.000000 4.42418000e-10
441.000000 1.51367000e-09
451.000000 4.38664000e-09
460.000000 1.09796000e-08
470.000000 2.91424000e-08
480.000000 7.41245000e-08
490.000000 1.81273000e-07
500.000000 4.26955000e-07
506.000000 7.22321000e-07
512.000000 1.18436000e-06
520.000000 2.21203000e-06
530.000000 4.69859000e-06
540.000000 9.67921000e-06
550.000000 1.94293000e-05
560.000000 3.79793000e-05
570.000000 7.24123000e-05
580.000000 1.34823000e-04
590.000000 2.45745000e-04
600.000000 4.38314000e-04
610.000000 7.66195000e-04
620.000000 1.31404000e-03
630.000000 2.21311000e-03
640.000000 3.66299000e-03
650.000000 5.96276000e-03
658.000000 8.70639000e-03
665.000000 1.20279000e-02
675.000000 1.88470000e-02
685.000000 2.91163000e-02
695.000000 4.43870000e-02
705.000000 6.67952000e-02
716.000000 1.03218000e-01
726.000000 1.51435000e-01
735.000000 2.11759000e-01
745.000000 3.04200000e-01
755.000000 4.32447000e-01
765.000000 6.08631000e-01
775.000000 8.48390000e-01
785.000000 1.17165000e+00
795.000000 1.60378000e+00
805.000000 2.17657000e+00
815.000000 2.92972000e+00
825.000000 3.91228000e+00
835.000000 5.18460000e+00
845.000000 6.82046000e+00
855.000000 8.90875000e+00
865.000000 1.15573000e+01
875.000000 1.48940000e+01
885.000000 1.90730000e+01
895.000000 2.42745000e+01
905.000000 3.07110000e+01
915.000000 1.54917000e+02
925.000000 1.08630000e+03
935.000000 1.93828000e+03
945.000000 3.47919000e+03
955.000000 5.06299000e+03
965.000000 6.77059000e+03
975.000000 5.40311000e+03
985.000000 9.84239000e+03
995.000000 1.10451000e+04
1005.000000 1.35504000e+04
1015.000000 1.48271000e+04
1025.000000 9.81747000e+03
1035.000000 1.88659000e+04
1045.000000 2.33577000e+04
1055.000000 2.67580000e+04
1065.000000 2.96953000e+04
1075.000000 3.46078000e+04
1085.000000 3.91474000e+04
1095.000000 4.29789000e+04
1105.000000 6.45425000e+04
1115.000000 8.12837000e+05
1125.000000 1.56824000e+06
1135.000000 2.29206000e+06
1145.000000 1.73528000e+06
1155.000000 1.35165000e+06
1165.000000 8.08071000e+05
1175.000000 3.97133000e+05
1185.000000 3.00101000e+05
1195.000000 1.62379000e+05
1205.000000 1.28498000e+05
1215.000000 3.53806000e+04
1225.000000 1.36327000e+05
1235.000000 2.72490000e+05
1245.000000 4.27933000e+05
1255.000000 9.47358000e+05
1265.000000 2.27023000e+06
1275.000000 6.82974000e+06
1285.000000 1.88373000e+07
1295.000000 2.77342000e+07
1305.000000 2.28645000e+07
1315.000000 4.01669000e+07
1325.000000 4.98865000e+07
1335.000000 5.51621000e+07
1345.000000 6.84976000e+07
1355.000000 6.34912000e+07
1365.000000 6.20609000e+07
1375.000000 6.21000000e+07
1385.000000 4.98607000e+07
1395.000000 5.08172000e+07
1405.000000 6.97036000e+07
1415.000000 8.54809000e+07
1425.000000 9.53389000e+07
1435.000000 8.47466000e+07
1442.000000 1.00422000e+08
1447.000000 1.03781000e+08
1455.000000 1.07165000e+08
1465.000000 9.75462000e+07
1475.000000 9.72860000e+07
1485.000000 9.93080000e+07
1495.000000 1.06960000e+08
1505.000000 1.09315000e+08
1512.000000 1.01486000e+08
1517.000000 1.08835000e+08
1525.000000 1.02253000e+08
1535.000000 1.03356000e+08
1545.000000 1.12642000e+08
1555.000000 8.67715000e+07
1565.000000 7.08891000e+07
1575.000000 9.53948000e+07
1585.000000 1.06941000e+08
1595.000000 1.12613000e+08
1605.000000 1.10466000e+08
1615.000000 1.13237000e+08
1625.000000 1.02369000e+08
1635.000000 1.08842000e+08
1645.000000 1.28181000e+08
1655.000000 9.88744000e+07
1665.000000 1.27162000e+08
1672.000000 9.96447000e+07
1677.000000 1.20010000e+08
1685.000000 1.31873000e+08
1695.000000 1.14048000e+08
1705.000000 1.16400000e+08
1715.000000 1.21728000e+08
1725.000000 1.19354000e+08
1735.000000 1.25888000e+08
1745.000000 1.21350000e+08
1755.000000 1.29934000e+08
1765.000000 1.12171000e+08
1775.000000 1.25874000e+08
1785.000000 1.24539000e+08
1795.000000 1.32755000e+08
1805.000000 1.25159000e+08
1815.000000 1.24287000e+08
1825.000000 1.18800000e+08
1835.000000 1.17464000e+08
1845.000000 1.08791000e+08
1855.000000 1.13894000e+08
1865.000000 1.15676000e+08
1875.000000 1.18239000e+08
1885.000000 1.17815000e+08
1895.000000 1.17172000e+08
1905.000000 1.11772000e+08
1915.000000 1.15786000e+08
1925.000000 1.16589000e+08
1935.000000 1.10668000e+08
1945.000000 1.18455000e+08
1955.000000 1.16990000e+08
1967.000000 1.18654000e+08
1976.000000 1.15173000e+08
1984.000000 1.13040000e+08
1995.000000 1.10727000e+08
2005.000000 1.07864000e+08
2015.000000 1.05432000e+08
2025.000000 1.03061000e+08
2035.000000 1.07354000e+08
2045.000000 1.09739000e+08
2055.000000 1.05462000e+08
2065.000000 1.04249000e+08
2074.000000 1.07603000e+08
2078.000000 1.09780000e+08
2085.000000 1.08550000e+08
2095.000000 1.04941000e+08
2105.000000 1.02824000e+08
2115.000000 1.02898000e+08
2125.000000 1.03501000e+08
2135.000000 9.25826000e+07
2145.000000 1.00818000e+08
2155.000000 9.99577000e+07
2165.000000 9.54357000e+07
2175.000000 9.43451000e+07
2185.000000 9.51406000e+07
2195.000000 9.92643000e+07
2205.000000 9.54061000e+07
2215.000000 8.88952000e+07
2225.000000 8.90187000e+07
2235.000000 9.65274000e+07
2245.000000 8.89645000e+07
2255.000000 8.69103000e+07
2265.000000 8.61006000e+07
2275.000000 9.06953000e+07
2285.000000 9.27172000e+07
2295.000000 8.73619000e+07
2305.000000 8.70310000e+07
2315.000000 8.54512000e+07
2325.000000 8.52683000e+07
2335.000000 8.33441000e+07
2345.000000 7.70377000e+07
2355.000000 8.44954000e+07
2365.000000 7.77205000e+07
2375.000000 8.10279000e+07
2385.000000 7.31507000e+07
2395.000000 7.85966000e+07
2405.000000 7.57168000e+07
2415.000000 7.67253000e+07
2425.000000 7.96877000e+07
2435.000000 7.59911000e+07
2445.000000 7.99901000e+07
2455.000000 7.75333000e+07
2465.000000 7.69613000e+07
2475.000000 7.40159000e+07
2485.000000 7.69415000e+07
2495.000000 7.45588000e+07
2505.000000 8.03886000e+07
2513.000000 7.48368000e+07
2518.000000 7.48489000e+07
2525.000000 7.07532000e+07
2535.000000 6.99088000e+07
2545.000000 6.96048000e+07
2555.000000 7.36836000e+07
2565.000000 7.35682000e+07
2575.000000 7.73330000e+07
2585.000000 7.76943000e+07
2595.000000 7.72477000e+07
2605.000000 7.43352000e+07
2615.000000 7.36631000e+07
2625.000000 7.60443000e+07
2635.000000 7.61953000e+07
2645.000000 8.17052000e+07
2655.000000 8.08183000e+07
2665.000000 7.64362000e+07
2675.000000 7.83244000e+07
2685.000000 7.88238000e+07
2695.000000 7.56153000e+07
2705.000000 7.62363000e+07
2715.000000 7.33606000e+07
2725.000000 7.34522000e+07
2735.000000 7.69955000e+07
2745.000000 6.92360000e+07
2755.000000 6.96972000e+07
2765.000000 7.19387000e+07
2775.000000 7.46157000e+07
2785.000000 7.30706000e+07
2795.000000 5.97837000e+07
2805.000000 6.56114000e+07
2815.000000 7.55957000e+07
2825.000000 7.54297000e+07
2835.000000 7.33001000e+07
2845.000000 7.11474000e+07
2855.000000 6.93187000e+07
2865.000000 7.23055000e+07
2875.000000 7.09146000e+07
2885.000000 7.21166000e+07
2895.000000 7.08596000e+07
2910.000000 7.47311000e+07
2930.000000 7.20512000e+07
2950.000000 7.16706000e+07
2970.000000 7.17379000e+07
2990.000000 7.15609000e+07
3010.000000 7.19645000e+07
3030.000000 7.13582000e+07
3050.000000 7.07130000e+07
3070.000000 6.99705000e+07
3090.000000 6.99870000e+07
3110.000000 6.89534000e+07
3130.000000 6.84826000e+07
3150.000000 6.85801000e+07
3170.000000 6.80212000e+07
3190.000000 6.59788000e+07
3210.000000 6.65741000e+07
3230.000000 6.54020000e+07
3250.000000 6.56695000e+07
3270.000000 6.57847000e+07
3290.000000 6.56973000e+07
3310.000000 6.55144000e+07
3330.000000 6.43901000e+07
3350.000000 6.33785000e+07
3370.000000 6.32322000e+07
3390.000000 6.25735000e+07
3410.000000 6.28881000e+07
3430.000000 6.24707000e+07
3450.000000 6.19890000e+07
3470.000000 6.13829000e+07
3490.000000 6.10618000e+07
3510.000000 6.10254000e+07
3530.000000 6.07289000e+07
3550.000000 6.04232000e+07
3570.000000 5.95264000e+07
3590.000000 5.91427000e+07
3610.000000 5.87551000e+07
3630.000000 5.84554000e+07
3640.000000 5.82285000e+07
3650.000000 5.85829000e+07
3670.000000 5.84580000e+07
3690.000000 5.72920000e+07
3710.000000 5.58986000e+07
3730.000000 5.30994000e+07
3750.000000 5.96177000e+07
3770.000000 6.15447000e+07
3790.000000 7.33888000e+07
3810.000000 8.63596000e+07
3830.000000 6.95037000e+07
3850.000000 9.73486000e+07
3870.000000 1.13135000e+08
3890.000000 6.09131000e+07
3910.000000 1.14800000e+08
3930.000000 1.28418000e+08
3950.000000 1.15022000e+08
3970.000000 5.87507000e+07
3990.000000 1.08349000e+08
4010.000000 1.34806000e+08
4030.000000 1.38598000e+08
4050.000000 1.35703000e+08
4070.000000 1.23079000e+08
4090.000000 8.46668000e+07
4110.000000 6.44799000e+07
4130.000000 1.13145000e+08
4150.000000 1.26799000e+08
4170.000000 1.29049000e+08
4190.000000 1.28434000e+08
4210.000000 1.27164000e+08
4230.000000 1.24555000e+08
4250.000000 1.23123000e+08
4270.000000 1.19689000e+08
4290.000000 1.15974000e+08
4310.000000 1.03389000e+08
4330.000000 7.00014000e+07
4350.000000 5.97810000e+07
4370.000000 9.79202000e+07
4390.000000 1.07455000e+08
4410.000000 1.09553000e+08
4430.000000 1.09378000e+08
4450.000000 1.09321000e+08
4470.000000 1.08072000e+08
4490.000000 1.05738000e+08
4510.000000 1.05663000e+08
4530.000000 1.04182000e+08
4550.000000 1.02303000e+08
4570.000000 1.01985000e+08
4590.000000 1.00360000e+08
4610.000000 9.98172000e+07
4630.000000 9.79691000e+07
4650.000000 9.72623000e+07
4670.000000 9.60216000e+07
4690.000000 9.39952000e+07
4710.000000 9.11507000e+07
4730.000000 9.21495000e+07
4750.000000 9.08191000e+07
4770.000000 8.91783000e+07
4790.000000 8.70953000e+07
4810.000000 8.35279000e+07
4830.000000 7.56175000e+07
4850.000000 5.47721000e+07
4870.000000 4.49116000e+07
4890.000000 6.97400000e+07
4910.000000 7.77177000e+07
4930.000000 7.91592000e+07
4950.000000 7.98093000e+07
4970.000000 7.95816000e+07
4990.000000 7.87392000e+07
5010.000000 7.74303000e+07
5030.000000 7.71345000e+07
5050.000000 7.59959000e+07
5070.000000 7.56364000e+07
5090.000000 7.47858000e+07
5110.000000 7.39750000e+07
5130.000000 7.30772000e+07
5150.000000 7.21613000e+07
5170.000000 7.05484000e+07
5190.000000 6.99834000e+07
5210.000000 6.97413000e+07
5230.000000 6.86608000e+07
5250.000000 6.83163000e+07
5270.000000 6.70310000e+07
5290.000000 6.67702000e+07
5310.000000 6.58379000e+07
5330.000000 6.50185000e+07
5350.000000 6.45938000e+07
5370.000000 6.37805000e+07
5390.000000 6.31200000e+07
5410.000000 6.22796000e+07
5430.000000 6.17424000e+07
5450.000000 6.11240000e+07
5470.000000 6.04663000e+07
5490.000000 5.98378000e+07
5510.000000 5.92156000e+07
5530.000000 5.85010000e+07
5550.000000 5.79529000e+07
5570.000000 5.73068000e+07
5590.000000 5.66792000e+07
5610.000000 5.61190000e+07
5630.000000 5.55558000e+07
5650.000000 5.49519000e+07
5670.000000 5.43517000e+07
5690.000000 5.38050000e+07
5710.000000 5.32462000e+07
5730.000000 5.27225000e+07
5750.000000 5.21445000e+07
5770.000000 5.16161000e+07
5790.000000 5.10748000e+07
5810.000000 5.05597000e+07
5830.000000 5.00438000e+07
5850.000000 4.95250000e+07
5870.000000 4.89792000e+07
5890.000000 4.82367000e+07
5910.000000 4.80219000e+07
5930.000000 4.75410000e+07
5950.000000 4.70389000e+07
5970.000000 4.65784000e+07
5990.000000 4.60852000e+07
6010.000000 4.56131000e+07
6030.000000 4.51867000e+07
6050.000000 4.47330000e+07
6070.000000 4.43048000e+07
6090.000000 4.38609000e+07
6110.000000 4.34168000e+07
6130.000000 4.29665000e+07
6150.000000 4.24027000e+07
6170.000000 4.21025000e+07
6190.000000 4.17502000e+07
6210.000000 4.13401000e+07
6230.000000 4.09246000e+07
6250.000000 4.04452000e+07
6270.000000 4.01512000e+07
6290.000000 3.97629000e+07
6310.000000 3.93523000e+07
6330.000000 3.89846000e+07
6350.000000 3.84190000e+07
6370.000000 3.80741000e+07
6390.000000 3.77817000e+07
6410.000000 3.73639000e+07
6430.000000 3.69778000e+07
6450.000000 3.64518000e+07
6470.000000 3.60432000e+07
6490.000000 3.53831000e+07
6510.000000 3.44123000e+07
6530.000000 3.23721000e+07
6550.000000 2.70000000e+07
6570.000000 2.21229000e+07
6590.000000 2.99107000e+07
6610.000000 3.23434000e+07
6630.000000 3.29876000e+07
6650.000000 3.30621000e+07
6670.000000 3.29318000e+07
6690.000000 3.27335000e+07
6710.000000 3.24918000e+07
6730.000000 3.22183000e+07
6750.000000 3.19508000e+07
6770.000000 3.17294000e+07
6790.000000 3.14480000e+07
6810.000000 3.11644000e+07
6830.000000 3.08748000e+07
6850.000000 3.06016000e+07
6870.000000 3.03311000e+07
6890.000000 3.00616000e+07
6910.000000 2.97932000e+07
6930.000000 2.95234000e+07
6950.000000 2.92633000e+07
6970.000000 2.90025000e+07
6990.000000 2.87504000e+07
7010.000000 2.84708000e+07
7030.000000 2.82336000e+07
7050.000000 2.79903000e+07
7070.000000 2.77507000e+07
7090.000000 2.75112000e+07
7110.000000 2.71510000e+07
7130.000000 2.70137000e+07
7150.000000 2.67810000e+07
7170.000000 2.65585000e+07
7190.000000 2.63271000e+07
7210.000000 2.61030000e+07
7230.000000 2.58781000e+07
7250.000000 2.56430000e+07
7270.000000 2.54408000e+07
7290.000000 2.52135000e+07
7310.000000 2.50024000e+07
7330.000000 2.47905000e+07
7350.000000 2.45867000e+07
7370.000000 2.43792000e+07
7390.000000 2.41674000e+07
7410.000000 2.39528000e+07
7430.000000 2.37332000e+07
7450.000000 2.35483000e+07
7470.000000 2.33204000e+07
7490.000000 2.31430000e+07
7510.000000 2.29698000e+07
7530.000000 2.27835000e+07
7550.000000 2.26008000e+07
7570.000000 2.24125000e+07
7590.000000 2.22278000e+07
7610.000000 2.20448000e+07
7630.000000 2.18614000e+07
7650.000000 2.16797000e+07
7670.000000 2.14931000e+07
7690.000000 2.13222000e+07
7710.000000 2.11477000e+07
7730.000000 2.09830000e+07
7750.000000 2.08102000e+07
7770.000000 2.03457000e+07
7790.000000 2.04772000e+07
7810.000000 2.03120000e+07
7830.000000 2.01395000e+07
7850.000000 1.99679000e+07
7870.000000 1.97735000e+07
7890.000000 1.95941000e+07
7910.000000 1.94897000e+07
7930.000000 1.93412000e+07
7950.000000 1.91600000e+07
7970.000000 1.90479000e+07
7990.000000 1.88140000e+07
8010.000000 1.87437000e+07
8030.000000 1.85926000e+07
8050.000000 1.84503000e+07
8070.000000 1.83023000e+07
8090.000000 1.81595000e+07
8110.000000 1.80208000e+07
8130.000000 1.78821000e+07
8150.000000 1.77428000e+07
8170.000000 1.76047000e+07
8190.000000 1.74155000e+07
8210.000000 1.73319000e+07
8230.000000 1.71965000e+07
8250.000000 1.70745000e+07
8270.000000 1.70097000e+07
8290.000000 1.68838000e+07
8310.000000 1.67661000e+07
8330.000000 1.65896000e+07
8350.000000 1.65297000e+07
8370.000000 1.64137000e+07
8390.000000 1.62879000e+07
8410.000000 1.61684000e+07
8430.000000 1.60351000e+07
8450.000000 1.57867000e+07
8470.000000 1.57411000e+07
8490.000000 1.56556000e+07
8510.000000 1.53105000e+07
8530.000000 1.54294000e+07
8550.000000 1.47419000e+07
8570.000000 1.53031000e+07
8590.000000 1.46938000e+07
8610.000000 1.44904000e+07
8630.000000 1.51209000e+07
8650.000000 1.45511000e+07
8670.000000 1.31028000e+07
8690.000000 1.46319000e+07
8710.000000 1.50113000e+07
8730.000000 1.43341000e+07
8750.000000 1.20553000e+07
8770.000000 1.36359000e+07
8790.000000 1.47807000e+07
8810.000000 1.49272000e+07
8830.000000 1.44205000e+07
8850.000000 1.26844000e+07
8870.000000 1.11405000e+07
8890.000000 1.35253000e+07
8910.000000 1.44346000e+07
8930.000000 1.46936000e+07
8950.000000 1.46755000e+07
8970.000000 1.42140000e+07
8990.000000 1.31291000e+07
9010.000000 1.06336000e+07
9030.000000 1.13923000e+07
9050.000000 1.32118000e+07
9070.000000 1.37805000e+07
9090.000000 1.39197000e+07
9110.000000 1.41273000e+07
9130.000000 1.41103000e+07
9150.000000 1.39334000e+07
9170.000000 1.35838000e+07
9190.000000 1.29288000e+07
9210.000000 1.16082000e+07
9230.000000 9.32483000e+06
9250.000000 1.11452000e+07
9270.000000 1.23265000e+07
9290.000000 1.29832000e+07
9310.000000 1.31757000e+07
9330.000000 1.32158000e+07
9350.000000 1.31920000e+07
9370.000000 1.31298000e+07
9390.000000 1.30150000e+07
9410.000000 1.27848000e+07
9430.000000 1.27934000e+07
9450.000000 1.26443000e+07
9470.000000 1.24230000e+07
9490.000000 1.20661000e+07
9510.000000 1.14218000e+07
9530.000000 1.01254000e+07
9550.000000 8.36589000e+06
9570.000000 1.02297000e+07
9590.000000 1.12222000e+07
9610.000000 1.16027000e+07
9630.000000 1.16927000e+07
9650.000000 1.18061000e+07
9670.000000 1.17238000e+07
9690.000000 1.17313000e+07
9710.000000 1.16906000e+07
9730.000000 1.16195000e+07
9750.000000 1.15409000e+07
9770.000000 1.14728000e+07
9790.000000 1.13942000e+07
9810.000000 1.13137000e+07
9830.000000 1.12275000e+07
9850.000000 1.11370000e+07
9870.000000 1.10509000e+07
9890.000000 1.09250000e+07
9910.000000 1.08648000e+07
9930.000000 1.07512000e+07
9950.000000 1.06250000e+07
9970.000000 1.04513000e+07
9990.000000 1.01777000e+07
10025.000000 8.89113000e+06
10075.000000 8.45052000e+06
10125.000000 9.79568000e+06
10175.000000 9.90269000e+06
10225.000000 9.80391000e+06
10275.000000 9.66234000e+06
10325.000000 9.51845000e+06
10375.000000 9.36603000e+06
10425.000000 9.21262000e+06
10475.000000 9.03768000e+06
10525.000000 8.90304000e+06
10575.000000 8.76111000e+06
10625.000000 8.62111000e+06
10675.000000 8.38682000e+06
10725.000000 8.28587000e+06
10775.000000 8.15204000e+06
10825.000000 7.94767000e+06
10875.000000 7.55971000e+06
10925.000000 6.19941000e+06
10975.000000 6.76139000e+06
11025.000000 7.35603000e+06
11075.000000 7.39326000e+06
11125.000000 7.32026000e+06
11175.000000 7.22443000e+06
11225.000000 7.13002000e+06
11275.000000 6.97831000e+06
11325.000000 6.87218000e+06
11375.000000 6.80288000e+06
11425.000000 6.69613000e+06
11475.000000 6.60614000e+06
11525.000000 6.50811000e+06
11575.000000 6.40926000e+06
11625.000000 6.29599000e+06
11675.000000 6.18054000e+06
11725.000000 6.12767000e+06
11775.000000 5.98335000e+06
11825.000000 5.92667000e+06
11875.000000 5.83332000e+06
11925.000000 5.77549000e+06
11975.000000 5.67404000e+06
12025.000000 5.60402000e+06
12075.000000 5.51792000e+06
12125.000000 5.44098000e+06
12175.000000 5.36741000e+06
12225.000000 5.28906000e+06
12275.000000 5.20981000e+06
12325.000000 5.13737000e+06
12375.000000 5.06666000e+06
12425.000000 4.99766000e+06
12475.000000 4.92113000e+06
12525.000000 4.85045000e+06
12575.000000 4.76455000e+06
12625.000000 4.69096000e+06
12675.000000 4.60994000e+06
12725.000000 4.48002000e+06
12775.000000 4.17055000e+06
12825.000000 3.55450000e+06
12875.000000 4.11761000e+06
12925.000000 4.25495000e+06
12975.000000 4.24930000e+06
13025.000000 4.21052000e+06
13075.000000 4.16185000e+06
13125.000000 4.11445000e+06
13175.000000 4.05550000e+06
13225.000000 4.00680000e+06
13275.000000 3.95337000e+06
13325.000000 3.90106000e+06
13375.000000 3.84941000e+06
13425.000000 3.79843000e+06
13475.000000 3.74809000e+06
13525.000000 3.69633000e+06
13575.000000 3.64912000e+06
13625.000000 3.60290000e+06
13675.000000 3.55525000e+06
13725.000000 3.50260000e+06
13775.000000 3.46372000e+06
13825.000000 3.41939000e+06
13875.000000 3.37698000e+06
13925.000000 3.33160000e+06
13975.000000 3.29044000e+06
14025.000000 3.24902000e+06
14075.000000 3.20810000e+06
14125.000000 3.16711000e+06
14175.000000 3.12737000e+06
14225.000000 3.08792000e+06
14275.000000 3.04914000e+06
14325.000000 3.01137000e+06
14375.000000 2.97423000e+06
14425.000000 2.91979000e+06
14475.000000 2.90073000e+06
