# Kurucz ODFNEW /NOVER, alpha: 0.0 (2003)
# teff = 23000 K (value for the effective temperature for the model. Temperatures are given in K)
# logg = 4.5 log(cm/s2) (value for Log(G) for the model.)
# lh = 1.25  (l/Hp where l is the  mixing length of the convective element and Hp is the pressure scale height)
# meta = -0.5  (value for the Metallicity for the model.)
# vtur = 2 km/s (Microturbulence velocity)
# alpha = 0  (Alpha)
#
# column 1: WAVELENGTH (ANGSTROM), Wavelength in Angstrom
# column 2: FLUX (ERG/CM2/S/A), Flux in erg/cm2/s/A
147.200000 4.76879000e-16
151.000000 2.29894000e-15
155.200000 1.20207000e-14
158.800000 4.64521000e-14
162.000000 1.47338000e-13
166.000000 5.88158000e-13
170.300000 2.43181000e-12
173.400000 6.49914000e-12
176.800000 1.83976000e-11
180.200000 5.01934000e-11
181.700000 7.72746000e-11
186.100000 2.64143000e-10
191.000000 9.75112000e-10
193.900000 2.05062000e-09
198.400000 6.23841000e-09
201.800000 1.40161000e-08
205.000000 2.93333000e-08
210.500000 9.92788000e-08
216.200000 3.29730000e-07
219.800000 6.82163000e-07
223.000000 1.27710000e-06
226.800000 2.62951000e-06
230.000000 4.69188000e-05
234.000000 1.10949000e-04
240.000000 2.87923000e-04
246.500000 7.65025000e-04
252.400000 1.79714000e-03
256.800000 3.19670000e-03
260.000000 5.04087000e-03
264.000000 8.44041000e-03
268.500000 1.47755000e-02
273.500000 2.68850000e-02
278.500000 4.80510000e-02
284.000000 8.91052000e-02
290.000000 1.68852000e-01
296.000000 3.11145000e-01
301.000000 5.07914000e-01
308.000000 9.62951000e-01
318.000000 2.41113000e+00
328.000000 5.49280000e+00
338.000000 1.21308000e+01
348.000000 2.52870000e+01
357.000000 4.84003000e+01
366.000000 8.84227000e+01
375.000000 1.53256000e+02
385.000000 2.77137000e+02
395.000000 4.83537000e+02
405.000000 8.18848000e+02
414.000000 1.29135000e+03
422.000000 1.88331000e+03
430.000000 2.71861000e+03
441.000000 4.41833000e+03
451.000000 6.72016000e+03
460.000000 9.57829000e+03
470.000000 1.40529000e+04
480.000000 2.01675000e+04
490.000000 2.85850000e+04
500.000000 3.98640000e+04
506.000000 2.67028000e+05
512.000000 1.10090000e+06
520.000000 1.36240000e+06
530.000000 1.81806000e+06
540.000000 2.03855000e+06
550.000000 2.85978000e+06
560.000000 3.37026000e+06
570.000000 4.18994000e+06
580.000000 4.26049000e+06
590.000000 5.60495000e+06
600.000000 6.70505000e+06
610.000000 8.02917000e+06
620.000000 9.12363000e+06
630.000000 1.05017000e+07
640.000000 1.12412000e+07
650.000000 1.16238000e+07
658.000000 1.45240000e+07
665.000000 1.61102000e+07
675.000000 1.76646000e+07
685.000000 1.94762000e+07
695.000000 2.31002000e+07
705.000000 2.51532000e+07
716.000000 2.84412000e+07
726.000000 3.09017000e+07
735.000000 3.35080000e+07
745.000000 3.76529000e+07
755.000000 4.12924000e+07
765.000000 4.50923000e+07
775.000000 4.93849000e+07
785.000000 5.38398000e+07
795.000000 5.74931000e+07
805.000000 6.17743000e+07
815.000000 6.58656000e+07
825.000000 7.17730000e+07
835.000000 7.39005000e+07
845.000000 8.02659000e+07
855.000000 8.52998000e+07
865.000000 9.17221000e+07
875.000000 9.86963000e+07
885.000000 1.06060000e+08
895.000000 1.12338000e+08
905.000000 1.15614000e+08
915.000000 1.61901000e+08
925.000000 7.40008000e+08
935.000000 2.18904000e+09
945.000000 7.36437000e+09
955.000000 1.27205000e+10
965.000000 1.72234000e+10
975.000000 3.53671000e+09
985.000000 2.06221000e+10
995.000000 1.97858000e+10
1005.000000 2.19523000e+10
1015.000000 1.90635000e+10
1025.000000 4.54065000e+09
1035.000000 1.42181000e+10
1045.000000 2.40211000e+10
1055.000000 2.28314000e+10
1065.000000 1.92715000e+10
1075.000000 2.18281000e+10
1085.000000 1.95164000e+10
1095.000000 2.15573000e+10
1105.000000 1.96312000e+10
1115.000000 1.92600000e+10
1125.000000 1.70373000e+10
1135.000000 1.96014000e+10
1145.000000 1.75651000e+10
1155.000000 1.83685000e+10
1165.000000 1.83878000e+10
1175.000000 1.34631000e+10
1185.000000 1.76570000e+10
1195.000000 1.52937000e+10
1205.000000 1.02961000e+10
1215.000000 3.72002000e+09
1225.000000 1.15412000e+10
1235.000000 1.54718000e+10
1245.000000 1.57308000e+10
1255.000000 1.53313000e+10
1265.000000 1.50315000e+10
1275.000000 1.54284000e+10
1285.000000 1.51684000e+10
1295.000000 1.18707000e+10
1305.000000 1.19488000e+10
1315.000000 1.43552000e+10
1325.000000 1.35109000e+10
1335.000000 1.27467000e+10
1345.000000 1.31285000e+10
1355.000000 1.30097000e+10
1365.000000 1.21364000e+10
1375.000000 1.19228000e+10
1385.000000 1.18817000e+10
1395.000000 1.02469000e+10
1405.000000 1.06332000e+10
1415.000000 1.08250000e+10
1425.000000 1.06828000e+10
1435.000000 1.07211000e+10
1442.000000 1.08926000e+10
1447.000000 1.06699000e+10
1455.000000 1.04426000e+10
1465.000000 9.88223000e+09
1475.000000 9.81362000e+09
1485.000000 9.55035000e+09
1495.000000 9.43161000e+09
1505.000000 8.78577000e+09
1512.000000 8.06720000e+09
1517.000000 8.28062000e+09
1525.000000 8.40958000e+09
1535.000000 7.57448000e+09
1545.000000 7.65367000e+09
1555.000000 7.28336000e+09
1565.000000 7.55420000e+09
1575.000000 7.80605000e+09
1585.000000 7.68762000e+09
1595.000000 7.68215000e+09
1605.000000 7.54314000e+09
1615.000000 7.40337000e+09
1625.000000 7.28599000e+09
1635.000000 7.46518000e+09
1645.000000 7.33627000e+09
1655.000000 7.14899000e+09
1665.000000 7.30404000e+09
1672.000000 7.03912000e+09
1677.000000 7.27048000e+09
1685.000000 7.15636000e+09
1695.000000 6.87220000e+09
1705.000000 6.59951000e+09
1715.000000 6.32988000e+09
1725.000000 6.21859000e+09
1735.000000 6.34673000e+09
1745.000000 6.18128000e+09
1755.000000 6.24094000e+09
1765.000000 5.93146000e+09
1775.000000 5.83564000e+09
1785.000000 5.83369000e+09
1795.000000 5.92789000e+09
1805.000000 5.90055000e+09
1815.000000 5.48359000e+09
1825.000000 5.59808000e+09
1835.000000 5.42322000e+09
1845.000000 5.02107000e+09
1855.000000 4.95711000e+09
1865.000000 5.01360000e+09
1875.000000 5.18155000e+09
1885.000000 4.71704000e+09
1895.000000 4.43186000e+09
1905.000000 4.70395000e+09
1915.000000 4.47938000e+09
1925.000000 4.32368000e+09
1935.000000 4.46957000e+09
1945.000000 4.54074000e+09
1955.000000 4.18747000e+09
1967.000000 4.41900000e+09
1976.000000 4.56688000e+09
1984.000000 4.26262000e+09
1995.000000 4.16529000e+09
2005.000000 4.24015000e+09
2015.000000 4.20132000e+09
2025.000000 4.29452000e+09
2035.000000 4.00680000e+09
2045.000000 4.01338000e+09
2055.000000 3.90019000e+09
2065.000000 3.93442000e+09
2074.000000 4.04451000e+09
2078.000000 3.79523000e+09
2085.000000 3.87187000e+09
2095.000000 3.69526000e+09
2105.000000 3.77152000e+09
2115.000000 3.74336000e+09
2125.000000 3.78680000e+09
2135.000000 3.69909000e+09
2145.000000 3.55398000e+09
2155.000000 3.63326000e+09
2165.000000 3.59029000e+09
2175.000000 3.53498000e+09
2185.000000 3.46829000e+09
2195.000000 3.47179000e+09
2205.000000 3.41790000e+09
2215.000000 3.36853000e+09
2225.000000 3.28908000e+09
2235.000000 3.26386000e+09
2245.000000 3.25436000e+09
2255.000000 3.17096000e+09
2265.000000 3.18142000e+09
2275.000000 3.13634000e+09
2285.000000 3.12381000e+09
2295.000000 3.00073000e+09
2305.000000 3.02524000e+09
2315.000000 2.95417000e+09
2325.000000 2.92233000e+09
2335.000000 2.84132000e+09
2345.000000 2.80946000e+09
2355.000000 2.81656000e+09
2365.000000 2.76039000e+09
2375.000000 2.73125000e+09
2385.000000 2.69111000e+09
2395.000000 2.67979000e+09
2405.000000 2.62817000e+09
2415.000000 2.59780000e+09
2425.000000 2.60057000e+09
2435.000000 2.53693000e+09
2445.000000 2.52536000e+09
2455.000000 2.51658000e+09
2465.000000 2.46787000e+09
2475.000000 2.44108000e+09
2485.000000 2.41763000e+09
2495.000000 2.32391000e+09
2505.000000 2.36027000e+09
2513.000000 2.27159000e+09
2518.000000 2.32503000e+09
2525.000000 2.28834000e+09
2535.000000 2.25103000e+09
2545.000000 2.21081000e+09
2555.000000 2.22649000e+09
2565.000000 2.19159000e+09
2575.000000 2.18715000e+09
2585.000000 2.16547000e+09
2595.000000 2.14132000e+09
2605.000000 2.12524000e+09
2615.000000 2.10302000e+09
2625.000000 2.08166000e+09
2635.000000 2.05808000e+09
2645.000000 2.05316000e+09
2655.000000 2.03211000e+09
2665.000000 1.98676000e+09
2675.000000 1.97693000e+09
2685.000000 1.96856000e+09
2695.000000 1.91850000e+09
2705.000000 1.91458000e+09
2715.000000 1.89304000e+09
2725.000000 1.85863000e+09
2735.000000 1.86042000e+09
2745.000000 1.80410000e+09
2755.000000 1.79772000e+09
2765.000000 1.77789000e+09
2775.000000 1.78541000e+09
2785.000000 1.76066000e+09
2795.000000 1.70164000e+09
2805.000000 1.71390000e+09
2815.000000 1.71168000e+09
2825.000000 1.67480000e+09
2835.000000 1.63278000e+09
2845.000000 1.64999000e+09
2855.000000 1.63429000e+09
2865.000000 1.62400000e+09
2875.000000 1.60498000e+09
2885.000000 1.58925000e+09
2895.000000 1.57218000e+09
2910.000000 1.54676000e+09
2930.000000 1.51220000e+09
2950.000000 1.47099000e+09
2970.000000 1.45517000e+09
2990.000000 1.42136000e+09
3010.000000 1.39305000e+09
3030.000000 1.37177000e+09
3050.000000 1.34436000e+09
3070.000000 1.31815000e+09
3090.000000 1.28674000e+09
3110.000000 1.26596000e+09
3130.000000 1.24275000e+09
3150.000000 1.21878000e+09
3170.000000 1.19333000e+09
3190.000000 1.16079000e+09
3210.000000 1.14963000e+09
3230.000000 1.12742000e+09
3250.000000 1.10670000e+09
3270.000000 1.08704000e+09
3290.000000 1.06523000e+09
3310.000000 1.04769000e+09
3330.000000 1.02811000e+09
3350.000000 1.00741000e+09
3370.000000 9.90711000e+08
3390.000000 9.73220000e+08
3410.000000 9.55779000e+08
3430.000000 9.34130000e+08
3450.000000 9.14121000e+08
3470.000000 9.00485000e+08
3490.000000 8.84410000e+08
3510.000000 8.70813000e+08
3530.000000 8.57889000e+08
3550.000000 8.43228000e+08
3570.000000 8.33600000e+08
3590.000000 8.12324000e+08
3610.000000 8.00370000e+08
3630.000000 7.85771000e+08
3640.000000 7.85185000e+08
3650.000000 7.71698000e+08
3670.000000 7.62471000e+08
3690.000000 7.48473000e+08
3710.000000 7.22333000e+08
3730.000000 6.91862000e+08
3750.000000 7.13274000e+08
3770.000000 7.10869000e+08
3790.000000 7.56443000e+08
3810.000000 7.93472000e+08
3830.000000 6.85124000e+08
3850.000000 8.23658000e+08
3870.000000 8.39264000e+08
3890.000000 6.45007000e+08
3910.000000 8.31421000e+08
3930.000000 8.18834000e+08
3950.000000 8.05227000e+08
3970.000000 6.01083000e+08
3990.000000 7.69545000e+08
4010.000000 7.74914000e+08
4030.000000 7.21128000e+08
4050.000000 7.58879000e+08
4070.000000 7.35815000e+08
4090.000000 6.62470000e+08
4110.000000 5.72651000e+08
4130.000000 6.89125000e+08
4150.000000 6.88361000e+08
4170.000000 6.84785000e+08
4190.000000 6.77191000e+08
4210.000000 6.67626000e+08
4230.000000 6.55559000e+08
4250.000000 6.43271000e+08
4270.000000 6.26164000e+08
4290.000000 6.20442000e+08
4310.000000 6.04110000e+08
4330.000000 5.32556000e+08
4350.000000 4.83293000e+08
4370.000000 5.72406000e+08
4390.000000 5.53011000e+08
4410.000000 5.63096000e+08
4430.000000 5.53627000e+08
4450.000000 5.47882000e+08
4470.000000 5.09486000e+08
4490.000000 5.28017000e+08
4510.000000 5.23900000e+08
4530.000000 5.14951000e+08
4550.000000 5.07031000e+08
4570.000000 4.99103000e+08
4590.000000 4.91777000e+08
4610.000000 4.83460000e+08
4630.000000 4.75707000e+08
4650.000000 4.66920000e+08
4670.000000 4.62221000e+08
4690.000000 4.56334000e+08
4710.000000 4.40936000e+08
4730.000000 4.40011000e+08
4750.000000 4.33208000e+08
4770.000000 4.30129000e+08
4790.000000 4.23146000e+08
4810.000000 4.14782000e+08
4830.000000 4.05379000e+08
4850.000000 3.65590000e+08
4870.000000 3.24281000e+08
4890.000000 3.86244000e+08
4910.000000 3.85229000e+08
4930.000000 3.69585000e+08
4950.000000 3.76368000e+08
4970.000000 3.71683000e+08
4990.000000 3.66167000e+08
5010.000000 3.53644000e+08
5030.000000 3.55542000e+08
5050.000000 3.46734000e+08
5070.000000 3.46056000e+08
5090.000000 3.41175000e+08
5110.000000 3.36187000e+08
5130.000000 3.30693000e+08
5150.000000 3.26170000e+08
5170.000000 3.22721000e+08
5190.000000 3.18322000e+08
5210.000000 3.13024000e+08
5230.000000 3.09698000e+08
5250.000000 3.05511000e+08
5270.000000 3.01298000e+08
5290.000000 2.97422000e+08
5310.000000 2.93355000e+08
5330.000000 2.89314000e+08
5350.000000 2.85142000e+08
5370.000000 2.81898000e+08
5390.000000 2.78137000e+08
5410.000000 2.74476000e+08
5430.000000 2.70515000e+08
5450.000000 2.67100000e+08
5470.000000 2.63627000e+08
5490.000000 2.60335000e+08
5510.000000 2.56984000e+08
5530.000000 2.53626000e+08
5550.000000 2.50468000e+08
5570.000000 2.47179000e+08
5590.000000 2.44099000e+08
5610.000000 2.40854000e+08
5630.000000 2.37957000e+08
5650.000000 2.34269000e+08
5670.000000 2.31178000e+08
5690.000000 2.28287000e+08
5710.000000 2.26009000e+08
5730.000000 2.23241000e+08
5750.000000 2.20346000e+08
5770.000000 2.17825000e+08
5790.000000 2.15110000e+08
5810.000000 2.12437000e+08
5830.000000 2.09763000e+08
5850.000000 2.07241000e+08
5870.000000 1.97500000e+08
5890.000000 2.00993000e+08
5910.000000 1.99657000e+08
5930.000000 1.97209000e+08
5950.000000 1.94662000e+08
5970.000000 1.92641000e+08
5990.000000 1.90149000e+08
6010.000000 1.88041000e+08
6030.000000 1.85759000e+08
6050.000000 1.83586000e+08
6070.000000 1.81428000e+08
6090.000000 1.79253000e+08
6110.000000 1.77173000e+08
6130.000000 1.75106000e+08
6150.000000 1.72754000e+08
6170.000000 1.70973000e+08
6190.000000 1.69034000e+08
6210.000000 1.67078000e+08
6230.000000 1.65133000e+08
6250.000000 1.63114000e+08
6270.000000 1.61327000e+08
6290.000000 1.59494000e+08
6310.000000 1.57614000e+08
6330.000000 1.55886000e+08
6350.000000 1.53719000e+08
6370.000000 1.52170000e+08
6390.000000 1.50601000e+08
6410.000000 1.48892000e+08
6430.000000 1.47284000e+08
6450.000000 1.45603000e+08
6470.000000 1.43831000e+08
6490.000000 1.42275000e+08
6510.000000 1.40389000e+08
6530.000000 1.38081000e+08
6550.000000 1.30170000e+08
6570.000000 1.14577000e+08
6590.000000 1.31796000e+08
6610.000000 1.32621000e+08
6630.000000 1.31650000e+08
6650.000000 1.30400000e+08
6670.000000 1.27417000e+08
6690.000000 1.26101000e+08
6710.000000 1.26229000e+08
6730.000000 1.24831000e+08
6750.000000 1.23547000e+08
6770.000000 1.22218000e+08
6790.000000 1.20592000e+08
6810.000000 1.19576000e+08
6830.000000 1.18319000e+08
6850.000000 1.17091000e+08
6870.000000 1.15860000e+08
6890.000000 1.14625000e+08
6910.000000 1.13418000e+08
6930.000000 1.12207000e+08
6950.000000 1.11071000e+08
6970.000000 1.09915000e+08
6990.000000 1.08762000e+08
7010.000000 1.07637000e+08
7030.000000 1.06522000e+08
7050.000000 1.05403000e+08
7070.000000 1.02539000e+08
7090.000000 1.03273000e+08
7110.000000 1.02201000e+08
7130.000000 1.01161000e+08
7150.000000 1.00132000e+08
7170.000000 9.91052000e+07
7190.000000 9.81246000e+07
7210.000000 9.71317000e+07
7230.000000 9.53122000e+07
7250.000000 9.51598000e+07
7270.000000 9.42306000e+07
7290.000000 9.24738000e+07
7310.000000 9.23421000e+07
7330.000000 9.14392000e+07
7350.000000 9.05308000e+07
7370.000000 8.96309000e+07
7390.000000 8.87463000e+07
7410.000000 8.78768000e+07
7430.000000 8.69881000e+07
7450.000000 8.61619000e+07
7470.000000 8.52826000e+07
7490.000000 8.44786000e+07
7510.000000 8.36351000e+07
7530.000000 8.28459000e+07
7550.000000 8.20573000e+07
7570.000000 8.12693000e+07
7590.000000 8.04819000e+07
7610.000000 7.97016000e+07
7630.000000 7.89478000e+07
7650.000000 7.81880000e+07
7670.000000 7.74477000e+07
7690.000000 7.67078000e+07
7710.000000 7.59808000e+07
7730.000000 7.52540000e+07
7750.000000 7.45462000e+07
7770.000000 7.36263000e+07
7790.000000 7.31494000e+07
7810.000000 7.24231000e+07
7830.000000 7.17894000e+07
7850.000000 7.11367000e+07
7870.000000 7.04837000e+07
7890.000000 6.97274000e+07
7910.000000 6.92187000e+07
7930.000000 6.85824000e+07
7950.000000 6.78742000e+07
7970.000000 6.71544000e+07
7990.000000 6.64941000e+07
8010.000000 6.59275000e+07
8030.000000 6.53191000e+07
8050.000000 6.47217000e+07
8070.000000 6.41468000e+07
8090.000000 6.34904000e+07
8110.000000 6.29829000e+07
8130.000000 6.24625000e+07
8150.000000 6.18500000e+07
8170.000000 6.13783000e+07
8190.000000 6.07363000e+07
8210.000000 6.00495000e+07
8230.000000 5.96467000e+07
8250.000000 5.91808000e+07
8270.000000 5.83495000e+07
8290.000000 5.81012000e+07
8310.000000 5.76146000e+07
8330.000000 5.70831000e+07
8350.000000 5.62913000e+07
8370.000000 5.59849000e+07
8390.000000 5.55952000e+07
8410.000000 5.51021000e+07
8430.000000 5.45706000e+07
8450.000000 5.36478000e+07
8470.000000 5.35943000e+07
8490.000000 5.29971000e+07
8510.000000 5.25402000e+07
8530.000000 5.20818000e+07
8550.000000 5.11933000e+07
8570.000000 5.16737000e+07
8590.000000 4.97419000e+07
8610.000000 4.96991000e+07
8630.000000 5.07604000e+07
8650.000000 4.92103000e+07
8670.000000 4.66822000e+07
8690.000000 4.94323000e+07
8710.000000 4.97826000e+07
8730.000000 4.80526000e+07
8750.000000 4.38096000e+07
8770.000000 4.64975000e+07
8790.000000 4.83978000e+07
8810.000000 4.83191000e+07
8830.000000 4.75071000e+07
8850.000000 4.40868000e+07
8870.000000 4.10736000e+07
8890.000000 4.55862000e+07
8910.000000 4.63708000e+07
8930.000000 4.61732000e+07
8950.000000 4.59572000e+07
8970.000000 4.53662000e+07
8990.000000 4.36650000e+07
9010.000000 3.87092000e+07
9030.000000 4.04594000e+07
9050.000000 4.33138000e+07
9070.000000 4.31427000e+07
9090.000000 4.32613000e+07
9110.000000 4.31464000e+07
9130.000000 4.28315000e+07
9150.000000 4.24501000e+07
9170.000000 4.18718000e+07
9190.000000 4.12749000e+07
9210.000000 3.89693000e+07
9230.000000 3.44197000e+07
9250.000000 3.82610000e+07
9270.000000 3.97383000e+07
9290.000000 3.99663000e+07
9310.000000 3.95649000e+07
9330.000000 3.95123000e+07
9350.000000 3.92185000e+07
9370.000000 3.89521000e+07
9390.000000 3.86364000e+07
9410.000000 3.82596000e+07
9430.000000 3.80229000e+07
9450.000000 3.76748000e+07
9470.000000 3.70198000e+07
9490.000000 3.68802000e+07
9510.000000 3.59026000e+07
9530.000000 3.38671000e+07
9550.000000 3.02738000e+07
9570.000000 3.41338000e+07
9590.000000 3.51717000e+07
9610.000000 3.50924000e+07
9630.000000 3.47782000e+07
9650.000000 3.48486000e+07
9670.000000 3.45829000e+07
9690.000000 3.42806000e+07
9710.000000 3.39333000e+07
9730.000000 3.37924000e+07
9750.000000 3.35287000e+07
9770.000000 3.32735000e+07
9790.000000 3.30171000e+07
9810.000000 3.27608000e+07
9830.000000 3.25099000e+07
9850.000000 3.22639000e+07
9870.000000 3.20130000e+07
9890.000000 3.17635000e+07
9910.000000 3.14298000e+07
9930.000000 3.12907000e+07
9950.000000 3.10307000e+07
9970.000000 3.07248000e+07
9990.000000 3.04082000e+07
10025.000000 2.84926000e+07
10075.000000 2.75146000e+07
10125.000000 2.88626000e+07
10175.000000 2.85335000e+07
10225.000000 2.79992000e+07
10275.000000 2.75026000e+07
10325.000000 2.68807000e+07
10375.000000 2.65130000e+07
10425.000000 2.60350000e+07
10475.000000 2.55673000e+07
10525.000000 2.51084000e+07
10575.000000 2.46633000e+07
10625.000000 2.42268000e+07
10675.000000 2.37336000e+07
10725.000000 2.33805000e+07
10775.000000 2.29713000e+07
10825.000000 2.22931000e+07
10875.000000 2.20255000e+07
10925.000000 1.97639000e+07
10975.000000 2.06980000e+07
11025.000000 2.08423000e+07
11075.000000 2.06656000e+07
11125.000000 2.03487000e+07
11175.000000 2.00051000e+07
11225.000000 1.96565000e+07
11275.000000 1.93267000e+07
11325.000000 1.90101000e+07
11375.000000 1.87016000e+07
11425.000000 1.83896000e+07
11475.000000 1.80898000e+07
11525.000000 1.77933000e+07
11575.000000 1.74999000e+07
11625.000000 1.72162000e+07
11675.000000 1.69380000e+07
11725.000000 1.66656000e+07
11775.000000 1.63932000e+07
11825.000000 1.61363000e+07
11875.000000 1.58791000e+07
11925.000000 1.56273000e+07
11975.000000 1.51897000e+07
12025.000000 1.51384000e+07
12075.000000 1.49012000e+07
12125.000000 1.46683000e+07
12175.000000 1.44403000e+07
12225.000000 1.42166000e+07
12275.000000 1.39970000e+07
12325.000000 1.37817000e+07
12375.000000 1.35707000e+07
12425.000000 1.33639000e+07
12475.000000 1.31579000e+07
12525.000000 1.29301000e+07
12575.000000 1.27642000e+07
12625.000000 1.25732000e+07
12675.000000 1.23856000e+07
12725.000000 1.21705000e+07
12775.000000 1.17324000e+07
12825.000000 1.07581000e+07
12875.000000 1.15258000e+07
12925.000000 1.14740000e+07
12975.000000 1.12255000e+07
13025.000000 1.11622000e+07
13075.000000 1.10000000e+07
