# Kurucz ODFNEW /NOVER, alpha: 0.0 (2003)
# teff = 21000 K (value for the effective temperature for the model. Temperatures are given in K)
# logg = 4.5 log(cm/s2) (value for Log(G) for the model.)
# lh = 1.25  (l/Hp where l is the  mixing length of the convective element and Hp is the pressure scale height)
# meta = 0  (value for the Metallicity for the model.)
# vtur = 2 km/s (Microturbulence velocity)
# alpha = 0  (Alpha)
#
# column 1: WAVELENGTH (ANGSTROM), Wavelength in Angstrom
# column 2: FLUX (ERG/CM2/S/A), Flux in erg/cm2/s/A
147.200000 3.98622000e-18
151.000000 2.13586000e-17
155.200000 1.24359000e-16
158.800000 5.23337000e-16
162.000000 1.78331000e-15
166.000000 7.74253000e-15
170.300000 3.48164000e-14
173.400000 9.86630000e-14
176.800000 2.96242000e-13
180.200000 8.54764000e-13
181.700000 1.34728000e-12
186.100000 4.92401000e-12
191.000000 1.94969000e-11
193.900000 4.26157000e-11
198.400000 1.37359000e-10
201.800000 3.22063000e-10
205.000000 7.01062000e-10
210.500000 2.52886000e-09
216.200000 8.94867000e-09
219.800000 1.92466000e-08
223.000000 3.72457000e-08
226.800000 7.97208000e-08
230.000000 6.82713000e-07
234.000000 1.68364000e-06
240.000000 4.82940000e-06
246.500000 1.41647000e-05
252.400000 3.60806000e-05
256.800000 6.88377000e-05
260.000000 1.12567000e-04
264.000000 1.99094000e-04
268.500000 3.69773000e-04
273.500000 7.17023000e-04
278.500000 1.36403000e-03
284.000000 2.70459000e-03
290.000000 5.49550000e-03
296.000000 1.08273000e-02
301.000000 1.86778000e-02
308.000000 3.84767000e-02
318.000000 1.05429000e-01
328.000000 2.63774000e-01
338.000000 6.36962000e-01
348.000000 1.44468000e+00
357.000000 2.98932000e+00
366.000000 5.84572000e+00
375.000000 1.08262000e+01
385.000000 2.09535000e+01
395.000000 3.90480000e+01
405.000000 7.04354000e+01
414.000000 1.17178000e+02
422.000000 1.79116000e+02
430.000000 2.70332000e+02
441.000000 4.66028000e+02
451.000000 7.45306000e+02
460.000000 1.11057000e+03
470.000000 1.70679000e+03
480.000000 2.56271000e+03
490.000000 3.79287000e+03
500.000000 5.51140000e+03
506.000000 4.08150000e+04
512.000000 2.27480000e+05
520.000000 2.86755000e+05
530.000000 3.94889000e+05
540.000000 4.55719000e+05
550.000000 6.65410000e+05
560.000000 8.06052000e+05
570.000000 1.03687000e+06
580.000000 1.06719000e+06
590.000000 1.45302000e+06
600.000000 1.78967000e+06
610.000000 2.21563000e+06
620.000000 2.56213000e+06
630.000000 3.00339000e+06
640.000000 3.23733000e+06
650.000000 3.13091000e+06
658.000000 4.30926000e+06
665.000000 4.88025000e+06
675.000000 5.47369000e+06
685.000000 6.12257000e+06
695.000000 7.42735000e+06
705.000000 8.20956000e+06
716.000000 9.42456000e+06
726.000000 1.03989000e+07
735.000000 1.13655000e+07
745.000000 1.30220000e+07
755.000000 1.45081000e+07
765.000000 1.61146000e+07
775.000000 1.78930000e+07
785.000000 1.97521000e+07
795.000000 2.12885000e+07
805.000000 2.31209000e+07
815.000000 2.49170000e+07
825.000000 2.75347000e+07
835.000000 2.84266000e+07
845.000000 3.12490000e+07
855.000000 3.36015000e+07
865.000000 3.65277000e+07
875.000000 3.97610000e+07
885.000000 4.34076000e+07
895.000000 4.64553000e+07
905.000000 4.76578000e+07
915.000000 7.11499000e+07
925.000000 3.00155000e+08
935.000000 8.40916000e+08
945.000000 2.88635000e+09
955.000000 5.86600000e+09
965.000000 8.01621000e+09
975.000000 1.31586000e+09
985.000000 9.93325000e+09
995.000000 9.84989000e+09
1005.000000 1.18652000e+10
1015.000000 1.01358000e+10
1025.000000 2.03234000e+09
1035.000000 6.62250000e+09
1045.000000 1.41664000e+10
1055.000000 1.36412000e+10
1065.000000 1.07440000e+10
1075.000000 1.30369000e+10
1085.000000 1.14536000e+10
1095.000000 1.31004000e+10
1105.000000 1.14707000e+10
1115.000000 1.08368000e+10
1125.000000 9.68892000e+09
1135.000000 1.22348000e+10
1145.000000 1.05135000e+10
1155.000000 1.12616000e+10
1165.000000 1.15223000e+10
1175.000000 7.96286000e+09
1185.000000 1.13969000e+10
1195.000000 8.62479000e+09
1205.000000 4.91193000e+09
1215.000000 1.89974000e+09
1225.000000 6.32064000e+09
1235.000000 1.02285000e+10
1245.000000 1.06525000e+10
1255.000000 1.03923000e+10
1265.000000 9.84515000e+09
1275.000000 1.04324000e+10
1285.000000 1.05723000e+10
1295.000000 7.05666000e+09
1305.000000 6.82881000e+09
1315.000000 9.94881000e+09
1325.000000 9.24729000e+09
1335.000000 8.35422000e+09
1345.000000 9.26837000e+09
1355.000000 9.01614000e+09
1365.000000 8.07940000e+09
1375.000000 8.06731000e+09
1385.000000 8.12505000e+09
1395.000000 6.84183000e+09
1405.000000 7.21273000e+09
1415.000000 7.23175000e+09
1425.000000 7.33691000e+09
1435.000000 7.37222000e+09
1442.000000 7.63328000e+09
1447.000000 7.49155000e+09
1455.000000 7.30156000e+09
1465.000000 6.77112000e+09
1475.000000 6.77364000e+09
1485.000000 6.59594000e+09
1495.000000 6.56715000e+09
1505.000000 6.00848000e+09
1512.000000 5.40258000e+09
1517.000000 5.63992000e+09
1525.000000 5.79975000e+09
1535.000000 5.12549000e+09
1545.000000 5.20471000e+09
1555.000000 4.95555000e+09
1565.000000 5.12576000e+09
1575.000000 5.40440000e+09
1585.000000 5.39821000e+09
1595.000000 5.41780000e+09
1605.000000 5.37843000e+09
1615.000000 5.33457000e+09
1625.000000 5.14628000e+09
1635.000000 5.38228000e+09
1645.000000 5.33333000e+09
1655.000000 5.06854000e+09
1665.000000 5.38046000e+09
1672.000000 5.15479000e+09
1677.000000 5.31418000e+09
1685.000000 5.32355000e+09
1695.000000 5.03945000e+09
1705.000000 4.79986000e+09
1715.000000 4.54000000e+09
1725.000000 4.46941000e+09
1735.000000 4.67360000e+09
1745.000000 4.50018000e+09
1755.000000 4.61563000e+09
1765.000000 4.33105000e+09
1775.000000 4.28167000e+09
1785.000000 4.31659000e+09
1795.000000 4.47465000e+09
1805.000000 4.47389000e+09
1815.000000 4.03784000e+09
1825.000000 4.19901000e+09
1835.000000 4.00569000e+09
1845.000000 3.68448000e+09
1855.000000 3.59626000e+09
1865.000000 3.65820000e+09
1875.000000 3.92575000e+09
1885.000000 3.51928000e+09
1895.000000 3.29151000e+09
1905.000000 3.55768000e+09
1915.000000 3.33406000e+09
1925.000000 3.22306000e+09
1935.000000 3.36289000e+09
1945.000000 3.41624000e+09
1955.000000 3.13436000e+09
1967.000000 3.38669000e+09
1976.000000 3.51318000e+09
1984.000000 3.24918000e+09
1995.000000 3.17416000e+09
2005.000000 3.27087000e+09
2015.000000 3.17270000e+09
2025.000000 3.33226000e+09
2035.000000 3.05770000e+09
2045.000000 3.10093000e+09
2055.000000 2.99714000e+09
2065.000000 3.03241000e+09
2074.000000 3.15197000e+09
2078.000000 2.90106000e+09
2085.000000 3.02035000e+09
2095.000000 2.84824000e+09
2105.000000 2.91919000e+09
2115.000000 2.91060000e+09
2125.000000 2.95252000e+09
2135.000000 2.86376000e+09
2145.000000 2.75336000e+09
2155.000000 2.84955000e+09
2165.000000 2.80721000e+09
2175.000000 2.76951000e+09
2185.000000 2.69040000e+09
2195.000000 2.72858000e+09
2205.000000 2.67459000e+09
2215.000000 2.61863000e+09
2225.000000 2.53465000e+09
2235.000000 2.56421000e+09
2245.000000 2.54814000e+09
2255.000000 2.45469000e+09
2265.000000 2.49835000e+09
2275.000000 2.47483000e+09
2285.000000 2.47898000e+09
2295.000000 2.36329000e+09
2305.000000 2.37396000e+09
2315.000000 2.30183000e+09
2325.000000 2.27287000e+09
2335.000000 2.18421000e+09
2345.000000 2.16069000e+09
2355.000000 2.17824000e+09
2365.000000 2.12167000e+09
2375.000000 2.11479000e+09
2385.000000 2.06623000e+09
2395.000000 2.09827000e+09
2405.000000 2.02615000e+09
2415.000000 2.02794000e+09
2425.000000 2.03745000e+09
2435.000000 1.96262000e+09
2445.000000 1.98302000e+09
2455.000000 1.97677000e+09
2465.000000 1.93287000e+09
2475.000000 1.90227000e+09
2485.000000 1.91433000e+09
2495.000000 1.83650000e+09
2505.000000 1.87842000e+09
2513.000000 1.78690000e+09
2518.000000 1.84677000e+09
2525.000000 1.79134000e+09
2535.000000 1.76727000e+09
2545.000000 1.72561000e+09
2555.000000 1.76187000e+09
2565.000000 1.73516000e+09
2575.000000 1.75029000e+09
2585.000000 1.74151000e+09
2595.000000 1.72521000e+09
2605.000000 1.70238000e+09
2615.000000 1.68691000e+09
2625.000000 1.67025000e+09
2635.000000 1.65868000e+09
2645.000000 1.66943000e+09
2655.000000 1.65640000e+09
2665.000000 1.60399000e+09
2675.000000 1.61203000e+09
2685.000000 1.60051000e+09
2695.000000 1.55795000e+09
2705.000000 1.55315000e+09
2715.000000 1.53130000e+09
2725.000000 1.50679000e+09
2735.000000 1.51765000e+09
2745.000000 1.45392000e+09
2755.000000 1.45142000e+09
2765.000000 1.44503000e+09
2775.000000 1.45978000e+09
2785.000000 1.43921000e+09
2795.000000 1.38216000e+09
2805.000000 1.40406000e+09
2815.000000 1.40604000e+09
2825.000000 1.37840000e+09
2835.000000 1.32862000e+09
2845.000000 1.33866000e+09
2855.000000 1.33369000e+09
2865.000000 1.33770000e+09
2875.000000 1.31734000e+09
2885.000000 1.30677000e+09
2895.000000 1.29421000e+09
2910.000000 1.27672000e+09
2930.000000 1.24719000e+09
2950.000000 1.21385000e+09
2970.000000 1.20276000e+09
2990.000000 1.17413000e+09
3010.000000 1.15367000e+09
3030.000000 1.14046000e+09
3050.000000 1.11705000e+09
3070.000000 1.09590000e+09
3090.000000 1.07072000e+09
3110.000000 1.05302000e+09
3130.000000 1.03537000e+09
3150.000000 1.01600000e+09
3170.000000 9.94000000e+08
3190.000000 9.66840000e+08
3210.000000 9.59071000e+08
3230.000000 9.42067000e+08
3250.000000 9.25693000e+08
3270.000000 9.09613000e+08
3290.000000 8.92357000e+08
3310.000000 8.78374000e+08
3330.000000 8.62045000e+08
3350.000000 8.45069000e+08
3370.000000 8.31386000e+08
3390.000000 8.17409000e+08
3410.000000 8.03410000e+08
3430.000000 7.85967000e+08
3450.000000 7.69823000e+08
3470.000000 7.58377000e+08
3490.000000 7.45287000e+08
3510.000000 7.33944000e+08
3530.000000 7.23534000e+08
3550.000000 7.11459000e+08
3570.000000 7.03332000e+08
3590.000000 6.85316000e+08
3610.000000 6.75373000e+08
3630.000000 6.64263000e+08
3640.000000 6.63661000e+08
3650.000000 6.53328000e+08
3670.000000 6.45835000e+08
3690.000000 6.33983000e+08
3710.000000 6.11647000e+08
3730.000000 5.85149000e+08
3750.000000 6.09438000e+08
3770.000000 6.10172000e+08
3790.000000 6.55600000e+08
3810.000000 6.91765000e+08
3830.000000 5.92668000e+08
3850.000000 7.20138000e+08
3870.000000 7.37617000e+08
3890.000000 5.56302000e+08
3910.000000 7.34627000e+08
3930.000000 7.21413000e+08
3950.000000 7.11277000e+08
3970.000000 5.19145000e+08
3990.000000 6.78606000e+08
4010.000000 6.87222000e+08
4030.000000 6.37598000e+08
4050.000000 6.73485000e+08
4070.000000 6.49871000e+08
4090.000000 5.81621000e+08
4110.000000 4.98831000e+08
4130.000000 6.08487000e+08
4150.000000 6.09417000e+08
4170.000000 6.07117000e+08
4190.000000 6.01935000e+08
4210.000000 5.94551000e+08
4230.000000 5.83173000e+08
4250.000000 5.71648000e+08
4270.000000 5.53909000e+08
4290.000000 5.51376000e+08
4310.000000 5.35887000e+08
4330.000000 4.67393000e+08
4350.000000 4.22510000e+08
4370.000000 5.06912000e+08
4390.000000 4.91493000e+08
4410.000000 5.00857000e+08
4430.000000 4.92429000e+08
4450.000000 4.88336000e+08
4470.000000 4.53488000e+08
4490.000000 4.69284000e+08
4510.000000 4.67705000e+08
4530.000000 4.58793000e+08
4550.000000 4.52421000e+08
4570.000000 4.45746000e+08
4590.000000 4.39152000e+08
4610.000000 4.31149000e+08
4630.000000 4.23706000e+08
4650.000000 4.16480000e+08
4670.000000 4.12679000e+08
4690.000000 4.07916000e+08
4710.000000 3.92504000e+08
4730.000000 3.92088000e+08
4750.000000 3.86305000e+08
4770.000000 3.84944000e+08
4790.000000 3.78025000e+08
4810.000000 3.69677000e+08
4830.000000 3.61358000e+08
4850.000000 3.23117000e+08
4870.000000 2.84887000e+08
4890.000000 3.44620000e+08
4910.000000 3.44209000e+08
4930.000000 3.29952000e+08
4950.000000 3.36731000e+08
4970.000000 3.32913000e+08
4990.000000 3.27693000e+08
5010.000000 3.14725000e+08
5030.000000 3.17633000e+08
5050.000000 3.08711000e+08
5070.000000 3.09812000e+08
5090.000000 3.05361000e+08
5110.000000 3.00465000e+08
5130.000000 2.94906000e+08
5150.000000 2.90872000e+08
5170.000000 2.88908000e+08
5190.000000 2.85008000e+08
5210.000000 2.78896000e+08
5230.000000 2.77318000e+08
5250.000000 2.73719000e+08
5270.000000 2.69746000e+08
5290.000000 2.66728000e+08
5310.000000 2.62972000e+08
5330.000000 2.59186000e+08
5350.000000 2.55093000e+08
5370.000000 2.52909000e+08
5390.000000 2.49531000e+08
5410.000000 2.46145000e+08
5430.000000 2.42252000e+08
5450.000000 2.39412000e+08
5470.000000 2.36217000e+08
5490.000000 2.33649000e+08
5510.000000 2.30591000e+08
5530.000000 2.27596000e+08
5550.000000 2.24919000e+08
5570.000000 2.21910000e+08
5590.000000 2.19252000e+08
5610.000000 2.16183000e+08
5630.000000 2.13925000e+08
5650.000000 2.09592000e+08
5670.000000 2.07003000e+08
5690.000000 2.04887000e+08
5710.000000 2.03108000e+08
5730.000000 2.00683000e+08
5750.000000 1.98093000e+08
5770.000000 1.95930000e+08
5790.000000 1.93466000e+08
5810.000000 1.91054000e+08
5830.000000 1.88626000e+08
5850.000000 1.86425000e+08
5870.000000 1.77612000e+08
5890.000000 1.80372000e+08
5910.000000 1.79563000e+08
5930.000000 1.77443000e+08
5950.000000 1.74848000e+08
5970.000000 1.73393000e+08
5990.000000 1.70998000e+08
6010.000000 1.69350000e+08
6030.000000 1.67245000e+08
6050.000000 1.65338000e+08
6070.000000 1.63412000e+08
6090.000000 1.61406000e+08
6110.000000 1.59624000e+08
6130.000000 1.57802000e+08
6150.000000 1.55284000e+08
6170.000000 1.54021000e+08
6190.000000 1.52359000e+08
6210.000000 1.50598000e+08
6230.000000 1.48827000e+08
6250.000000 1.46805000e+08
6270.000000 1.45391000e+08
6290.000000 1.43754000e+08
6310.000000 1.41983000e+08
6330.000000 1.40561000e+08
6350.000000 1.38247000e+08
6370.000000 1.36972000e+08
6390.000000 1.35765000e+08
6410.000000 1.34222000e+08
6430.000000 1.32906000e+08
6450.000000 1.31322000e+08
6470.000000 1.29666000e+08
6490.000000 1.28295000e+08
6510.000000 1.26548000e+08
6530.000000 1.24387000e+08
6550.000000 1.16560000e+08
6570.000000 1.01983000e+08
6590.000000 1.18446000e+08
6610.000000 1.19618000e+08
6630.000000 1.18786000e+08
6650.000000 1.17706000e+08
6670.000000 1.15029000e+08
6690.000000 1.13896000e+08
6710.000000 1.13988000e+08
6730.000000 1.12729000e+08
6750.000000 1.11607000e+08
6770.000000 1.10439000e+08
6790.000000 1.08735000e+08
6810.000000 1.08000000e+08
6830.000000 1.06868000e+08
6850.000000 1.05819000e+08
6870.000000 1.04717000e+08
6890.000000 1.03610000e+08
6910.000000 1.02522000e+08
6930.000000 1.01374000e+08
6950.000000 1.00417000e+08
6970.000000 9.93918000e+07
6990.000000 9.83458000e+07
7010.000000 9.73177000e+07
7030.000000 9.63227000e+07
7050.000000 9.52615000e+07
7070.000000 9.27411000e+07
7090.000000 9.34252000e+07
7110.000000 9.23415000e+07
7130.000000 9.14462000e+07
7150.000000 9.05669000e+07
7170.000000 8.96666000e+07
7190.000000 8.88041000e+07
7210.000000 8.79135000e+07
7230.000000 8.60152000e+07
7250.000000 8.61004000e+07
7270.000000 8.52994000e+07
7290.000000 8.37616000e+07
7310.000000 8.36070000e+07
7330.000000 8.27938000e+07
7350.000000 8.19882000e+07
7370.000000 8.11832000e+07
7390.000000 8.03856000e+07
7410.000000 7.95955000e+07
7430.000000 7.87581000e+07
7450.000000 7.80372000e+07
7470.000000 7.72013000e+07
7490.000000 7.65075000e+07
7510.000000 7.57599000e+07
7530.000000 7.50523000e+07
7550.000000 7.43512000e+07
7570.000000 7.36499000e+07
7590.000000 7.29287000e+07
7610.000000 7.22467000e+07
7630.000000 7.15578000e+07
7650.000000 7.08816000e+07
7670.000000 7.02114000e+07
7690.000000 6.95473000e+07
7710.000000 6.88954000e+07
7730.000000 6.82367000e+07
7750.000000 6.76027000e+07
7770.000000 6.65251000e+07
7790.000000 6.63453000e+07
7810.000000 6.56972000e+07
7830.000000 6.51223000e+07
7850.000000 6.44363000e+07
7870.000000 6.38538000e+07
7890.000000 6.31432000e+07
7910.000000 6.27701000e+07
7930.000000 6.22142000e+07
7950.000000 6.15082000e+07
7970.000000 6.09982000e+07
7990.000000 6.02802000e+07
8010.000000 5.98562000e+07
8030.000000 5.93013000e+07
8050.000000 5.87571000e+07
8070.000000 5.82753000e+07
8090.000000 5.76594000e+07
8110.000000 5.71972000e+07
8130.000000 5.67190000e+07
8150.000000 5.61732000e+07
8170.000000 5.57512000e+07
8190.000000 5.51569000e+07
8210.000000 5.45235000e+07
8230.000000 5.40898000e+07
8250.000000 5.37669000e+07
8270.000000 5.30450000e+07
8290.000000 5.27900000e+07
8310.000000 5.23496000e+07
8330.000000 5.18862000e+07
8350.000000 5.12008000e+07
8370.000000 5.08903000e+07
8390.000000 5.05581000e+07
8410.000000 5.01101000e+07
8430.000000 4.96230000e+07
8450.000000 4.87167000e+07
8470.000000 4.87258000e+07
8490.000000 4.81923000e+07
8510.000000 4.77367000e+07
8530.000000 4.73987000e+07
8550.000000 4.64474000e+07
8570.000000 4.70393000e+07
8590.000000 4.52240000e+07
8610.000000 4.51204000e+07
8630.000000 4.62469000e+07
8650.000000 4.47816000e+07
8670.000000 4.22347000e+07
8690.000000 4.50108000e+07
8710.000000 4.54390000e+07
8730.000000 4.38232000e+07
8750.000000 3.96089000e+07
8770.000000 4.23184000e+07
8790.000000 4.42119000e+07
8810.000000 4.42070000e+07
8830.000000 4.33803000e+07
8850.000000 4.01152000e+07
8870.000000 3.71736000e+07
8890.000000 4.15840000e+07
8910.000000 4.24202000e+07
8930.000000 4.22597000e+07
8950.000000 4.20931000e+07
8970.000000 4.15241000e+07
8990.000000 3.98922000e+07
9010.000000 3.51122000e+07
9030.000000 3.67605000e+07
9050.000000 3.95885000e+07
9070.000000 3.95002000e+07
9090.000000 3.95960000e+07
9110.000000 3.95286000e+07
9130.000000 3.92458000e+07
9150.000000 3.89056000e+07
9170.000000 3.83607000e+07
9190.000000 3.77590000e+07
9210.000000 3.55722000e+07
9230.000000 3.11703000e+07
9250.000000 3.48275000e+07
9270.000000 3.62048000e+07
9290.000000 3.66069000e+07
9310.000000 3.62834000e+07
9330.000000 3.61942000e+07
9350.000000 3.59680000e+07
9370.000000 3.57236000e+07
9390.000000 3.54319000e+07
9410.000000 3.49964000e+07
9430.000000 3.48769000e+07
9450.000000 3.45404000e+07
9470.000000 3.39645000e+07
9490.000000 3.38048000e+07
9510.000000 3.28896000e+07
9530.000000 3.09200000e+07
9550.000000 2.74918000e+07
9570.000000 3.11556000e+07
9590.000000 3.22199000e+07
9610.000000 3.21859000e+07
9630.000000 3.18419000e+07
9650.000000 3.19673000e+07
9670.000000 3.17281000e+07
9690.000000 3.14660000e+07
9710.000000 3.11591000e+07
9730.000000 3.10232000e+07
9750.000000 3.07752000e+07
9770.000000 3.05503000e+07
9790.000000 3.03143000e+07
9810.000000 3.00801000e+07
9830.000000 2.98428000e+07
9850.000000 2.96250000e+07
9870.000000 2.93929000e+07
9890.000000 2.91502000e+07
9910.000000 2.88197000e+07
9930.000000 2.87328000e+07
9950.000000 2.84751000e+07
9970.000000 2.81999000e+07
9990.000000 2.79040000e+07
10025.000000 2.60631000e+07
10075.000000 2.51166000e+07
10125.000000 2.64725000e+07
10175.000000 2.61991000e+07
10225.000000 2.57263000e+07
10275.000000 2.52695000e+07
10325.000000 2.47020000e+07
10375.000000 2.43641000e+07
10425.000000 2.39278000e+07
10475.000000 2.34984000e+07
10525.000000 2.30747000e+07
10575.000000 2.26693000e+07
10625.000000 2.22726000e+07
10675.000000 2.18036000e+07
10725.000000 2.14947000e+07
10775.000000 2.11201000e+07
10825.000000 2.04975000e+07
10875.000000 2.02375000e+07
10925.000000 1.80793000e+07
10975.000000 1.89731000e+07
11025.000000 1.91702000e+07
11075.000000 1.90116000e+07
11125.000000 1.87209000e+07
11175.000000 1.84050000e+07
11225.000000 1.80883000e+07
11275.000000 1.77593000e+07
11325.000000 1.74780000e+07
11375.000000 1.72111000e+07
11425.000000 1.69223000e+07
11475.000000 1.66518000e+07
11525.000000 1.63792000e+07
11575.000000 1.61084000e+07
11625.000000 1.58435000e+07
11675.000000 1.55906000e+07
11725.000000 1.53442000e+07
11775.000000 1.50811000e+07
11825.000000 1.48595000e+07
11875.000000 1.46216000e+07
11925.000000 1.43941000e+07
11975.000000 1.40020000e+07
12025.000000 1.39454000e+07
12075.000000 1.37276000e+07
12125.000000 1.35134000e+07
12175.000000 1.33045000e+07
12225.000000 1.30989000e+07
12275.000000 1.28971000e+07
12325.000000 1.26997000e+07
12375.000000 1.25060000e+07
12425.000000 1.23167000e+07
12475.000000 1.21221000e+07
12525.000000 1.19208000e+07
12575.000000 1.17626000e+07
12625.000000 1.15890000e+07
12675.000000 1.14169000e+07
12725.000000 1.12128000e+07
12775.000000 1.08060000e+07
12825.000000 9.87262000e+06
12875.000000 1.06145000e+07
12925.000000 1.05747000e+07
12975.000000 1.03600000e+07
13025.000000 1.02952000e+07
13075.000000 1.01463000e+07
