# Kurucz ODFNEW /NOVER, alpha: 0.0 (2003)
# teff = 7500 K (value for the effective temperature for the model. Temperatures are given in K)
# logg = 0.5 log(cm/s2) (value for Log(G) for the model.)
# lh = 1.25  (l/Hp where l is the  mixing length of the convective element and Hp is the pressure scale height)
# meta = -1  (value for the Metallicity for the model.)
# vtur = 2 km/s (Microturbulence velocity)
# alpha = 0  (Alpha)
#
# column 1: WAVELENGTH (ANGSTROM), Wavelength in Angstrom
# column 2: FLUX (ERG/CM2/S/A), Flux in erg/cm2/s/A
385.000000 2.72206000e-23
395.000000 2.36398000e-22
405.000000 1.64551000e-21
414.000000 8.64146000e-21
422.000000 3.54720000e-20
430.000000 1.37917000e-19
441.000000 8.21060000e-19
451.000000 3.84395000e-18
460.000000 1.45329000e-17
470.000000 5.98725000e-17
480.000000 2.32022000e-16
490.000000 8.48998000e-16
500.000000 2.94361000e-15
506.000000 5.96414000e-15
512.000000 1.22572000e-14
520.000000 3.05103000e-14
530.000000 9.16234000e-14
540.000000 2.63724000e-13
550.000000 7.29261000e-13
560.000000 1.94155000e-12
570.000000 4.98665000e-12
580.000000 1.23792000e-11
590.000000 2.97563000e-11
600.000000 6.93684000e-11
610.000000 1.57070000e-10
620.000000 3.45946000e-10
630.000000 7.42135000e-10
640.000000 1.55263000e-09
650.000000 3.17139000e-09
658.000000 5.52403000e-09
665.000000 8.87419000e-09
675.000000 1.71545000e-08
685.000000 3.24948000e-08
695.000000 6.03695000e-08
705.000000 1.10087000e-07
716.000000 2.08854000e-07
726.000000 3.67212000e-07
735.000000 6.01770000e-07
745.000000 1.02642000e-06
755.000000 1.72462000e-06
765.000000 2.85618000e-06
775.000000 4.66508000e-06
785.000000 7.51900000e-06
795.000000 1.19637000e-05
805.000000 1.88038000e-05
815.000000 2.92065000e-05
825.000000 4.48478000e-05
835.000000 6.81136000e-05
845.000000 1.02357000e-04
855.000000 1.52253000e-04
865.000000 2.24253000e-04
875.000000 3.27172000e-04
885.000000 4.72960000e-04
895.000000 6.77669000e-04
905.000000 9.62724000e-04
915.000000 6.99799000e-02
925.000000 2.59793000e-01
935.000000 3.22831000e-01
945.000000 4.50713000e-01
955.000000 6.55499000e-01
965.000000 8.22132000e-01
975.000000 8.53345000e-01
985.000000 1.37206000e+00
995.000000 1.64235000e+00
1005.000000 2.17547000e+00
1015.000000 2.37767000e+00
1025.000000 2.63701000e+00
1035.000000 4.22685000e+00
1045.000000 5.44072000e+00
1055.000000 6.73833000e+00
1065.000000 7.99146000e+00
1075.000000 9.94712000e+00
1085.000000 1.20617000e+01
1095.000000 1.40993000e+01
1105.000000 4.06403000e+01
1115.000000 1.15486000e+02
1125.000000 1.51626000e+02
1135.000000 1.82477000e+02
1145.000000 1.95358000e+02
1155.000000 1.81708000e+02
1165.000000 1.90687000e+02
1175.000000 1.67585000e+02
1185.000000 3.56548000e+02
1195.000000 5.56932000e+01
1205.000000 3.57627000e+01
1215.000000 8.97173000e+00
1225.000000 4.23870000e+01
1235.000000 1.08853000e+02
1245.000000 2.19722000e+02
1255.000000 4.08583000e+02
1265.000000 5.83613000e+02
1275.000000 9.16433000e+02
1285.000000 1.45344000e+03
1295.000000 2.03199000e+03
1305.000000 2.13761000e+03
1315.000000 3.73325000e+03
1325.000000 7.41002000e+03
1335.000000 8.53474000e+03
1345.000000 1.85070000e+04
1355.000000 2.41095000e+04
1365.000000 3.34871000e+04
1375.000000 4.57465000e+04
1385.000000 5.87653000e+04
1395.000000 8.00646000e+04
1405.000000 1.13338000e+05
1415.000000 1.29793000e+05
1425.000000 1.84626000e+05
1435.000000 1.97071000e+05
1442.000000 2.57233000e+05
1447.000000 3.16147000e+05
1455.000000 4.12885000e+05
1465.000000 4.33193000e+05
1475.000000 4.78525000e+05
1485.000000 5.82855000e+05
1495.000000 7.23110000e+05
1505.000000 8.27631000e+05
1512.000000 7.85858000e+05
1517.000000 8.90859000e+05
1525.000000 9.37359000e+05
1535.000000 1.47644000e+06
1545.000000 2.44438000e+06
1555.000000 2.25412000e+06
1565.000000 1.98345000e+06
1575.000000 2.66347000e+06
1585.000000 3.00022000e+06
1595.000000 3.78503000e+06
1605.000000 3.36830000e+06
1615.000000 3.24121000e+06
1625.000000 2.95948000e+06
1635.000000 3.37027000e+06
1645.000000 3.92096000e+06
1655.000000 2.66170000e+06
1665.000000 3.97912000e+06
1672.000000 1.63570000e+06
1677.000000 4.10402000e+06
1685.000000 4.96344000e+06
1695.000000 4.84984000e+06
1705.000000 4.43298000e+06
1715.000000 4.99740000e+06
1725.000000 5.12839000e+06
1735.000000 5.79181000e+06
1745.000000 5.42362000e+06
1755.000000 6.45976000e+06
1765.000000 5.49913000e+06
1775.000000 6.29001000e+06
1785.000000 6.03032000e+06
1795.000000 7.40217000e+06
1805.000000 6.74616000e+06
1815.000000 7.08589000e+06
1825.000000 6.54108000e+06
1835.000000 6.41673000e+06
1845.000000 5.99963000e+06
1855.000000 6.42461000e+06
1865.000000 6.58985000e+06
1875.000000 6.86158000e+06
1885.000000 7.01936000e+06
1895.000000 7.20659000e+06
1905.000000 6.69669000e+06
1915.000000 7.27977000e+06
1925.000000 7.57703000e+06
1935.000000 6.84763000e+06
1945.000000 7.93905000e+06
1955.000000 7.98854000e+06
1967.000000 8.32145000e+06
1976.000000 8.16583000e+06
1984.000000 8.00756000e+06
1995.000000 7.79143000e+06
2005.000000 7.65768000e+06
2015.000000 7.35370000e+06
2025.000000 7.14326000e+06
2035.000000 7.77216000e+06
2045.000000 8.32448000e+06
2055.000000 7.70056000e+06
2065.000000 7.46714000e+06
2074.000000 8.64297000e+06
2078.000000 8.91640000e+06
2085.000000 8.65358000e+06
2095.000000 8.36319000e+06
2105.000000 8.00097000e+06
2115.000000 8.06420000e+06
2125.000000 8.28473000e+06
2135.000000 6.61831000e+06
2145.000000 7.77871000e+06
2155.000000 8.03206000e+06
2165.000000 7.58406000e+06
2175.000000 7.55701000e+06
2185.000000 7.71107000e+06
2195.000000 8.44392000e+06
2205.000000 8.08159000e+06
2215.000000 7.20214000e+06
2225.000000 7.11000000e+06
2235.000000 8.33971000e+06
2245.000000 7.42490000e+06
2255.000000 7.08300000e+06
2265.000000 7.13596000e+06
2275.000000 7.89326000e+06
2285.000000 8.21178000e+06
2295.000000 7.66330000e+06
2305.000000 7.80896000e+06
2315.000000 7.57153000e+06
2325.000000 7.40130000e+06
2335.000000 6.32329000e+06
2345.000000 5.35873000e+06
2355.000000 7.35251000e+06
2365.000000 5.52166000e+06
2375.000000 6.75767000e+06
2385.000000 4.72350000e+06
2395.000000 5.81268000e+06
2405.000000 5.51420000e+06
2415.000000 6.15404000e+06
2425.000000 7.64654000e+06
2435.000000 7.46568000e+06
2445.000000 7.96939000e+06
2455.000000 7.72083000e+06
2465.000000 7.63103000e+06
2475.000000 7.27921000e+06
2485.000000 7.71550000e+06
2495.000000 7.51398000e+06
2505.000000 8.65183000e+06
2513.000000 7.42462000e+06
2518.000000 7.79683000e+06
2525.000000 7.03868000e+06
2535.000000 6.83612000e+06
2545.000000 7.00120000e+06
2555.000000 7.60958000e+06
2565.000000 7.39118000e+06
2575.000000 8.09523000e+06
2585.000000 7.81792000e+06
2595.000000 7.42099000e+06
2605.000000 6.87781000e+06
2615.000000 6.66775000e+06
2625.000000 7.75314000e+06
2635.000000 8.22506000e+06
2645.000000 1.00649000e+07
2655.000000 9.97482000e+06
2665.000000 8.94107000e+06
2675.000000 9.41399000e+06
2685.000000 9.36177000e+06
2695.000000 8.94956000e+06
2705.000000 9.20634000e+06
2715.000000 8.54170000e+06
2725.000000 8.71148000e+06
2735.000000 9.50659000e+06
2745.000000 7.09809000e+06
2755.000000 7.77231000e+06
2765.000000 8.31786000e+06
2775.000000 9.38469000e+06
2785.000000 8.90019000e+06
2795.000000 4.75463000e+06
2805.000000 5.78116000e+06
2815.000000 9.66709000e+06
2825.000000 1.01567000e+07
2835.000000 9.75335000e+06
2845.000000 9.48290000e+06
2855.000000 9.02512000e+06
2865.000000 9.84986000e+06
2875.000000 9.56542000e+06
2885.000000 9.85227000e+06
2895.000000 9.41124000e+06
2910.000000 1.07225000e+07
2930.000000 1.03985000e+07
2950.000000 1.03770000e+07
2970.000000 1.07455000e+07
2990.000000 1.09423000e+07
3010.000000 1.12128000e+07
3030.000000 1.11974000e+07
3050.000000 1.11543000e+07
3070.000000 1.11017000e+07
3090.000000 1.14837000e+07
3110.000000 1.11806000e+07
3130.000000 1.11370000e+07
3150.000000 1.15166000e+07
3170.000000 1.15663000e+07
3190.000000 1.10785000e+07
3210.000000 1.14831000e+07
3230.000000 1.12605000e+07
3250.000000 1.15482000e+07
3270.000000 1.16296000e+07
3290.000000 1.18705000e+07
3310.000000 1.20393000e+07
3330.000000 1.18245000e+07
3350.000000 1.16636000e+07
3370.000000 1.17425000e+07
3390.000000 1.18043000e+07
3410.000000 1.21513000e+07
3430.000000 1.22658000e+07
3450.000000 1.22392000e+07
3470.000000 1.20895000e+07
3490.000000 1.20562000e+07
3510.000000 1.23671000e+07
3530.000000 1.25364000e+07
3550.000000 1.26335000e+07
3570.000000 1.23773000e+07
3590.000000 1.23918000e+07
3610.000000 1.24731000e+07
3630.000000 1.25668000e+07
3640.000000 1.24290000e+07
3650.000000 1.27501000e+07
3670.000000 1.28359000e+07
3690.000000 1.46964000e+07
3710.000000 2.11768000e+07
3730.000000 3.70910000e+07
3750.000000 4.77070000e+07
3770.000000 4.75468000e+07
3790.000000 5.15967000e+07
3810.000000 5.56993000e+07
3830.000000 4.71730000e+07
3850.000000 5.62203000e+07
3870.000000 5.65689000e+07
3890.000000 4.69664000e+07
3910.000000 5.51463000e+07
3930.000000 4.83861000e+07
3950.000000 5.52569000e+07
3970.000000 4.27334000e+07
3990.000000 5.48905000e+07
4010.000000 5.42998000e+07
4030.000000 5.36647000e+07
4050.000000 5.33427000e+07
4070.000000 5.25719000e+07
4090.000000 5.20792000e+07
4110.000000 4.35337000e+07
4130.000000 5.14883000e+07
4150.000000 5.15817000e+07
4170.000000 5.02063000e+07
4190.000000 5.01423000e+07
4210.000000 4.96904000e+07
4230.000000 4.91227000e+07
4250.000000 4.86448000e+07
4270.000000 4.81488000e+07
4290.000000 4.77112000e+07
4310.000000 4.60465000e+07
4330.000000 4.45792000e+07
4350.000000 3.94220000e+07
4370.000000 4.64301000e+07
4390.000000 4.53258000e+07
4410.000000 4.45630000e+07
4430.000000 4.53018000e+07
4450.000000 4.46463000e+07
4470.000000 4.42307000e+07
4490.000000 4.37067000e+07
4510.000000 4.35867000e+07
4530.000000 4.28153000e+07
4550.000000 4.17227000e+07
4570.000000 4.24064000e+07
4590.000000 4.15280000e+07
4610.000000 4.21842000e+07
4630.000000 4.10719000e+07
4650.000000 4.13257000e+07
4670.000000 4.08153000e+07
4690.000000 4.05039000e+07
4710.000000 3.95221000e+07
4730.000000 3.98402000e+07
4750.000000 3.96140000e+07
4770.000000 3.91401000e+07
4790.000000 3.87630000e+07
4810.000000 3.83730000e+07
4830.000000 3.78750000e+07
4850.000000 3.56686000e+07
4870.000000 2.97928000e+07
4890.000000 3.67637000e+07
4910.000000 3.66242000e+07
4930.000000 3.58689000e+07
4950.000000 3.59578000e+07
4970.000000 3.57605000e+07
4990.000000 3.52415000e+07
5010.000000 3.44278000e+07
5030.000000 3.45670000e+07
5050.000000 3.42185000e+07
5070.000000 3.40443000e+07
5090.000000 3.37264000e+07
5110.000000 3.33965000e+07
5130.000000 3.29334000e+07
5150.000000 3.26113000e+07
5170.000000 3.18817000e+07
5190.000000 3.15763000e+07
5210.000000 3.16785000e+07
5230.000000 3.10538000e+07
5250.000000 3.11908000e+07
5270.000000 3.04024000e+07
5290.000000 3.06226000e+07
5310.000000 3.00276000e+07
5330.000000 2.98106000e+07
5350.000000 2.99054000e+07
5370.000000 2.94962000e+07
5390.000000 2.92557000e+07
5410.000000 2.89368000e+07
5430.000000 2.86218000e+07
5450.000000 2.85314000e+07
5470.000000 2.82702000e+07
5490.000000 2.80484000e+07
5510.000000 2.77558000e+07
5530.000000 2.73989000e+07
5550.000000 2.73278000e+07
5570.000000 2.70542000e+07
5590.000000 2.68175000e+07
5610.000000 2.65896000e+07
5630.000000 2.63570000e+07
5650.000000 2.60456000e+07
5670.000000 2.58353000e+07
5690.000000 2.56551000e+07
5710.000000 2.54318000e+07
5730.000000 2.52144000e+07
5750.000000 2.49835000e+07
5770.000000 2.47665000e+07
5790.000000 2.45361000e+07
5810.000000 2.43217000e+07
5830.000000 2.41008000e+07
5850.000000 2.38978000e+07
5870.000000 2.36729000e+07
5890.000000 2.32930000e+07
5910.000000 2.32683000e+07
5930.000000 2.30634000e+07
5950.000000 2.28469000e+07
5970.000000 2.26634000e+07
5990.000000 2.24347000e+07
6010.000000 2.22585000e+07
6030.000000 2.20727000e+07
6050.000000 2.18776000e+07
6070.000000 2.16959000e+07
6090.000000 2.14998000e+07
6110.000000 2.13068000e+07
6130.000000 2.11158000e+07
6150.000000 2.07974000e+07
6170.000000 2.07558000e+07
6190.000000 2.05954000e+07
6210.000000 2.04248000e+07
6230.000000 2.02318000e+07
6250.000000 1.98942000e+07
6270.000000 1.99093000e+07
6290.000000 1.97382000e+07
6310.000000 1.95338000e+07
6330.000000 1.93992000e+07
6350.000000 1.91539000e+07
6370.000000 1.90032000e+07
6390.000000 1.89084000e+07
6410.000000 1.87181000e+07
6430.000000 1.85855000e+07
6450.000000 1.83500000e+07
6470.000000 1.82961000e+07
6490.000000 1.80771000e+07
6510.000000 1.79102000e+07
6530.000000 1.77061000e+07
6550.000000 1.65418000e+07
6570.000000 1.31421000e+07
6590.000000 1.71249000e+07
6610.000000 1.71792000e+07
6630.000000 1.71040000e+07
6650.000000 1.69851000e+07
6670.000000 1.68410000e+07
6690.000000 1.67085000e+07
6710.000000 1.65748000e+07
6730.000000 1.64365000e+07
6750.000000 1.63053000e+07
6770.000000 1.61795000e+07
6790.000000 1.60451000e+07
6810.000000 1.59201000e+07
6830.000000 1.57826000e+07
6850.000000 1.56617000e+07
6870.000000 1.55403000e+07
6890.000000 1.54169000e+07
6910.000000 1.52939000e+07
6930.000000 1.51704000e+07
6950.000000 1.50520000e+07
6970.000000 1.49309000e+07
6990.000000 1.48155000e+07
7010.000000 1.46828000e+07
7030.000000 1.45810000e+07
7050.000000 1.44666000e+07
7070.000000 1.43547000e+07
7090.000000 1.42446000e+07
7110.000000 1.40901000e+07
7130.000000 1.40148000e+07
7150.000000 1.39093000e+07
7170.000000 1.38039000e+07
7190.000000 1.36915000e+07
7210.000000 1.35860000e+07
7230.000000 1.34691000e+07
7250.000000 1.33799000e+07
7270.000000 1.32807000e+07
7290.000000 1.31718000e+07
7310.000000 1.30540000e+07
7330.000000 1.29695000e+07
7350.000000 1.28746000e+07
7370.000000 1.27854000e+07
7390.000000 1.26839000e+07
7410.000000 1.25805000e+07
7430.000000 1.24821000e+07
7450.000000 1.23894000e+07
7470.000000 1.22766000e+07
7490.000000 1.22004000e+07
7510.000000 1.21101000e+07
7530.000000 1.20306000e+07
7550.000000 1.19471000e+07
7570.000000 1.18531000e+07
7590.000000 1.17692000e+07
7610.000000 1.16827000e+07
7630.000000 1.15956000e+07
7650.000000 1.15035000e+07
7670.000000 1.14193000e+07
7690.000000 1.13396000e+07
7710.000000 1.12390000e+07
7730.000000 1.11759000e+07
7750.000000 1.10932000e+07
7770.000000 1.08446000e+07
7790.000000 1.09336000e+07
7810.000000 1.08536000e+07
7830.000000 1.07712000e+07
7850.000000 1.06864000e+07
7870.000000 1.05993000e+07
7890.000000 1.05118000e+07
7910.000000 1.04605000e+07
7930.000000 1.03874000e+07
7950.000000 1.03054000e+07
7970.000000 1.02443000e+07
7990.000000 1.01411000e+07
8010.000000 1.00970000e+07
8030.000000 1.00240000e+07
8050.000000 9.95446000e+06
8070.000000 9.88204000e+06
8090.000000 9.81252000e+06
8110.000000 9.74471000e+06
8130.000000 9.67744000e+06
8150.000000 9.60902000e+06
8170.000000 9.54115000e+06
8190.000000 9.44799000e+06
8210.000000 9.43387000e+06
8230.000000 9.37250000e+06
8250.000000 9.29556000e+06
8270.000000 9.26057000e+06
8290.000000 9.17483000e+06
8310.000000 9.05926000e+06
8330.000000 8.93057000e+06
8350.000000 8.99860000e+06
8370.000000 8.72765000e+06
8390.000000 8.86805000e+06
8410.000000 8.84510000e+06
8430.000000 9.13980000e+06
8450.000000 9.00848000e+06
8470.000000 8.74648000e+06
8490.000000 9.55045000e+06
8510.000000 8.63844000e+06
8530.000000 9.72412000e+06
8550.000000 8.42742000e+06
8570.000000 9.92388000e+06
8590.000000 9.46315000e+06
8610.000000 9.19818000e+06
8630.000000 1.01829000e+07
8650.000000 1.00518000e+07
8670.000000 8.33408000e+06
8690.000000 9.94104000e+06
8710.000000 9.97291000e+06
8730.000000 9.85411000e+06
8750.000000 8.29998000e+06
8770.000000 9.64148000e+06
8790.000000 9.70444000e+06
8810.000000 9.62208000e+06
8830.000000 9.53651000e+06
8850.000000 9.27989000e+06
8870.000000 8.02186000e+06
8890.000000 9.33433000e+06
8910.000000 9.25688000e+06
8930.000000 9.18381000e+06
8950.000000 9.17997000e+06
8970.000000 9.11473000e+06
8990.000000 9.01968000e+06
9010.000000 7.81859000e+06
9030.000000 8.54770000e+06
9050.000000 8.85356000e+06
9070.000000 8.69916000e+06
9090.000000 8.56973000e+06
9110.000000 8.63065000e+06
9130.000000 8.61909000e+06
9150.000000 8.56975000e+06
9170.000000 8.50598000e+06
9190.000000 8.43643000e+06
9210.000000 8.29235000e+06
9230.000000 6.96786000e+06
9250.000000 8.10808000e+06
9270.000000 8.09768000e+06
9290.000000 8.16674000e+06
9310.000000 8.11474000e+06
9330.000000 8.05791000e+06
9350.000000 8.00624000e+06
9370.000000 7.95322000e+06
9390.000000 7.88648000e+06
9410.000000 7.76066000e+06
9430.000000 7.78413000e+06
9450.000000 7.73898000e+06
9470.000000 7.68826000e+06
9490.000000 7.63958000e+06
9510.000000 7.58165000e+06
9530.000000 7.44160000e+06
9550.000000 6.31748000e+06
9570.000000 7.37705000e+06
9590.000000 7.38728000e+06
9610.000000 7.31822000e+06
9630.000000 7.23748000e+06
9650.000000 7.24189000e+06
9670.000000 7.14912000e+06
9690.000000 7.14411000e+06
9710.000000 7.10393000e+06
9730.000000 7.05724000e+06
9750.000000 7.00692000e+06
9770.000000 6.96603000e+06
9790.000000 6.92069000e+06
9810.000000 6.87449000e+06
9830.000000 6.82901000e+06
9850.000000 6.77606000e+06
9870.000000 6.73857000e+06
9890.000000 6.67360000e+06
9910.000000 6.65360000e+06
9930.000000 6.60237000e+06
9950.000000 6.56786000e+06
9970.000000 6.52903000e+06
9990.000000 6.48631000e+06
10025.000000 6.27504000e+06
10075.000000 5.98874000e+06
10125.000000 6.19800000e+06
10175.000000 6.11286000e+06
10225.000000 6.01935000e+06
10275.000000 5.92629000e+06
10325.000000 5.82840000e+06
10375.000000 5.74261000e+06
10425.000000 5.65472000e+06
10475.000000 5.55314000e+06
10525.000000 5.47670000e+06
10575.000000 5.39640000e+06
10625.000000 5.31303000e+06
10675.000000 5.18568000e+06
10725.000000 5.13122000e+06
10775.000000 5.07365000e+06
10825.000000 4.99699000e+06
10875.000000 4.92216000e+06
10925.000000 4.51360000e+06
10975.000000 4.74154000e+06
11025.000000 4.71351000e+06
11075.000000 4.64463000e+06
11125.000000 4.57528000e+06
11175.000000 4.50909000e+06
11225.000000 4.44419000e+06
11275.000000 4.36011000e+06
11325.000000 4.29497000e+06
11375.000000 4.25176000e+06
11425.000000 4.18865000e+06
11475.000000 4.13335000e+06
11525.000000 4.07487000e+06
11575.000000 4.01669000e+06
11625.000000 3.95099000e+06
11675.000000 3.88377000e+06
11725.000000 3.84935000e+06
11775.000000 3.76673000e+06
11825.000000 3.72740000e+06
11875.000000 3.67631000e+06
11925.000000 3.63972000e+06
11975.000000 3.57655000e+06
12025.000000 3.53853000e+06
12075.000000 3.48862000e+06
12125.000000 3.44145000e+06
12175.000000 3.39647000e+06
12225.000000 3.35009000e+06
12275.000000 3.30310000e+06
12325.000000 3.25949000e+06
12375.000000 3.21648000e+06
12425.000000 3.17405000e+06
12475.000000 3.13002000e+06
12525.000000 3.08947000e+06
12575.000000 3.04422000e+06
12625.000000 3.00479000e+06
12675.000000 2.96894000e+06
12725.000000 2.93030000e+06
12775.000000 2.88571000e+06
12825.000000 2.65803000e+06
12875.000000 2.81378000e+06
12925.000000 2.78033000e+06
12975.000000 2.74440000e+06
13025.000000 2.70938000e+06
13075.000000 2.67481000e+06
13125.000000 2.64026000e+06
13175.000000 2.60463000e+06
13225.000000 2.57355000e+06
13275.000000 2.54095000e+06
13325.000000 2.50897000e+06
13375.000000 2.47740000e+06
13425.000000 2.44603000e+06
13475.000000 2.41546000e+06
13525.000000 2.38404000e+06
13575.000000 2.35486000e+06
13625.000000 2.32644000e+06
13675.000000 2.29717000e+06
13725.000000 2.26427000e+06
13775.000000 2.24091000e+06
13825.000000 2.21369000e+06
13875.000000 2.18720000e+06
13925.000000 2.15987000e+06
13975.000000 2.13421000e+06
14025.000000 2.10849000e+06
14075.000000 2.08308000e+06
14125.000000 2.05778000e+06
14175.000000 2.03317000e+06
14225.000000 2.00885000e+06
14275.000000 1.98481000e+06
14325.000000 1.96144000e+06
14375.000000 1.93815000e+06
14425.000000 1.90537000e+06
14475.000000 1.89259000e+06
14525.000000 1.86529000e+06
14570.000000 1.85042000e+06
14620.000000 1.83056000e+06
14675.000000 1.80951000e+06
14725.000000 1.78856000e+06
14775.000000 1.76612000e+06
14825.000000 1.74634000e+06
14875.000000 1.72236000e+06
14925.000000 1.70323000e+06
14975.000000 1.68667000e+06
15025.000000 1.65223000e+06
15075.000000 1.64170000e+06
15125.000000 1.62211000e+06
15175.000000 1.60617000e+06
