# Kurucz ODFNEW /NOVER, alpha: 0.0 (2003)
# teff = 19000 K (value for the effective temperature for the model. Temperatures are given in K)
# logg = 2.5 log(cm/s2) (value for Log(G) for the model.)
# lh = 1.25  (l/Hp where l is the  mixing length of the convective element and Hp is the pressure scale height)
# meta = -2.5  (value for the Metallicity for the model.)
# vtur = 2 km/s (Microturbulence velocity)
# alpha = 0  (Alpha)
#
# column 1: WAVELENGTH (ANGSTROM), Wavelength in Angstrom
# column 2: FLUX (ERG/CM2/S/A), Flux in erg/cm2/s/A
147.200000 6.15919000e-21
151.000000 4.61572000e-20
155.200000 3.79294000e-19
158.800000 2.10539000e-18
162.000000 9.04271000e-18
166.000000 5.15344000e-17
170.300000 3.04531000e-16
173.400000 1.03587000e-15
176.800000 3.76895000e-15
180.200000 1.30368000e-14
181.700000 2.21976000e-14
186.100000 1.00454000e-13
191.000000 4.95673000e-13
193.900000 1.22546000e-12
198.400000 4.72728000e-12
201.800000 1.25758000e-11
205.000000 3.06215000e-11
210.500000 1.32335000e-10
216.200000 5.55619000e-10
219.800000 1.32095000e-09
223.000000 2.78322000e-09
226.800000 6.55329000e-09
230.000000 1.53754000e-08
234.000000 3.65694000e-08
240.000000 1.20894000e-07
246.500000 4.12595000e-07
252.400000 1.18993000e-06
256.800000 2.51992000e-06
260.000000 4.31361000e-06
264.000000 8.23609000e-06
268.500000 1.66374000e-05
273.500000 3.53229000e-05
278.500000 7.29297000e-05
284.000000 1.56925000e-04
290.000000 3.49565000e-04
296.000000 7.52246000e-04
301.000000 1.39047000e-03
308.000000 3.16200000e-03
318.000000 9.63319000e-03
328.000000 2.72336000e-02
338.000000 7.21017000e-02
348.000000 1.79819000e-01
357.000000 3.90477000e-01
366.000000 8.14059000e-01
375.000000 1.63369000e+00
385.000000 3.39940000e+00
395.000000 6.79429000e+00
405.000000 1.30850000e+01
414.000000 2.29164000e+01
422.000000 3.68915000e+01
430.000000 5.82515000e+01
441.000000 1.05975000e+02
451.000000 1.77558000e+02
460.000000 2.76618000e+02
470.000000 4.42815000e+02
480.000000 6.93663000e+02
490.000000 1.06470000e+03
500.000000 1.60321000e+03
506.000000 9.44192000e+03
512.000000 2.81587000e+04
520.000000 3.74152000e+04
530.000000 5.94318000e+04
540.000000 6.51086000e+04
550.000000 1.03624000e+05
560.000000 1.31663000e+05
570.000000 1.67714000e+05
580.000000 1.65989000e+05
590.000000 2.31709000e+05
600.000000 3.20408000e+05
610.000000 3.95571000e+05
620.000000 4.78948000e+05
630.000000 5.78478000e+05
640.000000 6.82739000e+05
650.000000 8.17284000e+05
658.000000 9.41293000e+05
665.000000 1.05286000e+06
675.000000 1.21612000e+06
685.000000 1.41402000e+06
695.000000 1.66907000e+06
705.000000 1.91713000e+06
716.000000 2.23059000e+06
726.000000 2.53916000e+06
735.000000 2.86872000e+06
745.000000 3.26633000e+06
755.000000 3.69271000e+06
765.000000 4.15170000e+06
775.000000 4.66633000e+06
785.000000 5.21800000e+06
795.000000 5.80409000e+06
805.000000 6.44427000e+06
815.000000 7.11233000e+06
825.000000 7.87084000e+06
835.000000 8.56148000e+06
845.000000 9.47489000e+06
855.000000 1.03321000e+07
865.000000 1.13317000e+07
875.000000 1.23757000e+07
885.000000 1.34684000e+07
895.000000 1.45979000e+07
905.000000 1.56193000e+07
915.000000 4.61043000e+07
925.000000 1.27986000e+09
935.000000 2.87072000e+09
945.000000 4.91759000e+09
955.000000 5.45251000e+09
965.000000 6.22161000e+09
975.000000 3.42048000e+09
985.000000 6.17693000e+09
995.000000 5.95902000e+09
1005.000000 6.19910000e+09
1015.000000 6.00039000e+09
1025.000000 3.72740000e+09
1035.000000 5.56852000e+09
1045.000000 6.40529000e+09
1055.000000 6.25871000e+09
1065.000000 5.84745000e+09
1075.000000 6.12710000e+09
1085.000000 5.81915000e+09
1095.000000 6.13877000e+09
1105.000000 5.92141000e+09
1115.000000 5.94507000e+09
1125.000000 5.67851000e+09
1135.000000 5.88069000e+09
1145.000000 5.70141000e+09
1155.000000 5.83694000e+09
1165.000000 5.80794000e+09
1175.000000 5.21589000e+09
1185.000000 5.68733000e+09
1195.000000 5.37041000e+09
1205.000000 4.81204000e+09
1215.000000 2.47797000e+09
1225.000000 5.07946000e+09
1235.000000 5.35099000e+09
1245.000000 5.32978000e+09
1255.000000 5.25428000e+09
1265.000000 5.18118000e+09
1275.000000 5.22537000e+09
1285.000000 5.15919000e+09
1295.000000 4.82148000e+09
1305.000000 4.88569000e+09
1315.000000 5.00055000e+09
1325.000000 4.87857000e+09
1335.000000 4.70007000e+09
1345.000000 4.81557000e+09
1355.000000 4.80385000e+09
1365.000000 4.72543000e+09
1375.000000 4.66014000e+09
1385.000000 4.62628000e+09
1395.000000 4.45642000e+09
1405.000000 4.45867000e+09
1415.000000 4.46681000e+09
1425.000000 4.42641000e+09
1435.000000 4.39494000e+09
1442.000000 4.37013000e+09
1447.000000 4.34124000e+09
1455.000000 4.29844000e+09
1465.000000 4.24276000e+09
1475.000000 4.19634000e+09
1485.000000 4.14668000e+09
1495.000000 4.09729000e+09
1505.000000 4.03054000e+09
1512.000000 3.98655000e+09
1517.000000 3.97980000e+09
1525.000000 3.93896000e+09
1535.000000 3.82769000e+09
1545.000000 3.82328000e+09
1555.000000 3.74871000e+09
1565.000000 3.76356000e+09
1575.000000 3.73658000e+09
1585.000000 3.69543000e+09
1595.000000 3.66019000e+09
1605.000000 3.57027000e+09
1615.000000 3.52908000e+09
1625.000000 3.52216000e+09
1635.000000 3.49640000e+09
1645.000000 3.43091000e+09
1655.000000 3.41543000e+09
1665.000000 3.38662000e+09
1672.000000 3.32153000e+09
1677.000000 3.35119000e+09
1685.000000 3.31692000e+09
1695.000000 3.26347000e+09
1705.000000 3.21740000e+09
1715.000000 3.16167000e+09
1725.000000 3.13892000e+09
1735.000000 3.11023000e+09
1745.000000 3.06973000e+09
1755.000000 3.05417000e+09
1765.000000 2.96791000e+09
1775.000000 2.96098000e+09
1785.000000 2.94505000e+09
1795.000000 2.91875000e+09
1805.000000 2.89483000e+09
1815.000000 2.84529000e+09
1825.000000 2.81974000e+09
1835.000000 2.78931000e+09
1845.000000 2.71345000e+09
1855.000000 2.64793000e+09
1865.000000 2.64603000e+09
1875.000000 2.65625000e+09
1885.000000 2.56633000e+09
1895.000000 2.50228000e+09
1905.000000 2.54345000e+09
1915.000000 2.47227000e+09
1925.000000 2.44106000e+09
1935.000000 2.44930000e+09
1945.000000 2.44449000e+09
1955.000000 2.35972000e+09
1967.000000 2.38398000e+09
1976.000000 2.38345000e+09
1984.000000 2.32914000e+09
1995.000000 2.27153000e+09
2005.000000 2.29073000e+09
2015.000000 2.28428000e+09
2025.000000 2.26959000e+09
2035.000000 2.22523000e+09
2045.000000 2.20109000e+09
2055.000000 2.15010000e+09
2065.000000 2.13701000e+09
2074.000000 2.15801000e+09
2078.000000 2.10888000e+09
2085.000000 2.11086000e+09
2095.000000 2.06784000e+09
2105.000000 2.06924000e+09
2115.000000 2.05418000e+09
2125.000000 2.04265000e+09
2135.000000 2.01802000e+09
2145.000000 1.98771000e+09
2155.000000 1.97579000e+09
2165.000000 1.95597000e+09
2175.000000 1.93309000e+09
2185.000000 1.91457000e+09
2195.000000 1.89662000e+09
2205.000000 1.87597000e+09
2215.000000 1.85661000e+09
2225.000000 1.83471000e+09
2235.000000 1.81554000e+09
2245.000000 1.79940000e+09
2255.000000 1.77844000e+09
2265.000000 1.76218000e+09
2275.000000 1.74374000e+09
2285.000000 1.72692000e+09
2295.000000 1.69624000e+09
2305.000000 1.69084000e+09
2315.000000 1.67149000e+09
2325.000000 1.65505000e+09
2335.000000 1.63517000e+09
2345.000000 1.61810000e+09
2355.000000 1.60541000e+09
2365.000000 1.58748000e+09
2375.000000 1.57187000e+09
2385.000000 1.55355000e+09
2395.000000 1.53857000e+09
2405.000000 1.52378000e+09
2415.000000 1.50679000e+09
2425.000000 1.49503000e+09
2435.000000 1.47890000e+09
2445.000000 1.46450000e+09
2455.000000 1.45078000e+09
2465.000000 1.43550000e+09
2475.000000 1.42140000e+09
2485.000000 1.40687000e+09
2495.000000 1.37873000e+09
2505.000000 1.37897000e+09
2513.000000 1.36341000e+09
2518.000000 1.36073000e+09
2525.000000 1.35137000e+09
2535.000000 1.33750000e+09
2545.000000 1.32178000e+09
2555.000000 1.31243000e+09
2565.000000 1.29855000e+09
2575.000000 1.28746000e+09
2585.000000 1.27459000e+09
2595.000000 1.26204000e+09
2605.000000 1.25876000e+09
2615.000000 1.24645000e+09
2625.000000 1.23293000e+09
2635.000000 1.21740000e+09
2645.000000 1.20902000e+09
2655.000000 1.19672000e+09
2665.000000 1.18405000e+09
2675.000000 1.17231000e+09
2685.000000 1.16699000e+09
2695.000000 1.14855000e+09
2705.000000 1.14460000e+09
2715.000000 1.13363000e+09
2725.000000 1.11518000e+09
2735.000000 1.11222000e+09
2745.000000 1.09939000e+09
2755.000000 1.08953000e+09
2765.000000 1.07260000e+09
2775.000000 1.07095000e+09
2785.000000 1.06070000e+09
2795.000000 1.04266000e+09
2805.000000 1.03797000e+09
2815.000000 1.03141000e+09
2825.000000 1.01393000e+09
2835.000000 1.00815000e+09
2845.000000 1.00279000e+09
2855.000000 9.93609000e+08
2865.000000 9.84527000e+08
2875.000000 9.75412000e+08
2885.000000 9.66489000e+08
2895.000000 9.57576000e+08
2910.000000 9.44437000e+08
2930.000000 9.27200000e+08
2950.000000 9.05536000e+08
2970.000000 8.94235000e+08
2990.000000 8.78098000e+08
3010.000000 8.62435000e+08
3030.000000 8.47312000e+08
3050.000000 8.32348000e+08
3070.000000 8.17701000e+08
3090.000000 8.03165000e+08
3110.000000 7.89324000e+08
3130.000000 7.76539000e+08
3150.000000 7.62761000e+08
3170.000000 7.49380000e+08
3190.000000 7.31461000e+08
3210.000000 7.24093000e+08
3230.000000 7.11651000e+08
3250.000000 6.99495000e+08
3270.000000 6.88358000e+08
3290.000000 6.75942000e+08
3310.000000 6.65529000e+08
3330.000000 6.54433000e+08
3350.000000 6.42479000e+08
3370.000000 6.32985000e+08
3390.000000 6.22555000e+08
3410.000000 6.12391000e+08
3430.000000 5.99730000e+08
3450.000000 5.88081000e+08
3470.000000 5.80445000e+08
3490.000000 5.72327000e+08
3510.000000 5.65701000e+08
3530.000000 5.56769000e+08
3550.000000 5.48003000e+08
3570.000000 5.41082000e+08
3590.000000 5.30422000e+08
3610.000000 5.22306000e+08
3630.000000 5.13736000e+08
3640.000000 5.12225000e+08
3650.000000 5.07358000e+08
3670.000000 4.99522000e+08
3690.000000 4.81865000e+08
3710.000000 5.00304000e+08
3730.000000 5.15532000e+08
3750.000000 5.64511000e+08
3770.000000 5.60950000e+08
3790.000000 5.64146000e+08
3810.000000 5.80895000e+08
3830.000000 5.29104000e+08
3850.000000 5.78368000e+08
3870.000000 5.66217000e+08
3890.000000 5.10767000e+08
3910.000000 5.55234000e+08
3930.000000 5.43182000e+08
3950.000000 5.38202000e+08
3970.000000 4.76072000e+08
3990.000000 5.21289000e+08
4010.000000 5.11135000e+08
4030.000000 4.95381000e+08
4050.000000 4.98631000e+08
4070.000000 4.90877000e+08
4090.000000 4.77935000e+08
4110.000000 4.35337000e+08
4130.000000 4.65630000e+08
4150.000000 4.58922000e+08
4170.000000 4.54075000e+08
4190.000000 4.48356000e+08
4210.000000 4.41726000e+08
4230.000000 4.35179000e+08
4250.000000 4.28715000e+08
4270.000000 4.22105000e+08
4290.000000 4.16234000e+08
4310.000000 4.10129000e+08
4330.000000 3.95700000e+08
4350.000000 3.67103000e+08
4370.000000 3.92474000e+08
4390.000000 3.82533000e+08
4410.000000 3.81280000e+08
4430.000000 3.74543000e+08
4450.000000 3.70499000e+08
4470.000000 3.57839000e+08
4490.000000 3.60003000e+08
4510.000000 3.54965000e+08
4530.000000 3.49946000e+08
4550.000000 3.45002000e+08
4570.000000 3.40167000e+08
4590.000000 3.35439000e+08
4610.000000 3.30780000e+08
4630.000000 3.26189000e+08
4650.000000 3.21559000e+08
4670.000000 3.17222000e+08
4690.000000 3.12844000e+08
4710.000000 3.05743000e+08
4730.000000 3.04325000e+08
4750.000000 3.00115000e+08
4770.000000 2.96179000e+08
4790.000000 2.92184000e+08
4810.000000 2.88229000e+08
4830.000000 2.84345000e+08
4850.000000 2.76015000e+08
4870.000000 2.52896000e+08
4890.000000 2.72998000e+08
4910.000000 2.69498000e+08
4930.000000 2.62758000e+08
4950.000000 2.62423000e+08
4970.000000 2.58973000e+08
4990.000000 2.55585000e+08
5010.000000 2.50081000e+08
5030.000000 2.48945000e+08
5050.000000 2.44525000e+08
5070.000000 2.42541000e+08
5090.000000 2.39403000e+08
5110.000000 2.36321000e+08
5130.000000 2.33293000e+08
5150.000000 2.30292000e+08
5170.000000 2.27372000e+08
5190.000000 2.24476000e+08
5210.000000 2.21618000e+08
5230.000000 2.18824000e+08
5250.000000 2.16067000e+08
5270.000000 2.13358000e+08
5290.000000 2.10684000e+08
5310.000000 2.08058000e+08
5330.000000 2.05465000e+08
5350.000000 2.02905000e+08
5370.000000 2.00404000e+08
5390.000000 1.97921000e+08
5410.000000 1.95495000e+08
5430.000000 1.93086000e+08
5450.000000 1.90721000e+08
5470.000000 1.88397000e+08
5490.000000 1.86102000e+08
5510.000000 1.83847000e+08
5530.000000 1.81621000e+08
5550.000000 1.79433000e+08
5570.000000 1.77273000e+08
5590.000000 1.75151000e+08
5610.000000 1.73054000e+08
5630.000000 1.70995000e+08
5650.000000 1.68960000e+08
5670.000000 1.66950000e+08
5690.000000 1.64964000e+08
5710.000000 1.63036000e+08
5730.000000 1.61120000e+08
5750.000000 1.59226000e+08
5770.000000 1.57366000e+08
5790.000000 1.55539000e+08
5810.000000 1.53734000e+08
5830.000000 1.51949000e+08
5850.000000 1.50196000e+08
5870.000000 1.45392000e+08
5890.000000 1.46741000e+08
5910.000000 1.45070000e+08
5930.000000 1.43418000e+08
5950.000000 1.41774000e+08
5970.000000 1.40171000e+08
5990.000000 1.38575000e+08
6010.000000 1.37007000e+08
6030.000000 1.35468000e+08
6050.000000 1.33946000e+08
6070.000000 1.32441000e+08
6090.000000 1.30963000e+08
6110.000000 1.29502000e+08
6130.000000 1.28066000e+08
6150.000000 1.26647000e+08
6170.000000 1.25244000e+08
6190.000000 1.23865000e+08
6210.000000 1.22502000e+08
6230.000000 1.21154000e+08
6250.000000 1.19830000e+08
6270.000000 1.18521000e+08
6290.000000 1.17235000e+08
6310.000000 1.15963000e+08
6330.000000 1.14705000e+08
6350.000000 1.13460000e+08
6370.000000 1.12248000e+08
6390.000000 1.11039000e+08
6410.000000 1.09852000e+08
6430.000000 1.08677000e+08
6450.000000 1.07524000e+08
6470.000000 1.06375000e+08
6490.000000 1.05246000e+08
6510.000000 1.04138000e+08
6530.000000 1.03042000e+08
6550.000000 1.00894000e+08
6570.000000 9.20508000e+07
6590.000000 9.96473000e+07
6610.000000 9.87865000e+07
6630.000000 9.77629000e+07
6650.000000 9.68094000e+07
6670.000000 9.52051000e+07
6690.000000 9.42326000e+07
6710.000000 9.38391000e+07
6730.000000 9.28746000e+07
6750.000000 9.19199000e+07
6770.000000 9.09831000e+07
6790.000000 9.00475000e+07
6810.000000 8.91375000e+07
6830.000000 8.82286000e+07
6850.000000 8.73368000e+07
6870.000000 8.64539000e+07
6890.000000 8.55797000e+07
6910.000000 8.47221000e+07
6930.000000 8.38651000e+07
6950.000000 8.30322000e+07
6970.000000 8.22074000e+07
6990.000000 8.13752000e+07
7010.000000 8.05742000e+07
7030.000000 7.97810000e+07
7050.000000 7.89879000e+07
7070.000000 7.71172000e+07
7090.000000 7.74397000e+07
7110.000000 7.66842000e+07
7130.000000 7.59359000e+07
7150.000000 7.51948000e+07
7170.000000 7.44461000e+07
7190.000000 7.37338000e+07
7210.000000 7.30209000e+07
7230.000000 7.22715000e+07
7250.000000 7.16175000e+07
7270.000000 7.09289000e+07
7290.000000 6.97484000e+07
7310.000000 6.95633000e+07
7330.000000 6.89100000e+07
7350.000000 6.82531000e+07
7370.000000 6.76036000e+07
7390.000000 6.69623000e+07
7410.000000 6.63289000e+07
7430.000000 6.57021000e+07
7450.000000 6.50925000e+07
7470.000000 6.44805000e+07
7490.000000 6.38760000e+07
7510.000000 6.32564000e+07
7530.000000 6.26876000e+07
7550.000000 6.21034000e+07
7570.000000 6.15259000e+07
7590.000000 6.09555000e+07
7610.000000 6.03916000e+07
7630.000000 5.98334000e+07
7650.000000 5.92802000e+07
7670.000000 5.87396000e+07
7690.000000 5.81956000e+07
7710.000000 5.76615000e+07
7730.000000 5.71435000e+07
7750.000000 5.66149000e+07
7770.000000 5.61048000e+07
7790.000000 5.56005000e+07
7810.000000 5.50567000e+07
7830.000000 5.46006000e+07
7850.000000 5.41656000e+07
7870.000000 5.36790000e+07
7890.000000 5.31658000e+07
7910.000000 5.26564000e+07
7930.000000 5.21252000e+07
7950.000000 5.16522000e+07
7970.000000 5.11750000e+07
7990.000000 5.07947000e+07
8010.000000 5.02918000e+07
8030.000000 4.98873000e+07
8050.000000 4.94677000e+07
8070.000000 4.90556000e+07
8090.000000 4.85336000e+07
8110.000000 4.81404000e+07
8130.000000 4.78024000e+07
8150.000000 4.72873000e+07
8170.000000 4.69805000e+07
8190.000000 4.65559000e+07
8210.000000 4.60314000e+07
8230.000000 4.57651000e+07
8250.000000 4.53614000e+07
8270.000000 4.47666000e+07
8290.000000 4.45234000e+07
8310.000000 4.41534000e+07
8330.000000 4.37500000e+07
8350.000000 4.32045000e+07
8370.000000 4.27784000e+07
8390.000000 4.24789000e+07
8410.000000 4.20656000e+07
8430.000000 4.17979000e+07
8450.000000 4.13190000e+07
8470.000000 4.05979000e+07
8490.000000 4.12891000e+07
8510.000000 3.97688000e+07
8530.000000 4.08785000e+07
8550.000000 3.86627000e+07
8570.000000 4.08184000e+07
8590.000000 3.88875000e+07
8610.000000 3.84840000e+07
8630.000000 4.02128000e+07
8650.000000 3.93846000e+07
8670.000000 3.63293000e+07
8690.000000 3.94314000e+07
8710.000000 3.93047000e+07
8730.000000 3.83492000e+07
8750.000000 3.50924000e+07
8770.000000 3.76652000e+07
8790.000000 3.80196000e+07
8810.000000 3.76477000e+07
8830.000000 3.73749000e+07
8850.000000 3.60224000e+07
8870.000000 3.35670000e+07
8890.000000 3.63897000e+07
8910.000000 3.61658000e+07
8930.000000 3.58362000e+07
8950.000000 3.56259000e+07
8970.000000 3.53549000e+07
8990.000000 3.47596000e+07
9010.000000 3.19588000e+07
9030.000000 3.34927000e+07
9050.000000 3.41907000e+07
9070.000000 3.37328000e+07
9090.000000 3.35886000e+07
9110.000000 3.34041000e+07
9130.000000 3.31571000e+07
9150.000000 3.28944000e+07
9170.000000 3.25629000e+07
9190.000000 3.23759000e+07
9210.000000 3.15510000e+07
9230.000000 2.88991000e+07
9250.000000 3.13078000e+07
9270.000000 3.13578000e+07
9290.000000 3.11265000e+07
9310.000000 3.07782000e+07
9330.000000 3.06429000e+07
9350.000000 3.03840000e+07
9370.000000 3.01695000e+07
9390.000000 2.99360000e+07
9410.000000 2.97042000e+07
9430.000000 2.94754000e+07
9450.000000 2.92487000e+07
9470.000000 2.88887000e+07
9490.000000 2.88010000e+07
9510.000000 2.83688000e+07
9530.000000 2.77695000e+07
9550.000000 2.55516000e+07
9570.000000 2.77489000e+07
9590.000000 2.77193000e+07
9610.000000 2.74429000e+07
9630.000000 2.71958000e+07
9650.000000 2.70953000e+07
9670.000000 2.68911000e+07
9690.000000 2.66650000e+07
9710.000000 2.64167000e+07
9730.000000 2.62895000e+07
9750.000000 2.60930000e+07
9770.000000 2.58978000e+07
9790.000000 2.57049000e+07
9810.000000 2.55133000e+07
9830.000000 2.53238000e+07
9850.000000 2.51360000e+07
9870.000000 2.49499000e+07
9890.000000 2.47655000e+07
9910.000000 2.45805000e+07
9930.000000 2.44021000e+07
9950.000000 2.42227000e+07
9970.000000 2.40449000e+07
9990.000000 2.38687000e+07
10025.000000 2.31235000e+07
10075.000000 2.24481000e+07
10125.000000 2.26826000e+07
10175.000000 2.23143000e+07
10225.000000 2.19064000e+07
10275.000000 2.15267000e+07
10325.000000 2.10855000e+07
10375.000000 2.07732000e+07
10425.000000 2.04091000e+07
10475.000000 2.00526000e+07
10525.000000 1.97041000e+07
10575.000000 1.93629000e+07
10625.000000 1.90293000e+07
10675.000000 1.86742000e+07
10725.000000 1.83829000e+07
10775.000000 1.80699000e+07
10825.000000 1.75829000e+07
10875.000000 1.74636000e+07
10925.000000 1.63768000e+07
10975.000000 1.67896000e+07
11025.000000 1.65345000e+07
11075.000000 1.63247000e+07
11125.000000 1.60562000e+07
11175.000000 1.57919000e+07
11225.000000 1.55245000e+07
11275.000000 1.52792000e+07
11325.000000 1.50309000e+07
11375.000000 1.47873000e+07
11425.000000 1.45487000e+07
11475.000000 1.43149000e+07
11525.000000 1.40858000e+07
11575.000000 1.38611000e+07
11625.000000 1.36413000e+07
11675.000000 1.34254000e+07
11725.000000 1.32139000e+07
11775.000000 1.30065000e+07
11825.000000 1.28033000e+07
11875.000000 1.26038000e+07
11925.000000 1.24083000e+07
11975.000000 1.21562000e+07
12025.000000 1.20285000e+07
12075.000000 1.18440000e+07
12125.000000 1.16630000e+07
12175.000000 1.14856000e+07
12225.000000 1.13114000e+07
12275.000000 1.11407000e+07
12325.000000 1.09729000e+07
12375.000000 1.08084000e+07
12425.000000 1.06471000e+07
12475.000000 1.04886000e+07
12525.000000 1.03159000e+07
12575.000000 1.01804000e+07
12625.000000 1.00307000e+07
12675.000000 9.88373000e+06
12725.000000 9.73921000e+06
12775.000000 9.51400000e+06
12825.000000 9.04601000e+06
12875.000000 9.31337000e+06
12925.000000 9.18756000e+06
12975.000000 9.01798000e+06
13025.000000 8.92622000e+06
13075.000000 8.79925000e+06
