# Kurucz ODFNEW /NOVER, alpha: 0.0 (2003)
# teff = 19000 K (value for the effective temperature for the model. Temperatures are given in K)
# logg = 2.5 log(cm/s2) (value for Log(G) for the model.)
# lh = 1.25  (l/Hp where l is the  mixing length of the convective element and Hp is the pressure scale height)
# meta = -1  (value for the Metallicity for the model.)
# vtur = 2 km/s (Microturbulence velocity)
# alpha = 0  (Alpha)
#
# column 1: WAVELENGTH (ANGSTROM), Wavelength in Angstrom
# column 2: FLUX (ERG/CM2/S/A), Flux in erg/cm2/s/A
147.200000 2.98423000e-21
151.000000 2.16362000e-20
155.200000 1.72310000e-19
158.800000 9.36944000e-19
162.000000 3.96927000e-18
166.000000 2.23377000e-17
170.300000 1.30781000e-16
173.400000 4.43066000e-16
176.800000 1.60800000e-15
180.200000 5.55847000e-15
181.700000 9.46568000e-15
186.100000 4.29343000e-14
191.000000 2.12917000e-13
193.900000 5.28442000e-13
198.400000 2.05321000e-12
201.800000 5.49582000e-12
205.000000 1.34610000e-11
210.500000 5.88047000e-11
216.200000 2.49866000e-10
219.800000 5.98757000e-10
223.000000 1.27066000e-09
226.800000 3.01811000e-09
230.000000 2.86421000e-08
234.000000 7.54408000e-08
240.000000 2.36287000e-07
246.500000 7.64281000e-07
252.400000 2.12534000e-06
256.800000 4.25463000e-06
260.000000 7.31780000e-06
264.000000 1.36052000e-05
268.500000 2.66880000e-05
273.500000 5.49112000e-05
278.500000 1.10354000e-04
284.000000 2.31252000e-04
290.000000 4.99872000e-04
296.000000 1.04528000e-03
301.000000 1.88791000e-03
308.000000 4.09516000e-03
318.000000 1.23159000e-02
328.000000 3.35164000e-02
338.000000 8.66606000e-02
348.000000 2.10579000e-01
357.000000 4.52315000e-01
366.000000 9.30068000e-01
375.000000 1.82357000e+00
385.000000 3.73057000e+00
395.000000 7.32549000e+00
405.000000 1.38953000e+01
414.000000 2.40704000e+01
422.000000 3.82433000e+01
430.000000 5.96797000e+01
441.000000 1.07546000e+02
451.000000 1.78560000e+02
460.000000 2.75497000e+02
470.000000 4.37954000e+02
480.000000 6.79944000e+02
490.000000 1.03761000e+03
500.000000 1.55273000e+03
506.000000 1.32531000e+04
512.000000 5.53919000e+04
520.000000 7.24285000e+04
530.000000 1.08910000e+05
540.000000 1.22208000e+05
550.000000 1.93384000e+05
560.000000 2.40922000e+05
570.000000 3.13048000e+05
580.000000 3.08898000e+05
590.000000 4.33969000e+05
600.000000 5.77076000e+05
610.000000 7.23399000e+05
620.000000 8.59794000e+05
630.000000 1.03442000e+06
640.000000 1.17130000e+06
650.000000 1.35400000e+06
658.000000 1.65235000e+06
665.000000 1.81829000e+06
675.000000 2.03725000e+06
685.000000 2.32866000e+06
695.000000 2.83071000e+06
705.000000 3.18195000e+06
716.000000 3.71361000e+06
726.000000 4.14486000e+06
735.000000 4.59893000e+06
745.000000 5.33262000e+06
755.000000 6.00665000e+06
765.000000 6.73410000e+06
775.000000 7.56877000e+06
785.000000 8.45314000e+06
795.000000 9.26229000e+06
805.000000 1.01823000e+07
815.000000 1.10496000e+07
825.000000 1.23277000e+07
835.000000 1.29419000e+07
845.000000 1.43632000e+07
855.000000 1.55923000e+07
865.000000 1.70746000e+07
875.000000 1.87881000e+07
885.000000 2.05867000e+07
895.000000 2.22099000e+07
905.000000 2.32691000e+07
915.000000 5.98285000e+07
925.000000 1.28871000e+09
935.000000 2.75153000e+09
945.000000 4.24768000e+09
955.000000 4.85811000e+09
965.000000 5.22884000e+09
975.000000 1.60536000e+09
985.000000 4.76588000e+09
995.000000 4.74477000e+09
1005.000000 5.38262000e+09
1015.000000 5.36960000e+09
1025.000000 3.56163000e+09
1035.000000 4.16672000e+09
1045.000000 6.15242000e+09
1055.000000 5.77977000e+09
1065.000000 5.09846000e+09
1075.000000 5.79361000e+09
1085.000000 5.17848000e+09
1095.000000 5.91663000e+09
1105.000000 5.43516000e+09
1115.000000 5.43416000e+09
1125.000000 4.85041000e+09
1135.000000 5.76459000e+09
1145.000000 5.42152000e+09
1155.000000 5.61695000e+09
1165.000000 5.71857000e+09
1175.000000 4.35362000e+09
1185.000000 5.69350000e+09
1195.000000 5.12032000e+09
1205.000000 3.36897000e+09
1215.000000 2.71275000e+09
1225.000000 4.97402000e+09
1235.000000 5.43472000e+09
1245.000000 5.48849000e+09
1255.000000 5.35832000e+09
1265.000000 5.25228000e+09
1275.000000 5.45341000e+09
1285.000000 5.33874000e+09
1295.000000 4.21585000e+09
1305.000000 4.47689000e+09
1315.000000 5.23714000e+09
1325.000000 5.00582000e+09
1335.000000 4.67047000e+09
1345.000000 4.96343000e+09
1355.000000 4.98011000e+09
1365.000000 4.72584000e+09
1375.000000 4.67349000e+09
1385.000000 4.68794000e+09
1395.000000 4.04718000e+09
1405.000000 4.27241000e+09
1415.000000 4.45477000e+09
1425.000000 4.41454000e+09
1435.000000 4.48038000e+09
1442.000000 4.53935000e+09
1447.000000 4.45639000e+09
1455.000000 4.38848000e+09
1465.000000 4.23188000e+09
1475.000000 4.20967000e+09
1485.000000 4.16359000e+09
1495.000000 4.10403000e+09
1505.000000 3.92726000e+09
1512.000000 3.63852000e+09
1517.000000 3.74865000e+09
1525.000000 3.79171000e+09
1535.000000 3.47450000e+09
1545.000000 3.55183000e+09
1555.000000 3.39240000e+09
1565.000000 3.53930000e+09
1575.000000 3.64090000e+09
1585.000000 3.60230000e+09
1595.000000 3.61828000e+09
1605.000000 3.52581000e+09
1615.000000 3.48589000e+09
1625.000000 3.45268000e+09
1635.000000 3.54572000e+09
1645.000000 3.50595000e+09
1655.000000 3.44514000e+09
1665.000000 3.49615000e+09
1672.000000 3.39619000e+09
1677.000000 3.50738000e+09
1685.000000 3.45929000e+09
1695.000000 3.33310000e+09
1705.000000 3.23217000e+09
1715.000000 3.10724000e+09
1725.000000 3.09891000e+09
1735.000000 3.15428000e+09
1745.000000 3.08965000e+09
1755.000000 3.12903000e+09
1765.000000 3.01386000e+09
1775.000000 2.95142000e+09
1785.000000 2.96692000e+09
1795.000000 3.01557000e+09
1805.000000 3.01786000e+09
1815.000000 2.80526000e+09
1825.000000 2.87822000e+09
1835.000000 2.82030000e+09
1845.000000 2.62845000e+09
1855.000000 2.57129000e+09
1865.000000 2.62242000e+09
1875.000000 2.72987000e+09
1885.000000 2.49137000e+09
1895.000000 2.33946000e+09
1905.000000 2.50733000e+09
1915.000000 2.39522000e+09
1925.000000 2.31662000e+09
1935.000000 2.41418000e+09
1945.000000 2.44808000e+09
1955.000000 2.26233000e+09
1967.000000 2.40628000e+09
1976.000000 2.48794000e+09
1984.000000 2.34053000e+09
1995.000000 2.28668000e+09
2005.000000 2.34142000e+09
2015.000000 2.33606000e+09
2025.000000 2.38599000e+09
2035.000000 2.22605000e+09
2045.000000 2.24235000e+09
2055.000000 2.18819000e+09
2065.000000 2.20151000e+09
2074.000000 2.30453000e+09
2078.000000 2.13121000e+09
2085.000000 2.19492000e+09
2095.000000 2.09625000e+09
2105.000000 2.14031000e+09
2115.000000 2.13528000e+09
2125.000000 2.16729000e+09
2135.000000 2.13133000e+09
2145.000000 2.03274000e+09
2155.000000 2.10056000e+09
2165.000000 2.08658000e+09
2175.000000 2.05971000e+09
2185.000000 2.02070000e+09
2195.000000 2.03095000e+09
2205.000000 2.00947000e+09
2215.000000 1.98415000e+09
2225.000000 1.94353000e+09
2235.000000 1.92927000e+09
2245.000000 1.93417000e+09
2255.000000 1.88682000e+09
2265.000000 1.89737000e+09
2275.000000 1.87563000e+09
2285.000000 1.87325000e+09
2295.000000 1.80260000e+09
2305.000000 1.82713000e+09
2315.000000 1.78586000e+09
2325.000000 1.76927000e+09
2335.000000 1.72375000e+09
2345.000000 1.71333000e+09
2355.000000 1.72442000e+09
2365.000000 1.69558000e+09
2375.000000 1.67900000e+09
2385.000000 1.65674000e+09
2395.000000 1.65048000e+09
2405.000000 1.62812000e+09
2415.000000 1.60543000e+09
2425.000000 1.61310000e+09
2435.000000 1.57955000e+09
2445.000000 1.57516000e+09
2455.000000 1.57192000e+09
2465.000000 1.54530000e+09
2475.000000 1.53081000e+09
2485.000000 1.51455000e+09
2495.000000 1.44494000e+09
2505.000000 1.48542000e+09
2513.000000 1.43660000e+09
2518.000000 1.46406000e+09
2525.000000 1.44709000e+09
2535.000000 1.42608000e+09
2545.000000 1.39919000e+09
2555.000000 1.41308000e+09
2565.000000 1.39023000e+09
2575.000000 1.39240000e+09
2585.000000 1.37663000e+09
2595.000000 1.36370000e+09
2605.000000 1.35769000e+09
2615.000000 1.34269000e+09
2625.000000 1.33019000e+09
2635.000000 1.31566000e+09
2645.000000 1.31650000e+09
2655.000000 1.30666000e+09
2665.000000 1.28419000e+09
2675.000000 1.27782000e+09
2685.000000 1.27208000e+09
2695.000000 1.24544000e+09
2705.000000 1.24253000e+09
2715.000000 1.23073000e+09
2725.000000 1.21117000e+09
2735.000000 1.21028000e+09
2745.000000 1.17853000e+09
2755.000000 1.17431000e+09
2765.000000 1.16465000e+09
2775.000000 1.16738000e+09
2785.000000 1.15298000e+09
2795.000000 1.11900000e+09
2805.000000 1.12607000e+09
2815.000000 1.12440000e+09
2825.000000 1.10683000e+09
2835.000000 1.08338000e+09
2845.000000 1.08992000e+09
2855.000000 1.07962000e+09
2865.000000 1.07361000e+09
2875.000000 1.06278000e+09
2885.000000 1.05407000e+09
2895.000000 1.04289000e+09
2910.000000 1.02803000e+09
2930.000000 1.00808000e+09
2950.000000 9.84670000e+08
2970.000000 9.73332000e+08
2990.000000 9.53865000e+08
3010.000000 9.35243000e+08
3030.000000 9.23348000e+08
3050.000000 9.07026000e+08
3070.000000 8.91169000e+08
3090.000000 8.71661000e+08
3110.000000 8.59317000e+08
3130.000000 8.44872000e+08
3150.000000 8.30115000e+08
3170.000000 8.14537000e+08
3190.000000 7.95396000e+08
3210.000000 7.87380000e+08
3230.000000 7.73579000e+08
3250.000000 7.60664000e+08
3270.000000 7.48005000e+08
3290.000000 7.34344000e+08
3310.000000 7.23365000e+08
3330.000000 7.11101000e+08
3350.000000 6.97936000e+08
3370.000000 6.87487000e+08
3390.000000 6.76186000e+08
3410.000000 6.65102000e+08
3430.000000 6.50868000e+08
3450.000000 6.38090000e+08
3470.000000 6.29661000e+08
3490.000000 6.20701000e+08
3510.000000 6.13281000e+08
3530.000000 6.03903000e+08
3550.000000 5.94218000e+08
3570.000000 5.86662000e+08
3590.000000 5.74268000e+08
3610.000000 5.64743000e+08
3630.000000 5.56421000e+08
3640.000000 5.55017000e+08
3650.000000 5.44345000e+08
3670.000000 5.36247000e+08
3690.000000 5.17667000e+08
3710.000000 5.33942000e+08
3730.000000 5.47078000e+08
3750.000000 5.94114000e+08
3770.000000 5.89258000e+08
3790.000000 5.91108000e+08
3810.000000 6.06952000e+08
3830.000000 5.55454000e+08
3850.000000 6.02869000e+08
3870.000000 5.89611000e+08
3890.000000 5.36385000e+08
3910.000000 5.78816000e+08
3930.000000 5.62744000e+08
3950.000000 5.60682000e+08
3970.000000 4.99783000e+08
3990.000000 5.43060000e+08
4010.000000 5.33158000e+08
4030.000000 5.17070000e+08
4050.000000 5.19830000e+08
4070.000000 5.09685000e+08
4090.000000 4.97033000e+08
4110.000000 4.56368000e+08
4130.000000 4.83808000e+08
4150.000000 4.77953000e+08
4170.000000 4.73206000e+08
4190.000000 4.67433000e+08
4210.000000 4.61068000e+08
4230.000000 4.53876000e+08
4250.000000 4.46652000e+08
4270.000000 4.37499000e+08
4290.000000 4.33613000e+08
4310.000000 4.26840000e+08
4330.000000 4.12458000e+08
4350.000000 3.83489000e+08
4370.000000 4.08334000e+08
4390.000000 3.99071000e+08
4410.000000 3.96970000e+08
4430.000000 3.90476000e+08
4450.000000 3.86346000e+08
4470.000000 3.73677000e+08
4490.000000 3.74691000e+08
4510.000000 3.70449000e+08
4530.000000 3.64964000e+08
4550.000000 3.59651000e+08
4570.000000 3.54454000e+08
4590.000000 3.49798000e+08
4610.000000 3.44766000e+08
4630.000000 3.39949000e+08
4650.000000 3.33965000e+08
4670.000000 3.30627000e+08
4690.000000 3.26580000e+08
4710.000000 3.18344000e+08
4730.000000 3.16415000e+08
4750.000000 3.11769000e+08
4770.000000 3.09309000e+08
4790.000000 3.05040000e+08
4810.000000 3.00620000e+08
4830.000000 2.96585000e+08
4850.000000 2.88683000e+08
4870.000000 2.65508000e+08
4890.000000 2.85067000e+08
4910.000000 2.81343000e+08
4930.000000 2.74198000e+08
4950.000000 2.73816000e+08
4970.000000 2.70457000e+08
4990.000000 2.66826000e+08
5010.000000 2.60092000e+08
5030.000000 2.59845000e+08
5050.000000 2.54733000e+08
5070.000000 2.53181000e+08
5090.000000 2.49916000e+08
5110.000000 2.46665000e+08
5130.000000 2.43171000e+08
5150.000000 2.40093000e+08
5170.000000 2.37379000e+08
5190.000000 2.34364000e+08
5210.000000 2.31125000e+08
5230.000000 2.28451000e+08
5250.000000 2.25593000e+08
5270.000000 2.22704000e+08
5290.000000 2.19973000e+08
5310.000000 2.17184000e+08
5330.000000 2.14483000e+08
5350.000000 2.11724000e+08
5370.000000 2.09261000e+08
5390.000000 2.06648000e+08
5410.000000 2.04119000e+08
5430.000000 2.01494000e+08
5450.000000 1.99066000e+08
5470.000000 1.96656000e+08
5490.000000 1.94289000e+08
5510.000000 1.91950000e+08
5530.000000 1.89603000e+08
5550.000000 1.87359000e+08
5570.000000 1.85069000e+08
5590.000000 1.82879000e+08
5610.000000 1.80643000e+08
5630.000000 1.78554000e+08
5650.000000 1.76195000e+08
5670.000000 1.74016000e+08
5690.000000 1.71864000e+08
5710.000000 1.70177000e+08
5730.000000 1.68177000e+08
5750.000000 1.66131000e+08
5770.000000 1.64314000e+08
5790.000000 1.62383000e+08
5810.000000 1.60497000e+08
5830.000000 1.58599000e+08
5850.000000 1.56801000e+08
5870.000000 1.51842000e+08
5890.000000 1.52898000e+08
5910.000000 1.51412000e+08
5930.000000 1.49632000e+08
5950.000000 1.47882000e+08
5970.000000 1.46333000e+08
5990.000000 1.44602000e+08
6010.000000 1.43025000e+08
6030.000000 1.41384000e+08
6050.000000 1.39823000e+08
6070.000000 1.38259000e+08
6090.000000 1.36702000e+08
6110.000000 1.35193000e+08
6130.000000 1.33691000e+08
6150.000000 1.32116000e+08
6170.000000 1.30706000e+08
6190.000000 1.29293000e+08
6210.000000 1.27865000e+08
6230.000000 1.26463000e+08
6250.000000 1.25048000e+08
6270.000000 1.23705000e+08
6290.000000 1.22358000e+08
6310.000000 1.21006000e+08
6330.000000 1.19726000e+08
6350.000000 1.18281000e+08
6370.000000 1.17085000e+08
6390.000000 1.15873000e+08
6410.000000 1.14638000e+08
6430.000000 1.13425000e+08
6450.000000 1.12206000e+08
6470.000000 1.10964000e+08
6490.000000 1.09799000e+08
6510.000000 1.08663000e+08
6530.000000 1.07503000e+08
6550.000000 1.05355000e+08
6570.000000 9.61354000e+07
6590.000000 1.03638000e+08
6610.000000 1.03063000e+08
6630.000000 1.02005000e+08
6650.000000 1.01001000e+08
6670.000000 9.93374000e+07
6690.000000 9.83235000e+07
6710.000000 9.79056000e+07
6730.000000 9.68754000e+07
6750.000000 9.59053000e+07
6770.000000 9.49203000e+07
6790.000000 9.38390000e+07
6810.000000 9.29799000e+07
6830.000000 9.20404000e+07
6850.000000 9.11104000e+07
6870.000000 9.01895000e+07
6890.000000 8.92699000e+07
6910.000000 8.83752000e+07
6930.000000 8.74736000e+07
6950.000000 8.66199000e+07
6970.000000 8.57513000e+07
6990.000000 8.48835000e+07
7010.000000 8.40548000e+07
7030.000000 8.32189000e+07
7050.000000 8.23912000e+07
7070.000000 8.04410000e+07
7090.000000 8.07747000e+07
7110.000000 7.99557000e+07
7130.000000 7.91817000e+07
7150.000000 7.84225000e+07
7170.000000 7.76412000e+07
7190.000000 7.69038000e+07
7210.000000 7.61589000e+07
7230.000000 7.49309000e+07
7250.000000 7.46757000e+07
7270.000000 7.39661000e+07
7290.000000 7.27385000e+07
7310.000000 7.25454000e+07
7330.000000 7.18626000e+07
7350.000000 7.11722000e+07
7370.000000 7.04951000e+07
7390.000000 6.98244000e+07
7410.000000 6.91666000e+07
7430.000000 6.85082000e+07
7450.000000 6.78714000e+07
7470.000000 6.72147000e+07
7490.000000 6.65997000e+07
7510.000000 6.59489000e+07
7530.000000 6.53552000e+07
7550.000000 6.47490000e+07
7570.000000 6.41457000e+07
7590.000000 6.35485000e+07
7610.000000 6.29560000e+07
7630.000000 6.23779000e+07
7650.000000 6.17991000e+07
7670.000000 6.12346000e+07
7690.000000 6.06661000e+07
7710.000000 6.01084000e+07
7730.000000 5.95658000e+07
7750.000000 5.90147000e+07
7770.000000 5.84143000e+07
7790.000000 5.79552000e+07
7810.000000 5.73851000e+07
7830.000000 5.69111000e+07
7850.000000 5.64380000e+07
7870.000000 5.59320000e+07
7890.000000 5.53801000e+07
7910.000000 5.48650000e+07
7930.000000 5.43202000e+07
7950.000000 5.38177000e+07
7970.000000 5.33273000e+07
7990.000000 5.29073000e+07
8010.000000 5.23980000e+07
8030.000000 5.19748000e+07
8050.000000 5.15466000e+07
8070.000000 5.11167000e+07
8090.000000 5.05701000e+07
8110.000000 5.01480000e+07
8130.000000 4.98076000e+07
8150.000000 4.92685000e+07
8170.000000 4.89497000e+07
8190.000000 4.84924000e+07
8210.000000 4.78574000e+07
8230.000000 4.75655000e+07
8250.000000 4.71603000e+07
8270.000000 4.65342000e+07
8290.000000 4.62880000e+07
8310.000000 4.59024000e+07
8330.000000 4.54879000e+07
8350.000000 4.49244000e+07
8370.000000 4.44868000e+07
8390.000000 4.41776000e+07
8410.000000 4.37530000e+07
8430.000000 4.34593000e+07
8450.000000 4.29325000e+07
8470.000000 4.22521000e+07
8490.000000 4.28770000e+07
8510.000000 4.13861000e+07
8530.000000 4.24266000e+07
8550.000000 4.02525000e+07
8570.000000 4.23264000e+07
8590.000000 4.04100000e+07
8610.000000 3.99989000e+07
8630.000000 4.16590000e+07
8650.000000 4.08226000e+07
8670.000000 3.78289000e+07
8690.000000 4.08273000e+07
8710.000000 4.06926000e+07
8730.000000 3.97254000e+07
8750.000000 3.65380000e+07
8770.000000 3.90303000e+07
8790.000000 3.93541000e+07
8810.000000 3.89732000e+07
8830.000000 3.86867000e+07
8850.000000 3.73485000e+07
8870.000000 3.49312000e+07
8890.000000 3.76781000e+07
8910.000000 3.74361000e+07
8930.000000 3.70952000e+07
8950.000000 3.68779000e+07
8970.000000 3.65966000e+07
8990.000000 3.59916000e+07
9010.000000 3.32318000e+07
9030.000000 3.47411000e+07
9050.000000 3.54004000e+07
9070.000000 3.49198000e+07
9090.000000 3.47686000e+07
9110.000000 3.45766000e+07
9130.000000 3.43200000e+07
9150.000000 3.40491000e+07
9170.000000 3.37072000e+07
9190.000000 3.35075000e+07
9210.000000 3.26795000e+07
9230.000000 3.00480000e+07
9250.000000 3.24120000e+07
9270.000000 3.24122000e+07
9290.000000 3.22173000e+07
9310.000000 3.18600000e+07
9330.000000 3.17045000e+07
9350.000000 3.14505000e+07
9370.000000 3.12280000e+07
9390.000000 3.09862000e+07
9410.000000 3.07287000e+07
9430.000000 3.05099000e+07
9450.000000 3.02746000e+07
9470.000000 2.99053000e+07
9490.000000 2.98112000e+07
9510.000000 2.93677000e+07
9530.000000 2.87692000e+07
9550.000000 2.65864000e+07
9570.000000 2.87349000e+07
9590.000000 2.86913000e+07
9610.000000 2.84044000e+07
9630.000000 2.81391000e+07
9650.000000 2.80452000e+07
9670.000000 2.78334000e+07
9690.000000 2.75999000e+07
9710.000000 2.73437000e+07
9730.000000 2.72107000e+07
9750.000000 2.70064000e+07
9770.000000 2.68052000e+07
9790.000000 2.66050000e+07
9810.000000 2.64058000e+07
9830.000000 2.62103000e+07
9850.000000 2.60163000e+07
9870.000000 2.58231000e+07
9890.000000 2.56302000e+07
9910.000000 2.54030000e+07
9930.000000 2.52560000e+07
9950.000000 2.50705000e+07
9970.000000 2.48859000e+07
9990.000000 2.47041000e+07
10025.000000 2.39542000e+07
10075.000000 2.32594000e+07
10125.000000 2.34746000e+07
10175.000000 2.30941000e+07
10225.000000 2.26721000e+07
10275.000000 2.22782000e+07
10325.000000 2.18216000e+07
10375.000000 2.14980000e+07
10425.000000 2.11207000e+07
10475.000000 2.07517000e+07
10525.000000 2.03900000e+07
10575.000000 2.00373000e+07
10625.000000 1.96917000e+07
10675.000000 1.93232000e+07
10725.000000 1.90222000e+07
10775.000000 1.86981000e+07
10825.000000 1.81966000e+07
10875.000000 1.80704000e+07
10925.000000 1.69781000e+07
10975.000000 1.73804000e+07
11025.000000 1.71091000e+07
11075.000000 1.68914000e+07
11125.000000 1.66133000e+07
11175.000000 1.63394000e+07
11225.000000 1.60626000e+07
11275.000000 1.58055000e+07
11325.000000 1.55497000e+07
11375.000000 1.52994000e+07
11425.000000 1.50515000e+07
11475.000000 1.48105000e+07
11525.000000 1.45733000e+07
11575.000000 1.43400000e+07
11625.000000 1.41124000e+07
11675.000000 1.38892000e+07
11725.000000 1.36704000e+07
11775.000000 1.34549000e+07
11825.000000 1.32454000e+07
11875.000000 1.30390000e+07
11925.000000 1.28366000e+07
11975.000000 1.25760000e+07
12025.000000 1.24435000e+07
12075.000000 1.22525000e+07
12125.000000 1.20653000e+07
12175.000000 1.18816000e+07
12225.000000 1.17014000e+07
12275.000000 1.15245000e+07
12325.000000 1.13508000e+07
12375.000000 1.11806000e+07
12425.000000 1.10134000e+07
12475.000000 1.08486000e+07
12525.000000 1.06706000e+07
12575.000000 1.05299000e+07
12625.000000 1.03753000e+07
12675.000000 1.02230000e+07
12725.000000 1.00735000e+07
12775.000000 9.84202000e+06
12825.000000 9.37491000e+06
12875.000000 9.63314000e+06
12925.000000 9.50237000e+06
12975.000000 9.32679000e+06
13025.000000 9.23178000e+06
13075.000000 9.10027000e+06
