# Kurucz ODFNEW /NOVER, alpha: 0.0 (2003)
# teff = 19000 K (value for the effective temperature for the model. Temperatures are given in K)
# logg = 3.5 log(cm/s2) (value for Log(G) for the model.)
# lh = 1.25  (l/Hp where l is the  mixing length of the convective element and Hp is the pressure scale height)
# meta = -2  (value for the Metallicity for the model.)
# vtur = 2 km/s (Microturbulence velocity)
# alpha = 0  (Alpha)
#
# column 1: WAVELENGTH (ANGSTROM), Wavelength in Angstrom
# column 2: FLUX (ERG/CM2/S/A), Flux in erg/cm2/s/A
147.200000 5.36654000e-22
151.000000 4.23686000e-21
155.200000 3.58148000e-20
158.800000 2.03741000e-19
162.000000 8.96046000e-19
166.000000 5.26787000e-18
170.300000 3.22405000e-17
173.400000 1.12552000e-16
176.800000 4.21536000e-16
180.200000 1.50125000e-15
181.700000 2.58913000e-15
186.100000 1.21711000e-14
191.000000 6.26419000e-14
193.900000 1.58719000e-13
198.400000 6.35833000e-13
201.800000 1.73992000e-12
205.000000 4.34962000e-12
210.500000 1.96441000e-11
216.200000 8.62306000e-11
219.800000 2.10690000e-10
223.000000 4.54615000e-10
226.800000 1.10049000e-09
230.000000 2.77277000e-09
234.000000 6.81988000e-09
240.000000 2.34769000e-08
246.500000 8.34032000e-08
252.400000 2.48950000e-07
256.800000 5.41476000e-07
260.000000 9.42325000e-07
264.000000 1.83900000e-06
268.500000 3.80412000e-06
273.500000 8.28427000e-06
278.500000 1.75323000e-05
284.000000 3.87257000e-05
290.000000 8.86770000e-05
296.000000 1.95937000e-04
301.000000 3.69997000e-04
308.000000 8.66687000e-04
318.000000 2.74299000e-03
328.000000 8.04381000e-03
338.000000 2.20444000e-02
348.000000 5.68093000e-02
357.000000 1.26865000e-01
366.000000 2.71641000e-01
375.000000 5.59127000e-01
385.000000 1.19514000e+00
395.000000 2.45052000e+00
405.000000 4.83587000e+00
414.000000 8.64893000e+00
422.000000 1.41753000e+01
430.000000 2.27708000e+01
441.000000 4.23799000e+01
451.000000 7.24228000e+01
460.000000 1.14771000e+02
470.000000 1.87120000e+02
480.000000 2.98277000e+02
490.000000 4.65585000e+02
500.000000 7.12441000e+02
506.000000 4.95903000e+03
512.000000 1.40923000e+04
520.000000 1.86470000e+04
530.000000 2.88106000e+04
540.000000 3.32377000e+04
550.000000 5.12103000e+04
560.000000 6.61667000e+04
570.000000 8.55845000e+04
580.000000 8.97577000e+04
590.000000 1.26027000e+05
600.000000 1.69978000e+05
610.000000 2.12036000e+05
620.000000 2.59300000e+05
630.000000 3.16732000e+05
640.000000 3.78357000e+05
650.000000 4.57934000e+05
658.000000 5.30632000e+05
665.000000 5.97238000e+05
675.000000 6.99177000e+05
685.000000 8.20941000e+05
695.000000 9.73830000e+05
705.000000 1.13051000e+06
716.000000 1.32605000e+06
726.000000 1.52343000e+06
735.000000 1.73021000e+06
745.000000 1.98287000e+06
755.000000 2.25843000e+06
765.000000 2.55575000e+06
775.000000 2.89215000e+06
785.000000 3.25471000e+06
795.000000 3.64436000e+06
805.000000 4.07149000e+06
815.000000 4.52404000e+06
825.000000 5.03247000e+06
835.000000 5.50701000e+06
845.000000 6.12982000e+06
855.000000 6.71854000e+06
865.000000 7.40846000e+06
875.000000 8.11792000e+06
885.000000 8.88451000e+06
895.000000 9.67661000e+06
905.000000 1.03894000e+07
915.000000 1.97633000e+07
925.000000 1.42036000e+08
935.000000 6.82463000e+08
945.000000 3.00025000e+09
955.000000 4.93659000e+09
965.000000 6.54687000e+09
975.000000 2.18871000e+09
985.000000 8.09431000e+09
995.000000 8.04050000e+09
1005.000000 8.34976000e+09
1015.000000 7.28538000e+09
1025.000000 1.69352000e+09
1035.000000 6.13929000e+09
1045.000000 8.50934000e+09
1055.000000 8.36740000e+09
1065.000000 7.69153000e+09
1075.000000 8.14208000e+09
1085.000000 7.62691000e+09
1095.000000 8.05631000e+09
1105.000000 7.62607000e+09
1115.000000 7.65050000e+09
1125.000000 7.24720000e+09
1135.000000 7.47976000e+09
1145.000000 7.12583000e+09
1155.000000 7.30260000e+09
1165.000000 7.26243000e+09
1175.000000 6.46208000e+09
1185.000000 7.01828000e+09
1195.000000 6.31644000e+09
1205.000000 4.90830000e+09
1215.000000 1.06782000e+09
1225.000000 4.80958000e+09
1235.000000 6.19573000e+09
1245.000000 6.33138000e+09
1255.000000 6.19357000e+09
1265.000000 6.08945000e+09
1275.000000 6.15189000e+09
1285.000000 6.06084000e+09
1295.000000 5.56729000e+09
1305.000000 5.52521000e+09
1315.000000 5.78680000e+09
1325.000000 5.60666000e+09
1335.000000 5.35810000e+09
1345.000000 5.48426000e+09
1355.000000 5.45265000e+09
1365.000000 5.31260000e+09
1375.000000 5.22704000e+09
1385.000000 5.17716000e+09
1395.000000 4.97931000e+09
1405.000000 4.97299000e+09
1415.000000 4.93005000e+09
1425.000000 4.87575000e+09
1435.000000 4.82212000e+09
1442.000000 4.79154000e+09
1447.000000 4.74751000e+09
1455.000000 4.68032000e+09
1465.000000 4.59348000e+09
1475.000000 4.53192000e+09
1485.000000 4.45196000e+09
1495.000000 4.38721000e+09
1505.000000 4.28602000e+09
1512.000000 4.20869000e+09
1517.000000 4.21111000e+09
1525.000000 4.15036000e+09
1535.000000 4.00660000e+09
1545.000000 4.02056000e+09
1555.000000 3.90685000e+09
1565.000000 3.90538000e+09
1575.000000 3.88298000e+09
1585.000000 3.82919000e+09
1595.000000 3.79184000e+09
1605.000000 3.68302000e+09
1615.000000 3.63177000e+09
1625.000000 3.60747000e+09
1635.000000 3.57729000e+09
1645.000000 3.51527000e+09
1655.000000 3.45862000e+09
1665.000000 3.45103000e+09
1672.000000 3.35239000e+09
1677.000000 3.39419000e+09
1685.000000 3.35752000e+09
1695.000000 3.29088000e+09
1705.000000 3.22518000e+09
1715.000000 3.15949000e+09
1725.000000 3.11917000e+09
1735.000000 3.10297000e+09
1745.000000 3.04783000e+09
1755.000000 3.03632000e+09
1765.000000 2.91046000e+09
1775.000000 2.92643000e+09
1785.000000 2.89799000e+09
1795.000000 2.87771000e+09
1805.000000 2.84511000e+09
1815.000000 2.78662000e+09
1825.000000 2.76352000e+09
1835.000000 2.72431000e+09
1845.000000 2.63875000e+09
1855.000000 2.57019000e+09
1865.000000 2.56209000e+09
1875.000000 2.57524000e+09
1885.000000 2.47833000e+09
1895.000000 2.41059000e+09
1905.000000 2.45199000e+09
1915.000000 2.37704000e+09
1925.000000 2.34224000e+09
1935.000000 2.34516000e+09
1945.000000 2.34322000e+09
1955.000000 2.25681000e+09
1967.000000 2.27863000e+09
1976.000000 2.27789000e+09
1984.000000 2.22022000e+09
1995.000000 2.16192000e+09
2005.000000 2.17621000e+09
2015.000000 2.16570000e+09
2025.000000 2.15245000e+09
2035.000000 2.10615000e+09
2045.000000 2.08110000e+09
2055.000000 2.02387000e+09
2065.000000 2.01730000e+09
2074.000000 2.03276000e+09
2078.000000 1.98673000e+09
2085.000000 1.98780000e+09
2095.000000 1.94441000e+09
2105.000000 1.94358000e+09
2115.000000 1.92642000e+09
2125.000000 1.91559000e+09
2135.000000 1.88926000e+09
2145.000000 1.85875000e+09
2155.000000 1.84648000e+09
2165.000000 1.82255000e+09
2175.000000 1.80042000e+09
2185.000000 1.78208000e+09
2195.000000 1.76565000e+09
2205.000000 1.74246000e+09
2215.000000 1.72093000e+09
2225.000000 1.69743000e+09
2235.000000 1.68303000e+09
2245.000000 1.66582000e+09
2255.000000 1.64345000e+09
2265.000000 1.62897000e+09
2275.000000 1.60944000e+09
2285.000000 1.59459000e+09
2295.000000 1.56592000e+09
2305.000000 1.55704000e+09
2315.000000 1.53708000e+09
2325.000000 1.52249000e+09
2335.000000 1.49773000e+09
2345.000000 1.47231000e+09
2355.000000 1.47084000e+09
2365.000000 1.44644000e+09
2375.000000 1.43629000e+09
2385.000000 1.41116000e+09
2395.000000 1.40091000e+09
2405.000000 1.38648000e+09
2415.000000 1.37031000e+09
2425.000000 1.36492000e+09
2435.000000 1.34681000e+09
2445.000000 1.33323000e+09
2455.000000 1.32270000e+09
2465.000000 1.30536000e+09
2475.000000 1.29336000e+09
2485.000000 1.27974000e+09
2495.000000 1.25576000e+09
2505.000000 1.25362000e+09
2513.000000 1.23551000e+09
2518.000000 1.23643000e+09
2525.000000 1.22462000e+09
2535.000000 1.20806000e+09
2545.000000 1.19731000e+09
2555.000000 1.19130000e+09
2565.000000 1.17550000e+09
2575.000000 1.16752000e+09
2585.000000 1.15473000e+09
2595.000000 1.14221000e+09
2605.000000 1.13646000e+09
2615.000000 1.12635000e+09
2625.000000 1.11587000e+09
2635.000000 1.10107000e+09
2645.000000 1.09691000e+09
2655.000000 1.08470000e+09
2665.000000 1.07133000e+09
2675.000000 1.06175000e+09
2685.000000 1.05710000e+09
2695.000000 1.03926000e+09
2705.000000 1.03586000e+09
2715.000000 1.02487000e+09
2725.000000 1.00727000e+09
2735.000000 1.00550000e+09
2745.000000 9.86943000e+08
2755.000000 9.79146000e+08
2765.000000 9.67986000e+08
2775.000000 9.67627000e+08
2785.000000 9.57630000e+08
2795.000000 9.34539000e+08
2805.000000 9.33202000e+08
2815.000000 9.31243000e+08
2825.000000 9.14323000e+08
2835.000000 9.07135000e+08
2845.000000 9.04166000e+08
2855.000000 8.96041000e+08
2865.000000 8.88099000e+08
2875.000000 8.79516000e+08
2885.000000 8.71438000e+08
2895.000000 8.63405000e+08
2910.000000 8.51413000e+08
2930.000000 8.35090000e+08
2950.000000 8.15493000e+08
2970.000000 8.05401000e+08
2990.000000 7.90491000e+08
3010.000000 7.76570000e+08
3030.000000 7.62823000e+08
3050.000000 7.49166000e+08
3070.000000 7.35919000e+08
3090.000000 7.22873000e+08
3110.000000 7.10216000e+08
3130.000000 6.98593000e+08
3150.000000 6.86371000e+08
3170.000000 6.74251000e+08
3190.000000 6.58233000e+08
3210.000000 6.51263000e+08
3230.000000 6.40118000e+08
3250.000000 6.29232000e+08
3270.000000 6.19198000e+08
3290.000000 6.08177000e+08
3310.000000 5.98718000e+08
3330.000000 5.88796000e+08
3350.000000 5.78262000e+08
3370.000000 5.69528000e+08
3390.000000 5.60238000e+08
3410.000000 5.51126000e+08
3430.000000 5.40586000e+08
3450.000000 5.30539000e+08
3470.000000 5.23189000e+08
3490.000000 5.14890000e+08
3510.000000 5.08581000e+08
3530.000000 5.00748000e+08
3550.000000 4.92969000e+08
3570.000000 4.86781000e+08
3590.000000 4.77339000e+08
3610.000000 4.70475000e+08
3630.000000 4.62588000e+08
3640.000000 4.61017000e+08
3650.000000 4.55101000e+08
3670.000000 4.49595000e+08
3690.000000 4.35134000e+08
3710.000000 4.30811000e+08
3730.000000 4.29236000e+08
3750.000000 4.88348000e+08
3770.000000 4.97998000e+08
3790.000000 5.28844000e+08
3810.000000 5.57201000e+08
3830.000000 4.81027000e+08
3850.000000 5.75928000e+08
3870.000000 5.78920000e+08
3890.000000 4.56668000e+08
3910.000000 5.70043000e+08
3930.000000 5.60793000e+08
3950.000000 5.52496000e+08
3970.000000 4.25398000e+08
3990.000000 5.31559000e+08
4010.000000 5.27160000e+08
4030.000000 5.00183000e+08
4050.000000 5.15834000e+08
4070.000000 5.05455000e+08
4090.000000 4.67756000e+08
4110.000000 4.02508000e+08
4130.000000 4.75481000e+08
4150.000000 4.71347000e+08
4170.000000 4.67009000e+08
4190.000000 4.61103000e+08
4210.000000 4.53884000e+08
4230.000000 4.46759000e+08
4250.000000 4.39770000e+08
4270.000000 4.32168000e+08
4290.000000 4.26060000e+08
4310.000000 4.17531000e+08
4330.000000 3.78781000e+08
4350.000000 3.42516000e+08
4370.000000 3.97918000e+08
4390.000000 3.84938000e+08
4410.000000 3.88583000e+08
4430.000000 3.81051000e+08
4450.000000 3.77081000e+08
4470.000000 3.57537000e+08
4490.000000 3.65459000e+08
4510.000000 3.60503000e+08
4530.000000 3.55142000e+08
4550.000000 3.49898000e+08
4570.000000 3.44749000e+08
4590.000000 3.39749000e+08
4610.000000 3.34786000e+08
4630.000000 3.29914000e+08
4650.000000 3.25061000e+08
4670.000000 3.20469000e+08
4690.000000 3.15892000e+08
4710.000000 3.07713000e+08
4730.000000 3.06733000e+08
4750.000000 3.02235000e+08
4770.000000 2.98299000e+08
4790.000000 2.94072000e+08
4810.000000 2.89678000e+08
4830.000000 2.84296000e+08
4850.000000 2.62577000e+08
4870.000000 2.31944000e+08
4890.000000 2.71770000e+08
4910.000000 2.69623000e+08
4930.000000 2.61131000e+08
4950.000000 2.62961000e+08
4970.000000 2.59385000e+08
4990.000000 2.55857000e+08
5010.000000 2.49556000e+08
5030.000000 2.48960000e+08
5050.000000 2.44067000e+08
5070.000000 2.42321000e+08
5090.000000 2.39083000e+08
5110.000000 2.35888000e+08
5130.000000 2.32749000e+08
5150.000000 2.29653000e+08
5170.000000 2.26639000e+08
5190.000000 2.23665000e+08
5210.000000 2.20674000e+08
5230.000000 2.17846000e+08
5250.000000 2.15001000e+08
5270.000000 2.12219000e+08
5290.000000 2.09473000e+08
5310.000000 2.06776000e+08
5330.000000 2.04113000e+08
5350.000000 2.01484000e+08
5370.000000 1.98928000e+08
5390.000000 1.96404000e+08
5410.000000 1.93912000e+08
5430.000000 1.91425000e+08
5450.000000 1.89034000e+08
5470.000000 1.86659000e+08
5490.000000 1.84327000e+08
5510.000000 1.82023000e+08
5530.000000 1.79760000e+08
5550.000000 1.77525000e+08
5570.000000 1.75330000e+08
5590.000000 1.73173000e+08
5610.000000 1.71031000e+08
5630.000000 1.68951000e+08
5650.000000 1.66848000e+08
5670.000000 1.64829000e+08
5690.000000 1.62835000e+08
5710.000000 1.60887000e+08
5730.000000 1.58940000e+08
5750.000000 1.57027000e+08
5770.000000 1.55148000e+08
5790.000000 1.53292000e+08
5810.000000 1.51468000e+08
5830.000000 1.49666000e+08
5850.000000 1.47896000e+08
5870.000000 1.42363000e+08
5890.000000 1.44308000e+08
5910.000000 1.42740000e+08
5930.000000 1.41061000e+08
5950.000000 1.39412000e+08
5970.000000 1.37803000e+08
5990.000000 1.36202000e+08
6010.000000 1.34629000e+08
6030.000000 1.33075000e+08
6050.000000 1.31548000e+08
6070.000000 1.30038000e+08
6090.000000 1.28556000e+08
6110.000000 1.27100000e+08
6130.000000 1.25650000e+08
6150.000000 1.24227000e+08
6170.000000 1.22829000e+08
6190.000000 1.21447000e+08
6210.000000 1.20089000e+08
6230.000000 1.18737000e+08
6250.000000 1.17409000e+08
6270.000000 1.16106000e+08
6290.000000 1.14826000e+08
6310.000000 1.13550000e+08
6330.000000 1.12298000e+08
6350.000000 1.11022000e+08
6370.000000 1.09824000e+08
6390.000000 1.08640000e+08
6410.000000 1.07459000e+08
6430.000000 1.06290000e+08
6450.000000 1.05134000e+08
6470.000000 1.03990000e+08
6490.000000 1.02876000e+08
6510.000000 1.01729000e+08
6530.000000 1.00250000e+08
6550.000000 9.58277000e+07
6570.000000 8.45136000e+07
6590.000000 9.65243000e+07
6610.000000 9.63032000e+07
6630.000000 9.54317000e+07
6650.000000 9.44837000e+07
6670.000000 9.27494000e+07
6690.000000 9.17916000e+07
6710.000000 9.15381000e+07
6730.000000 9.05873000e+07
6750.000000 8.96378000e+07
6770.000000 8.87145000e+07
6790.000000 8.77922000e+07
6810.000000 8.68874000e+07
6830.000000 8.59916000e+07
6850.000000 8.51048000e+07
6870.000000 8.42349000e+07
6890.000000 8.33736000e+07
6910.000000 8.25208000e+07
6930.000000 8.16765000e+07
6950.000000 8.08561000e+07
6970.000000 8.00361000e+07
6990.000000 7.92240000e+07
7010.000000 7.84276000e+07
7030.000000 7.76390000e+07
7050.000000 7.68656000e+07
7070.000000 7.50280000e+07
7090.000000 7.53412000e+07
7110.000000 7.45901000e+07
7130.000000 7.38513000e+07
7150.000000 7.31211000e+07
7170.000000 7.23899000e+07
7190.000000 7.16889000e+07
7210.000000 7.09852000e+07
7230.000000 7.02377000e+07
7250.000000 6.96049000e+07
7270.000000 6.89274000e+07
7290.000000 6.78011000e+07
7310.000000 6.75878000e+07
7330.000000 6.69439000e+07
7350.000000 6.62984000e+07
7370.000000 6.56609000e+07
7390.000000 6.50308000e+07
7410.000000 6.44085000e+07
7430.000000 6.37933000e+07
7450.000000 6.31933000e+07
7470.000000 6.25928000e+07
7490.000000 6.19997000e+07
7510.000000 6.13948000e+07
7530.000000 6.08339000e+07
7550.000000 6.02615000e+07
7570.000000 5.96963000e+07
7590.000000 5.91369000e+07
7610.000000 5.85845000e+07
7630.000000 5.80383000e+07
7650.000000 5.74983000e+07
7670.000000 5.69658000e+07
7690.000000 5.64380000e+07
7710.000000 5.59168000e+07
7730.000000 5.54027000e+07
7750.000000 5.48919000e+07
7770.000000 5.43745000e+07
7790.000000 5.38933000e+07
7810.000000 5.33742000e+07
7830.000000 5.29157000e+07
7850.000000 5.24765000e+07
7870.000000 5.20009000e+07
7890.000000 5.15070000e+07
7910.000000 5.10699000e+07
7930.000000 5.06101000e+07
7950.000000 5.01465000e+07
7970.000000 4.96633000e+07
7990.000000 4.92291000e+07
8010.000000 4.87634000e+07
8030.000000 4.83361000e+07
8050.000000 4.79184000e+07
8070.000000 4.74989000e+07
8090.000000 4.70209000e+07
8110.000000 4.66329000e+07
8130.000000 4.62658000e+07
8150.000000 4.57917000e+07
8170.000000 4.54617000e+07
8190.000000 4.50349000e+07
8210.000000 4.45235000e+07
8230.000000 4.42495000e+07
8250.000000 4.38830000e+07
8270.000000 4.33377000e+07
8290.000000 4.30971000e+07
8310.000000 4.27410000e+07
8330.000000 4.23677000e+07
8350.000000 4.18445000e+07
8370.000000 4.15485000e+07
8390.000000 4.12228000e+07
8410.000000 4.08139000e+07
8430.000000 4.04121000e+07
8450.000000 3.99314000e+07
8470.000000 3.93928000e+07
8490.000000 3.95419000e+07
8510.000000 3.84745000e+07
8530.000000 3.91481000e+07
8550.000000 3.70656000e+07
8570.000000 3.91790000e+07
8590.000000 3.69617000e+07
8610.000000 3.65777000e+07
8630.000000 3.88045000e+07
8650.000000 3.75418000e+07
8670.000000 3.38686000e+07
8690.000000 3.79957000e+07
8710.000000 3.83085000e+07
8730.000000 3.70833000e+07
8750.000000 3.23836000e+07
8770.000000 3.58470000e+07
8790.000000 3.72346000e+07
8810.000000 3.70196000e+07
8830.000000 3.65767000e+07
8850.000000 3.41075000e+07
8870.000000 3.09717000e+07
8890.000000 3.52809000e+07
8910.000000 3.55341000e+07
8930.000000 3.52854000e+07
8950.000000 3.50893000e+07
8970.000000 3.47415000e+07
8990.000000 3.38110000e+07
9010.000000 2.96524000e+07
9030.000000 3.13600000e+07
9050.000000 3.34037000e+07
9070.000000 3.31379000e+07
9090.000000 3.30876000e+07
9110.000000 3.29502000e+07
9130.000000 3.27092000e+07
9150.000000 3.24463000e+07
9170.000000 3.20433000e+07
9190.000000 3.17233000e+07
9210.000000 3.03843000e+07
9230.000000 2.64400000e+07
9250.000000 2.98711000e+07
9270.000000 3.06801000e+07
9290.000000 3.06040000e+07
9310.000000 3.03062000e+07
9330.000000 3.01950000e+07
9350.000000 2.99371000e+07
9370.000000 2.97223000e+07
9390.000000 2.94890000e+07
9410.000000 2.92532000e+07
9430.000000 2.90293000e+07
9450.000000 2.88028000e+07
9470.000000 2.84204000e+07
9490.000000 2.82789000e+07
9510.000000 2.77298000e+07
9530.000000 2.65098000e+07
9550.000000 2.34218000e+07
9570.000000 2.66485000e+07
9590.000000 2.71016000e+07
9610.000000 2.69460000e+07
9630.000000 2.67388000e+07
9650.000000 2.66556000e+07
9670.000000 2.64519000e+07
9690.000000 2.62293000e+07
9710.000000 2.59859000e+07
9730.000000 2.58533000e+07
9750.000000 2.56574000e+07
9770.000000 2.54637000e+07
9790.000000 2.52713000e+07
9810.000000 2.50811000e+07
9830.000000 2.48922000e+07
9850.000000 2.47054000e+07
9870.000000 2.45203000e+07
9890.000000 2.43369000e+07
9910.000000 2.41517000e+07
9930.000000 2.39754000e+07
9950.000000 2.37969000e+07
9970.000000 2.36200000e+07
9990.000000 2.33908000e+07
10025.000000 2.21782000e+07
10075.000000 2.14368000e+07
10125.000000 2.22406000e+07
10175.000000 2.19013000e+07
10225.000000 2.14981000e+07
10275.000000 2.11199000e+07
10325.000000 2.06802000e+07
10375.000000 2.03728000e+07
10425.000000 2.00118000e+07
10475.000000 1.96585000e+07
10525.000000 1.93133000e+07
10575.000000 1.89755000e+07
10625.000000 1.86451000e+07
10675.000000 1.82930000e+07
10725.000000 1.80053000e+07
10775.000000 1.76958000e+07
10825.000000 1.72164000e+07
10875.000000 1.70473000e+07
10925.000000 1.55056000e+07
10975.000000 1.61691000e+07
11025.000000 1.61539000e+07
11075.000000 1.59653000e+07
11125.000000 1.57068000e+07
11175.000000 1.54459000e+07
11225.000000 1.51839000e+07
11275.000000 1.49399000e+07
11325.000000 1.46952000e+07
11375.000000 1.44553000e+07
11425.000000 1.42203000e+07
11475.000000 1.39899000e+07
11525.000000 1.37641000e+07
11575.000000 1.35431000e+07
11625.000000 1.33262000e+07
11675.000000 1.31140000e+07
11725.000000 1.29059000e+07
11775.000000 1.27017000e+07
11825.000000 1.25018000e+07
11875.000000 1.23059000e+07
11925.000000 1.21137000e+07
11975.000000 1.18483000e+07
12025.000000 1.17403000e+07
12075.000000 1.15590000e+07
12125.000000 1.13811000e+07
12175.000000 1.12070000e+07
12225.000000 1.10359000e+07
12275.000000 1.08682000e+07
12325.000000 1.07035000e+07
12375.000000 1.05422000e+07
12425.000000 1.03836000e+07
12475.000000 1.02281000e+07
12525.000000 1.00604000e+07
12575.000000 9.92577000e+06
12625.000000 9.77900000e+06
12675.000000 9.63470000e+06
12725.000000 9.48933000e+06
12775.000000 9.21552000e+06
12825.000000 8.52402000e+06
12875.000000 9.02838000e+06
12925.000000 8.95212000e+06
12975.000000 8.78368000e+06
13025.000000 8.69639000e+06
13075.000000 8.57205000e+06
