# Kurucz ODFNEW /NOVER, alpha: 0.0 (2003)
# teff = 21000 K (value for the effective temperature for the model. Temperatures are given in K)
# logg = 3 log(cm/s2) (value for Log(G) for the model.)
# lh = 1.25  (l/Hp where l is the  mixing length of the convective element and Hp is the pressure scale height)
# meta = -2  (value for the Metallicity for the model.)
# vtur = 2 km/s (Microturbulence velocity)
# alpha = 0  (Alpha)
#
# column 1: WAVELENGTH (ANGSTROM), Wavelength in Angstrom
# column 2: FLUX (ERG/CM2/S/A), Flux in erg/cm2/s/A
147.200000 2.74065000e-18
151.000000 1.75188000e-17
155.200000 1.22185000e-16
158.800000 5.93715000e-16
162.000000 2.27783000e-15
166.000000 1.13452000e-14
170.300000 5.84382000e-14
173.400000 1.80825000e-13
176.800000 5.95365000e-13
180.200000 1.87088000e-12
181.700000 3.05698000e-12
186.100000 1.23081000e-11
191.000000 5.36659000e-11
193.900000 1.23679000e-10
198.400000 4.29622000e-10
201.800000 1.05914000e-09
205.000000 2.40641000e-09
210.500000 9.27747000e-09
216.200000 3.48227000e-08
219.800000 7.73631000e-08
223.000000 1.53748000e-07
226.800000 3.38468000e-07
230.000000 1.25026000e-06
234.000000 2.94415000e-06
240.000000 8.56405000e-06
246.500000 2.56701000e-05
252.400000 6.65456000e-05
256.800000 1.27964000e-04
260.000000 2.10511000e-04
264.000000 3.75432000e-04
268.500000 7.03844000e-04
273.500000 1.37960000e-03
278.500000 2.64082000e-03
284.000000 5.24579000e-03
290.000000 1.07473000e-02
296.000000 2.13407000e-02
301.000000 3.69727000e-02
308.000000 7.63276000e-02
318.000000 2.10065000e-01
328.000000 5.33453000e-01
338.000000 1.27910000e+00
348.000000 2.90672000e+00
357.000000 5.83499000e+00
366.000000 1.13031000e+01
375.000000 2.11260000e+01
385.000000 4.08360000e+01
395.000000 7.60920000e+01
405.000000 1.37184000e+02
414.000000 2.27142000e+02
422.000000 3.48458000e+02
430.000000 5.25058000e+02
441.000000 9.00229000e+02
451.000000 1.43236000e+03
460.000000 2.13397000e+03
470.000000 3.25891000e+03
480.000000 4.87868000e+03
490.000000 7.17339000e+03
500.000000 1.03646000e+04
506.000000 7.05533000e+04
512.000000 2.04716000e+05
520.000000 2.60478000e+05
530.000000 3.76716000e+05
540.000000 4.14661000e+05
550.000000 6.12606000e+05
560.000000 7.49579000e+05
570.000000 9.31944000e+05
580.000000 9.36896000e+05
590.000000 1.26395000e+06
600.000000 1.62266000e+06
610.000000 1.95624000e+06
620.000000 2.29380000e+06
630.000000 2.70953000e+06
640.000000 3.09321000e+06
650.000000 3.60296000e+06
658.000000 4.12427000e+06
665.000000 4.53166000e+06
675.000000 5.08168000e+06
685.000000 5.77099000e+06
695.000000 6.74506000e+06
705.000000 7.56142000e+06
716.000000 8.63311000e+06
726.000000 9.62701000e+06
735.000000 1.06905000e+07
745.000000 1.20080000e+07
755.000000 1.33522000e+07
765.000000 1.47518000e+07
775.000000 1.63481000e+07
785.000000 1.80134000e+07
795.000000 1.96821000e+07
805.000000 2.15291000e+07
815.000000 2.33629000e+07
825.000000 2.55587000e+07
835.000000 2.73087000e+07
845.000000 2.98218000e+07
855.000000 3.20936000e+07
865.000000 3.47751000e+07
875.000000 3.76136000e+07
885.000000 4.04875000e+07
895.000000 4.33446000e+07
905.000000 4.57558000e+07
915.000000 9.96917000e+07
925.000000 1.72416000e+09
935.000000 4.56225000e+09
945.000000 8.92355000e+09
955.000000 1.02668000e+10
965.000000 1.20621000e+10
975.000000 5.53706000e+09
985.000000 1.20347000e+10
995.000000 1.15489000e+10
1005.000000 1.20323000e+10
1015.000000 1.15419000e+10
1025.000000 6.26003000e+09
1035.000000 1.04010000e+10
1045.000000 1.23828000e+10
1055.000000 1.19891000e+10
1065.000000 1.10133000e+10
1075.000000 1.16273000e+10
1085.000000 1.08952000e+10
1095.000000 1.15788000e+10
1105.000000 1.10604000e+10
1115.000000 1.10677000e+10
1125.000000 1.04265000e+10
1135.000000 1.08984000e+10
1145.000000 1.03839000e+10
1155.000000 1.06584000e+10
1165.000000 1.05903000e+10
1175.000000 9.17576000e+09
1185.000000 1.02634000e+10
1195.000000 9.64416000e+09
1205.000000 8.43475000e+09
1215.000000 4.36848000e+09
1225.000000 8.98301000e+09
1235.000000 9.49218000e+09
1245.000000 9.40739000e+09
1255.000000 9.24659000e+09
1265.000000 9.09250000e+09
1275.000000 9.15112000e+09
1285.000000 8.99419000e+09
1295.000000 8.24030000e+09
1305.000000 8.34633000e+09
1315.000000 8.61724000e+09
1325.000000 8.36127000e+09
1335.000000 8.02193000e+09
1345.000000 8.16902000e+09
1355.000000 8.16092000e+09
1365.000000 7.95141000e+09
1375.000000 7.81983000e+09
1385.000000 7.74817000e+09
1395.000000 7.32251000e+09
1405.000000 7.35472000e+09
1415.000000 7.38585000e+09
1425.000000 7.28775000e+09
1435.000000 7.23538000e+09
1442.000000 7.20480000e+09
1447.000000 7.13422000e+09
1455.000000 7.03908000e+09
1465.000000 6.90592000e+09
1475.000000 6.81451000e+09
1485.000000 6.71040000e+09
1495.000000 6.60845000e+09
1505.000000 6.43892000e+09
1512.000000 6.31122000e+09
1517.000000 6.32093000e+09
1525.000000 6.24733000e+09
1535.000000 5.98073000e+09
1545.000000 5.98563000e+09
1555.000000 5.81307000e+09
1565.000000 5.87930000e+09
1575.000000 5.85591000e+09
1585.000000 5.77775000e+09
1595.000000 5.71782000e+09
1605.000000 5.53784000e+09
1615.000000 5.46023000e+09
1625.000000 5.44245000e+09
1635.000000 5.41794000e+09
1645.000000 5.28948000e+09
1655.000000 5.26261000e+09
1665.000000 5.21888000e+09
1672.000000 5.10857000e+09
1677.000000 5.17018000e+09
1685.000000 5.09865000e+09
1695.000000 4.99054000e+09
1705.000000 4.89303000e+09
1715.000000 4.77773000e+09
1725.000000 4.73642000e+09
1735.000000 4.69825000e+09
1745.000000 4.62303000e+09
1755.000000 4.60560000e+09
1765.000000 4.44569000e+09
1775.000000 4.41834000e+09
1785.000000 4.39924000e+09
1795.000000 4.36486000e+09
1805.000000 4.33074000e+09
1815.000000 4.21727000e+09
1825.000000 4.18691000e+09
1835.000000 4.12999000e+09
1845.000000 3.95729000e+09
1855.000000 3.87040000e+09
1865.000000 3.88175000e+09
1875.000000 3.90261000e+09
1885.000000 3.71044000e+09
1895.000000 3.58315000e+09
1905.000000 3.67924000e+09
1915.000000 3.55585000e+09
1925.000000 3.48962000e+09
1935.000000 3.52700000e+09
1945.000000 3.53145000e+09
1955.000000 3.36087000e+09
1967.000000 3.42349000e+09
1976.000000 3.45017000e+09
1984.000000 3.33369000e+09
1995.000000 3.24108000e+09
2005.000000 3.27321000e+09
2015.000000 3.27180000e+09
2025.000000 3.26124000e+09
2035.000000 3.16395000e+09
2045.000000 3.12768000e+09
2055.000000 3.04415000e+09
2065.000000 3.02852000e+09
2074.000000 3.07796000e+09
2078.000000 2.98586000e+09
2085.000000 2.99089000e+09
2095.000000 2.91228000e+09
2105.000000 2.92693000e+09
2115.000000 2.90412000e+09
2125.000000 2.89704000e+09
2135.000000 2.85401000e+09
2145.000000 2.79438000e+09
2155.000000 2.78684000e+09
2165.000000 2.75762000e+09
2175.000000 2.71894000e+09
2185.000000 2.69056000e+09
2195.000000 2.66524000e+09
2205.000000 2.63213000e+09
2215.000000 2.60235000e+09
2225.000000 2.56539000e+09
2235.000000 2.53366000e+09
2245.000000 2.51271000e+09
2255.000000 2.47707000e+09
2265.000000 2.45480000e+09
2275.000000 2.42599000e+09
2285.000000 2.40098000e+09
2295.000000 2.34634000e+09
2305.000000 2.34446000e+09
2315.000000 2.31188000e+09
2325.000000 2.28716000e+09
2335.000000 2.25427000e+09
2345.000000 2.23029000e+09
2355.000000 2.21227000e+09
2365.000000 2.18465000e+09
2375.000000 2.15994000e+09
2385.000000 2.13233000e+09
2395.000000 2.10937000e+09
2405.000000 2.08692000e+09
2415.000000 2.06024000e+09
2425.000000 2.04469000e+09
2435.000000 2.01872000e+09
2445.000000 1.99789000e+09
2455.000000 1.97802000e+09
2465.000000 1.95463000e+09
2475.000000 1.93327000e+09
2485.000000 1.91140000e+09
2495.000000 1.86131000e+09
2505.000000 1.86911000e+09
2513.000000 1.83897000e+09
2518.000000 1.84184000e+09
2525.000000 1.82798000e+09
2535.000000 1.80731000e+09
2545.000000 1.78069000e+09
2555.000000 1.76995000e+09
2565.000000 1.74965000e+09
2575.000000 1.73410000e+09
2585.000000 1.71513000e+09
2595.000000 1.69662000e+09
2605.000000 1.69078000e+09
2615.000000 1.67352000e+09
2625.000000 1.65456000e+09
2635.000000 1.63204000e+09
2645.000000 1.61892000e+09
2655.000000 1.60097000e+09
2665.000000 1.58166000e+09
2675.000000 1.56507000e+09
2685.000000 1.55777000e+09
2695.000000 1.52979000e+09
2705.000000 1.52488000e+09
2715.000000 1.50902000e+09
2725.000000 1.48239000e+09
2735.000000 1.47822000e+09
2745.000000 1.45832000e+09
2755.000000 1.44472000e+09
2765.000000 1.42118000e+09
2775.000000 1.41903000e+09
2785.000000 1.40405000e+09
2795.000000 1.37545000e+09
2805.000000 1.37016000e+09
2815.000000 1.36235000e+09
2825.000000 1.33695000e+09
2835.000000 1.32482000e+09
2845.000000 1.32139000e+09
2855.000000 1.30817000e+09
2865.000000 1.29552000e+09
2875.000000 1.28252000e+09
2885.000000 1.26993000e+09
2895.000000 1.25726000e+09
2910.000000 1.23850000e+09
2930.000000 1.21411000e+09
2950.000000 1.18341000e+09
2970.000000 1.16783000e+09
2990.000000 1.14497000e+09
3010.000000 1.12290000e+09
3030.000000 1.10217000e+09
3050.000000 1.08129000e+09
3070.000000 1.06097000e+09
3090.000000 1.04026000e+09
3110.000000 1.02154000e+09
3130.000000 1.00376000e+09
3150.000000 9.84907000e+08
3170.000000 9.66370000e+08
3190.000000 9.41740000e+08
3210.000000 9.31504000e+08
3230.000000 9.14479000e+08
3250.000000 8.97838000e+08
3270.000000 8.82731000e+08
3290.000000 8.65697000e+08
3310.000000 8.51622000e+08
3330.000000 8.36565000e+08
3350.000000 8.20228000e+08
3370.000000 8.07403000e+08
3390.000000 7.93347000e+08
3410.000000 7.79565000e+08
3430.000000 7.62143000e+08
3450.000000 7.46274000e+08
3470.000000 7.35944000e+08
3490.000000 7.24286000e+08
3510.000000 7.16055000e+08
3530.000000 7.04457000e+08
3550.000000 6.92835000e+08
3570.000000 6.83882000e+08
3590.000000 6.69327000e+08
3610.000000 6.58607000e+08
3630.000000 6.47224000e+08
3640.000000 6.45464000e+08
3650.000000 6.33194000e+08
3670.000000 6.24633000e+08
3690.000000 6.02746000e+08
3710.000000 6.04093000e+08
3730.000000 6.08192000e+08
3750.000000 6.74510000e+08
3770.000000 6.75934000e+08
3790.000000 6.91662000e+08
3810.000000 7.15978000e+08
3830.000000 6.39795000e+08
3850.000000 7.21816000e+08
3870.000000 7.10803000e+08
3890.000000 6.14036000e+08
3910.000000 6.97541000e+08
3930.000000 6.82215000e+08
3950.000000 6.75155000e+08
3970.000000 5.70392000e+08
3990.000000 6.51771000e+08
4010.000000 6.40600000e+08
4030.000000 6.15167000e+08
4050.000000 6.24380000e+08
4070.000000 6.13255000e+08
4090.000000 5.87949000e+08
4110.000000 5.24969000e+08
4130.000000 5.79089000e+08
4150.000000 5.71356000e+08
4170.000000 5.65238000e+08
4190.000000 5.57859000e+08
4210.000000 5.49213000e+08
4230.000000 5.40579000e+08
4250.000000 5.32020000e+08
4270.000000 5.22647000e+08
4290.000000 5.15656000e+08
4310.000000 5.07170000e+08
4330.000000 4.79770000e+08
4350.000000 4.41006000e+08
4370.000000 4.83850000e+08
4390.000000 4.69736000e+08
4410.000000 4.69960000e+08
4430.000000 4.61196000e+08
4450.000000 4.56166000e+08
4470.000000 4.37254000e+08
4490.000000 4.42431000e+08
4510.000000 4.36089000e+08
4530.000000 4.29585000e+08
4550.000000 4.23178000e+08
4570.000000 4.16885000e+08
4590.000000 4.10863000e+08
4610.000000 4.04878000e+08
4630.000000 3.98980000e+08
4650.000000 3.92750000e+08
4670.000000 3.87476000e+08
4690.000000 3.81883000e+08
4710.000000 3.72346000e+08
4730.000000 3.70854000e+08
4750.000000 3.65350000e+08
4770.000000 3.60670000e+08
4790.000000 3.55563000e+08
4810.000000 3.50496000e+08
4830.000000 3.45128000e+08
4850.000000 3.29988000e+08
4870.000000 2.98500000e+08
4890.000000 3.30535000e+08
4910.000000 3.26676000e+08
4930.000000 3.17117000e+08
4950.000000 3.17758000e+08
4970.000000 3.13437000e+08
4990.000000 3.09129000e+08
5010.000000 3.01743000e+08
5030.000000 3.00762000e+08
5050.000000 2.94987000e+08
5070.000000 2.92694000e+08
5090.000000 2.88755000e+08
5110.000000 2.84883000e+08
5130.000000 2.81034000e+08
5150.000000 2.77279000e+08
5170.000000 2.73644000e+08
5190.000000 2.70029000e+08
5210.000000 2.66433000e+08
5230.000000 2.62966000e+08
5250.000000 2.59518000e+08
5270.000000 2.56128000e+08
5290.000000 2.52794000e+08
5310.000000 2.49504000e+08
5330.000000 2.46269000e+08
5350.000000 2.43089000e+08
5370.000000 2.39975000e+08
5390.000000 2.36901000e+08
5410.000000 2.33878000e+08
5430.000000 2.30881000e+08
5450.000000 2.27959000e+08
5470.000000 2.25074000e+08
5490.000000 2.22237000e+08
5510.000000 2.19448000e+08
5530.000000 2.16693000e+08
5550.000000 2.13985000e+08
5570.000000 2.11321000e+08
5590.000000 2.08703000e+08
5610.000000 2.06104000e+08
5630.000000 2.03573000e+08
5650.000000 2.01048000e+08
5670.000000 1.98554000e+08
5690.000000 1.96102000e+08
5710.000000 1.93772000e+08
5730.000000 1.91412000e+08
5750.000000 1.89080000e+08
5770.000000 1.86809000e+08
5790.000000 1.84566000e+08
5810.000000 1.82349000e+08
5830.000000 1.80158000e+08
5850.000000 1.78003000e+08
5870.000000 1.71719000e+08
5890.000000 1.73704000e+08
5910.000000 1.71743000e+08
5930.000000 1.69708000e+08
5950.000000 1.67707000e+08
5970.000000 1.65750000e+08
5990.000000 1.63805000e+08
6010.000000 1.61904000e+08
6030.000000 1.60013000e+08
6050.000000 1.58164000e+08
6070.000000 1.56336000e+08
6090.000000 1.54529000e+08
6110.000000 1.52752000e+08
6130.000000 1.51005000e+08
6150.000000 1.49267000e+08
6170.000000 1.47579000e+08
6190.000000 1.45899000e+08
6210.000000 1.44248000e+08
6230.000000 1.42615000e+08
6250.000000 1.41009000e+08
6270.000000 1.39430000e+08
6290.000000 1.37860000e+08
6310.000000 1.36325000e+08
6330.000000 1.34806000e+08
6350.000000 1.33286000e+08
6370.000000 1.31819000e+08
6390.000000 1.30377000e+08
6410.000000 1.28932000e+08
6430.000000 1.27521000e+08
6450.000000 1.26124000e+08
6470.000000 1.24734000e+08
6490.000000 1.23376000e+08
6510.000000 1.22041000e+08
6530.000000 1.20606000e+08
6550.000000 1.17306000e+08
6570.000000 1.05753000e+08
6590.000000 1.16338000e+08
6610.000000 1.15600000e+08
6630.000000 1.14372000e+08
6650.000000 1.13234000e+08
6670.000000 1.11201000e+08
6690.000000 1.10041000e+08
6710.000000 1.09670000e+08
6730.000000 1.08512000e+08
6750.000000 1.07374000e+08
6770.000000 1.06247000e+08
6790.000000 1.05115000e+08
6810.000000 1.04036000e+08
6830.000000 1.02951000e+08
6850.000000 1.01877000e+08
6870.000000 1.00822000e+08
6890.000000 9.97848000e+07
6910.000000 9.87583000e+07
6930.000000 9.77341000e+07
6950.000000 9.67357000e+07
6970.000000 9.57471000e+07
6990.000000 9.47604000e+07
7010.000000 9.38065000e+07
7030.000000 9.28543000e+07
7050.000000 9.19113000e+07
7070.000000 8.96133000e+07
7090.000000 9.00677000e+07
7110.000000 8.91668000e+07
7130.000000 8.82745000e+07
7150.000000 8.73908000e+07
7170.000000 8.65009000e+07
7190.000000 8.56559000e+07
7210.000000 8.48045000e+07
7230.000000 8.38387000e+07
7250.000000 8.31403000e+07
7270.000000 8.23199000e+07
7290.000000 8.08764000e+07
7310.000000 8.06954000e+07
7330.000000 7.99260000e+07
7350.000000 7.91430000e+07
7370.000000 7.83742000e+07
7390.000000 7.76125000e+07
7410.000000 7.68648000e+07
7430.000000 7.61172000e+07
7450.000000 7.53968000e+07
7470.000000 7.46695000e+07
7490.000000 7.39557000e+07
7510.000000 7.32216000e+07
7530.000000 7.25541000e+07
7550.000000 7.18596000e+07
7570.000000 7.11780000e+07
7590.000000 7.05026000e+07
7610.000000 6.98398000e+07
7630.000000 6.91764000e+07
7650.000000 6.85255000e+07
7670.000000 6.78868000e+07
7690.000000 6.72475000e+07
7710.000000 6.66139000e+07
7730.000000 6.59985000e+07
7750.000000 6.53761000e+07
7770.000000 6.47716000e+07
7790.000000 6.41849000e+07
7810.000000 6.35355000e+07
7830.000000 6.30024000e+07
7850.000000 6.24922000e+07
7870.000000 6.19196000e+07
7890.000000 6.13156000e+07
7910.000000 6.07349000e+07
7930.000000 6.00995000e+07
7950.000000 5.95298000e+07
7970.000000 5.89509000e+07
7990.000000 5.84555000e+07
8010.000000 5.79050000e+07
8030.000000 5.74224000e+07
8050.000000 5.69462000e+07
8070.000000 5.64676000e+07
8090.000000 5.58410000e+07
8110.000000 5.54016000e+07
8130.000000 5.49999000e+07
8150.000000 5.43838000e+07
8170.000000 5.40417000e+07
8190.000000 5.34939000e+07
8210.000000 5.28099000e+07
8230.000000 5.25202000e+07
8250.000000 5.20610000e+07
8270.000000 5.13292000e+07
8290.000000 5.10736000e+07
8310.000000 5.06469000e+07
8330.000000 5.01961000e+07
8350.000000 4.95231000e+07
8370.000000 4.91399000e+07
8390.000000 4.87759000e+07
8410.000000 4.83071000e+07
8430.000000 4.78555000e+07
8450.000000 4.72515000e+07
8470.000000 4.66390000e+07
8490.000000 4.69610000e+07
8510.000000 4.55997000e+07
8530.000000 4.64600000e+07
8550.000000 4.41145000e+07
8570.000000 4.64694000e+07
8590.000000 4.40257000e+07
8610.000000 4.36654000e+07
8630.000000 4.58265000e+07
8650.000000 4.45998000e+07
8670.000000 4.08865000e+07
8690.000000 4.49190000e+07
8710.000000 4.49106000e+07
8730.000000 4.36472000e+07
8750.000000 3.93098000e+07
8770.000000 4.26544000e+07
8790.000000 4.34864000e+07
8810.000000 4.31309000e+07
8830.000000 4.27314000e+07
8850.000000 4.06448000e+07
8870.000000 3.75753000e+07
8890.000000 4.14911000e+07
8910.000000 4.13886000e+07
8930.000000 4.10324000e+07
8950.000000 4.08101000e+07
8970.000000 4.04668000e+07
8990.000000 3.96027000e+07
9010.000000 3.57916000e+07
9030.000000 3.76716000e+07
9050.000000 3.90250000e+07
9070.000000 3.85385000e+07
9090.000000 3.84101000e+07
9110.000000 3.82212000e+07
9130.000000 3.79369000e+07
9150.000000 3.76304000e+07
9170.000000 3.72250000e+07
9190.000000 3.69565000e+07
9210.000000 3.57640000e+07
9230.000000 3.21640000e+07
9250.000000 3.54338000e+07
9270.000000 3.57594000e+07
9290.000000 3.55702000e+07
9310.000000 3.51411000e+07
9330.000000 3.50058000e+07
9350.000000 3.47023000e+07
9370.000000 3.44565000e+07
9390.000000 3.41851000e+07
9410.000000 3.39136000e+07
9430.000000 3.36496000e+07
9450.000000 3.33858000e+07
9470.000000 3.29391000e+07
9490.000000 3.28653000e+07
9510.000000 3.22677000e+07
9530.000000 3.13327000e+07
9550.000000 2.84055000e+07
9570.000000 3.14247000e+07
9590.000000 3.15477000e+07
9610.000000 3.12668000e+07
9630.000000 3.09807000e+07
9650.000000 3.08852000e+07
9670.000000 3.06479000e+07
9690.000000 3.03819000e+07
9710.000000 3.00875000e+07
9730.000000 2.99508000e+07
9750.000000 2.97226000e+07
9770.000000 2.94965000e+07
9790.000000 2.92727000e+07
9810.000000 2.90509000e+07
9830.000000 2.88318000e+07
9850.000000 2.86143000e+07
9870.000000 2.83987000e+07
9890.000000 2.81853000e+07
9910.000000 2.79643000e+07
9930.000000 2.77646000e+07
9950.000000 2.75569000e+07
9970.000000 2.73513000e+07
9990.000000 2.71475000e+07
10025.000000 2.60725000e+07
10075.000000 2.52792000e+07
10125.000000 2.57706000e+07
10175.000000 2.53517000e+07
10225.000000 2.48795000e+07
10275.000000 2.44424000e+07
10325.000000 2.39249000e+07
10375.000000 2.35738000e+07
10425.000000 2.31538000e+07
10475.000000 2.27434000e+07
10525.000000 2.23418000e+07
10575.000000 2.19491000e+07
10625.000000 2.15651000e+07
10675.000000 2.11517000e+07
10725.000000 2.08216000e+07
10775.000000 2.04620000e+07
10825.000000 1.98941000e+07
10875.000000 1.97533000e+07
10925.000000 1.83056000e+07
10975.000000 1.89014000e+07
11025.000000 1.86792000e+07
11075.000000 1.84560000e+07
11125.000000 1.81507000e+07
11175.000000 1.78478000e+07
11225.000000 1.75403000e+07
11275.000000 1.72603000e+07
11325.000000 1.69757000e+07
11375.000000 1.66973000e+07
11425.000000 1.64241000e+07
11475.000000 1.61566000e+07
11525.000000 1.58947000e+07
11575.000000 1.56377000e+07
11625.000000 1.53863000e+07
11675.000000 1.51396000e+07
11725.000000 1.48981000e+07
11775.000000 1.46613000e+07
11825.000000 1.44292000e+07
11875.000000 1.42017000e+07
11925.000000 1.39784000e+07
11975.000000 1.36710000e+07
12025.000000 1.35455000e+07
12075.000000 1.33351000e+07
12125.000000 1.31290000e+07
12175.000000 1.29266000e+07
12225.000000 1.27283000e+07
12275.000000 1.25338000e+07
12325.000000 1.23431000e+07
12375.000000 1.21557000e+07
12425.000000 1.19722000e+07
12475.000000 1.17919000e+07
12525.000000 1.15933000e+07
12575.000000 1.14414000e+07
12625.000000 1.12711000e+07
12675.000000 1.11040000e+07
12725.000000 1.09399000e+07
12775.000000 1.06576000e+07
12825.000000 1.00373000e+07
12875.000000 1.04436000e+07
12925.000000 1.03133000e+07
12975.000000 1.01105000e+07
13025.000000 1.00168000e+07
13075.000000 9.87265000e+06
