# Kurucz ODFNEW /NOVER, alpha: 0.0 (2003)
# teff = 7000 K (value for the effective temperature for the model. Temperatures are given in K)
# logg = 0.5 log(cm/s2) (value for Log(G) for the model.)
# lh = 1.25  (l/Hp where l is the  mixing length of the convective element and Hp is the pressure scale height)
# meta = -1.5  (value for the Metallicity for the model.)
# vtur = 2 km/s (Microturbulence velocity)
# alpha = 0  (Alpha)
#
# column 1: WAVELENGTH (ANGSTROM), Wavelength in Angstrom
# column 2: FLUX (ERG/CM2/S/A), Flux in erg/cm2/s/A
405.000000 4.51754000e-23
414.000000 2.75718000e-22
422.000000 1.21618000e-21
430.000000 5.04072000e-21
441.000000 3.26092000e-20
451.000000 1.64036000e-19
460.000000 2.65491000e-20
470.000000 1.08254000e-19
480.000000 4.14582000e-19
490.000000 1.49857000e-18
500.000000 5.12322000e-18
506.000000 2.57847000e-16
512.000000 7.48662000e-16
520.000000 1.94551000e-15
530.000000 6.25620000e-15
540.000000 6.37817000e-16
550.000000 1.73370000e-15
560.000000 4.50898000e-15
570.000000 1.13086000e-14
580.000000 2.71001000e-14
590.000000 6.42734000e-14
600.000000 1.46171000e-13
610.000000 3.22827000e-13
620.000000 6.93353000e-13
630.000000 1.45016000e-12
640.000000 2.95902000e-12
650.000000 5.89526000e-12
658.000000 1.00638000e-11
665.000000 1.58844000e-11
675.000000 2.99416000e-11
685.000000 5.52941000e-11
695.000000 1.00160000e-10
705.000000 1.78032000e-10
716.000000 3.28474000e-10
726.000000 5.62990000e-10
735.000000 9.01891000e-10
745.000000 1.50033000e-09
755.000000 2.45855000e-09
765.000000 3.97088000e-09
775.000000 6.32623000e-09
785.000000 9.94423000e-09
795.000000 1.54250000e-08
805.000000 2.36580000e-08
815.000000 3.58486000e-08
825.000000 5.37072000e-08
835.000000 7.96010000e-08
845.000000 1.16740000e-07
855.000000 1.69476000e-07
865.000000 2.43642000e-07
875.000000 3.46928000e-07
885.000000 4.89704000e-07
895.000000 6.85099000e-07
905.000000 9.50028000e-07
915.000000 7.18833000e-03
925.000000 2.55756000e-02
935.000000 3.22439000e-02
945.000000 4.68810000e-02
955.000000 6.80242000e-02
965.000000 8.52635000e-02
975.000000 9.10650000e-02
985.000000 1.53449000e-01
995.000000 1.89753000e-01
1005.000000 2.51332000e-01
1015.000000 2.75808000e-01
1025.000000 3.32300000e-01
1035.000000 5.25763000e-01
1045.000000 6.85756000e-01
1055.000000 8.65646000e-01
1065.000000 1.05311000e+00
1075.000000 1.32501000e+00
1085.000000 1.64161000e+00
1095.000000 1.96712000e+00
1105.000000 5.47650000e+00
1115.000000 1.50928000e+01
1125.000000 1.89316000e+01
1135.000000 2.23980000e+01
1145.000000 2.35128000e+01
1155.000000 2.11140000e+01
1165.000000 2.14084000e+01
1175.000000 1.82080000e+01
1185.000000 5.91081000e+01
1195.000000 8.16048000e+00
1205.000000 5.21315000e+00
1215.000000 1.41418000e+00
1225.000000 6.33520000e+00
1235.000000 1.59890000e+01
1245.000000 2.50217000e+01
1255.000000 4.82397000e+01
1265.000000 7.38239000e+01
1275.000000 1.10514000e+02
1285.000000 1.72718000e+02
1295.000000 2.45511000e+02
1305.000000 2.95650000e+02
1315.000000 4.23215000e+02
1325.000000 5.58627000e+02
1335.000000 7.05528000e+02
1345.000000 9.19632000e+02
1355.000000 1.09049000e+03
1365.000000 1.32598000e+03
1375.000000 1.60183000e+03
1385.000000 1.95393000e+03
1395.000000 2.34456000e+03
1405.000000 2.77124000e+03
1415.000000 3.17230000e+03
1425.000000 3.72922000e+03
1435.000000 4.12345000e+03
1442.000000 4.93395000e+03
1447.000000 5.37779000e+03
1455.000000 6.38386000e+03
1465.000000 7.03389000e+03
1475.000000 8.30489000e+03
1485.000000 9.79619000e+03
1495.000000 1.19451000e+04
1505.000000 1.44024000e+04
1512.000000 1.53162000e+04
1517.000000 1.69712000e+04
1525.000000 2.05032000e+04
1535.000000 5.46158000e+04
1545.000000 9.42634000e+04
1555.000000 9.18241000e+04
1565.000000 7.95735000e+04
1575.000000 1.12972000e+05
1585.000000 1.25088000e+05
1595.000000 1.56273000e+05
1605.000000 1.52007000e+05
1615.000000 1.88493000e+05
1625.000000 2.23973000e+05
1635.000000 3.11237000e+05
1645.000000 4.58893000e+05
1655.000000 2.76376000e+05
1665.000000 5.37258000e+05
1672.000000 2.45827000e+05
1677.000000 6.45509000e+05
1685.000000 8.42698000e+05
1695.000000 8.78560000e+05
1705.000000 8.28085000e+05
1715.000000 1.01203000e+06
1725.000000 1.06832000e+06
1735.000000 1.24587000e+06
1745.000000 1.18786000e+06
1755.000000 1.43254000e+06
1765.000000 1.22915000e+06
1775.000000 1.43822000e+06
1785.000000 1.43386000e+06
1795.000000 1.78553000e+06
1805.000000 1.60103000e+06
1815.000000 1.75738000e+06
1825.000000 1.58909000e+06
1835.000000 1.65584000e+06
1845.000000 1.54653000e+06
1855.000000 1.68098000e+06
1865.000000 1.77976000e+06
1875.000000 1.84591000e+06
1885.000000 1.92604000e+06
1895.000000 2.02904000e+06
1905.000000 1.91062000e+06
1915.000000 2.12402000e+06
1925.000000 2.22390000e+06
1935.000000 1.95004000e+06
1945.000000 2.39749000e+06
1955.000000 2.44735000e+06
1967.000000 2.60190000e+06
1976.000000 2.56995000e+06
1984.000000 2.55185000e+06
1995.000000 2.51650000e+06
2005.000000 2.47600000e+06
2015.000000 2.45779000e+06
2025.000000 2.34216000e+06
2035.000000 2.63178000e+06
2045.000000 2.85149000e+06
2055.000000 2.69998000e+06
2065.000000 2.63034000e+06
2074.000000 3.08576000e+06
2078.000000 3.17553000e+06
2085.000000 3.10918000e+06
2095.000000 3.02747000e+06
2105.000000 2.92633000e+06
2115.000000 2.99558000e+06
2125.000000 3.09818000e+06
2135.000000 2.53763000e+06
2145.000000 2.99032000e+06
2155.000000 3.07133000e+06
2165.000000 2.92472000e+06
2175.000000 2.94885000e+06
2185.000000 3.07737000e+06
2195.000000 3.39540000e+06
2205.000000 3.27866000e+06
2215.000000 2.97684000e+06
2225.000000 3.00752000e+06
2235.000000 3.52782000e+06
2245.000000 3.17296000e+06
2255.000000 3.03471000e+06
2265.000000 3.03823000e+06
2275.000000 3.40144000e+06
2285.000000 3.53206000e+06
2295.000000 3.32753000e+06
2305.000000 3.47422000e+06
2315.000000 3.44335000e+06
2325.000000 3.38007000e+06
2335.000000 2.94240000e+06
2345.000000 2.49658000e+06
2355.000000 3.42424000e+06
2365.000000 2.62420000e+06
2375.000000 3.21440000e+06
2385.000000 2.25194000e+06
2395.000000 2.77436000e+06
2405.000000 2.67826000e+06
2415.000000 2.96631000e+06
2425.000000 3.71225000e+06
2435.000000 3.66854000e+06
2445.000000 3.89634000e+06
2455.000000 3.82147000e+06
2465.000000 3.82587000e+06
2475.000000 3.64262000e+06
2485.000000 3.82816000e+06
2495.000000 3.76298000e+06
2505.000000 4.33540000e+06
2513.000000 3.77883000e+06
2518.000000 3.93834000e+06
2525.000000 3.59610000e+06
2535.000000 3.50623000e+06
2545.000000 3.59651000e+06
2555.000000 3.92431000e+06
2565.000000 3.84636000e+06
2575.000000 4.20431000e+06
2585.000000 4.09297000e+06
2595.000000 3.92515000e+06
2605.000000 3.67091000e+06
2615.000000 3.54857000e+06
2625.000000 4.12812000e+06
2635.000000 4.40829000e+06
2645.000000 5.35303000e+06
2655.000000 5.35938000e+06
2665.000000 4.87287000e+06
2675.000000 5.12118000e+06
2685.000000 5.17178000e+06
2695.000000 4.90857000e+06
2705.000000 5.04873000e+06
2715.000000 4.71012000e+06
2725.000000 4.80829000e+06
2735.000000 5.20959000e+06
2745.000000 3.98077000e+06
2755.000000 4.40663000e+06
2765.000000 4.73872000e+06
2775.000000 5.28748000e+06
2785.000000 5.04607000e+06
2795.000000 2.71546000e+06
2805.000000 3.28440000e+06
2815.000000 5.54381000e+06
2825.000000 5.77229000e+06
2835.000000 5.60414000e+06
2845.000000 5.48848000e+06
2855.000000 5.22548000e+06
2865.000000 5.66547000e+06
2875.000000 5.55503000e+06
2885.000000 5.74109000e+06
2895.000000 5.54956000e+06
2910.000000 6.23634000e+06
2930.000000 6.11331000e+06
2950.000000 6.11555000e+06
2970.000000 6.32345000e+06
2990.000000 6.45532000e+06
3010.000000 6.61265000e+06
3030.000000 6.66106000e+06
3050.000000 6.69183000e+06
3070.000000 6.69926000e+06
3090.000000 6.92847000e+06
3110.000000 6.80303000e+06
3130.000000 6.81250000e+06
3150.000000 7.05886000e+06
3170.000000 7.12265000e+06
3190.000000 6.84852000e+06
3210.000000 7.09834000e+06
3230.000000 6.97821000e+06
3250.000000 7.19611000e+06
3270.000000 7.29720000e+06
3290.000000 7.46943000e+06
3310.000000 7.59057000e+06
3330.000000 7.48981000e+06
3350.000000 7.41206000e+06
3370.000000 7.47727000e+06
3390.000000 7.53846000e+06
3410.000000 7.76131000e+06
3430.000000 7.86704000e+06
3450.000000 7.86250000e+06
3470.000000 7.79778000e+06
3490.000000 7.80980000e+06
3510.000000 8.02042000e+06
3530.000000 8.13507000e+06
3550.000000 8.23529000e+06
3570.000000 8.07765000e+06
3590.000000 8.10395000e+06
3610.000000 8.18235000e+06
3630.000000 8.28628000e+06
3640.000000 8.20897000e+06
3650.000000 8.41289000e+06
3670.000000 8.52088000e+06
3690.000000 9.71449000e+06
3710.000000 1.34898000e+07
3730.000000 2.12861000e+07
3750.000000 3.13653000e+07
3770.000000 3.20035000e+07
3790.000000 3.68675000e+07
3810.000000 4.05768000e+07
3830.000000 3.30376000e+07
3850.000000 4.19873000e+07
3870.000000 4.33052000e+07
3890.000000 3.15557000e+07
3910.000000 4.21156000e+07
3930.000000 3.56682000e+07
3950.000000 4.19020000e+07
3970.000000 2.84180000e+07
3990.000000 4.15962000e+07
4010.000000 4.16907000e+07
4030.000000 4.11387000e+07
4050.000000 4.08482000e+07
4070.000000 4.00589000e+07
4090.000000 3.78844000e+07
4110.000000 3.05204000e+07
4130.000000 3.90845000e+07
4150.000000 3.91505000e+07
4170.000000 3.82321000e+07
4190.000000 3.80032000e+07
4210.000000 3.76408000e+07
4230.000000 3.71131000e+07
4250.000000 3.68105000e+07
4270.000000 3.63838000e+07
4290.000000 3.59840000e+07
4310.000000 3.45090000e+07
4330.000000 3.18862000e+07
4350.000000 2.78707000e+07
4370.000000 3.48245000e+07
4390.000000 3.41287000e+07
4410.000000 3.34789000e+07
4430.000000 3.39816000e+07
4450.000000 3.34961000e+07
4470.000000 3.31613000e+07
4490.000000 3.28758000e+07
4510.000000 3.27331000e+07
4530.000000 3.20738000e+07
4550.000000 3.13048000e+07
4570.000000 3.17854000e+07
4590.000000 3.11782000e+07
4610.000000 3.15641000e+07
4630.000000 3.08052000e+07
4650.000000 3.09085000e+07
4670.000000 3.05527000e+07
4690.000000 3.02550000e+07
4710.000000 2.95129000e+07
4730.000000 2.97741000e+07
4750.000000 2.95924000e+07
4770.000000 2.92321000e+07
4790.000000 2.89393000e+07
4810.000000 2.86405000e+07
4830.000000 2.81939000e+07
4850.000000 2.56107000e+07
4870.000000 2.12089000e+07
4890.000000 2.72479000e+07
4910.000000 2.72810000e+07
4930.000000 2.67424000e+07
4950.000000 2.68004000e+07
4970.000000 2.66980000e+07
4990.000000 2.62968000e+07
5010.000000 2.57061000e+07
5030.000000 2.58445000e+07
5050.000000 2.55929000e+07
5070.000000 2.54515000e+07
5090.000000 2.51995000e+07
5110.000000 2.49781000e+07
5130.000000 2.46320000e+07
5150.000000 2.43843000e+07
5170.000000 2.38055000e+07
5190.000000 2.35972000e+07
5210.000000 2.36510000e+07
5230.000000 2.32611000e+07
5250.000000 2.34040000e+07
5270.000000 2.27832000e+07
5290.000000 2.29828000e+07
5310.000000 2.25869000e+07
5330.000000 2.23527000e+07
5350.000000 2.24491000e+07
5370.000000 2.21398000e+07
5390.000000 2.19719000e+07
5410.000000 2.17390000e+07
5430.000000 2.15293000e+07
5450.000000 2.14413000e+07
5470.000000 2.12886000e+07
5490.000000 2.11350000e+07
5510.000000 2.09397000e+07
5530.000000 2.06813000e+07
5550.000000 2.06316000e+07
5570.000000 2.04278000e+07
5590.000000 2.02470000e+07
5610.000000 2.00885000e+07
5630.000000 1.99437000e+07
5650.000000 1.97236000e+07
5670.000000 1.95648000e+07
5690.000000 1.94450000e+07
5710.000000 1.92847000e+07
5730.000000 1.91400000e+07
5750.000000 1.89752000e+07
5770.000000 1.88224000e+07
5790.000000 1.86622000e+07
5810.000000 1.85116000e+07
5830.000000 1.83616000e+07
5850.000000 1.82065000e+07
5870.000000 1.80619000e+07
5890.000000 1.77538000e+07
5910.000000 1.77697000e+07
5930.000000 1.76254000e+07
5950.000000 1.74826000e+07
5970.000000 1.73467000e+07
5990.000000 1.71943000e+07
6010.000000 1.70581000e+07
6030.000000 1.69265000e+07
6050.000000 1.67952000e+07
6070.000000 1.66663000e+07
6090.000000 1.65276000e+07
6110.000000 1.63903000e+07
6130.000000 1.62444000e+07
6150.000000 1.60453000e+07
6170.000000 1.59899000e+07
6190.000000 1.58887000e+07
6210.000000 1.57690000e+07
6230.000000 1.56310000e+07
6250.000000 1.54087000e+07
6270.000000 1.54044000e+07
6290.000000 1.52838000e+07
6310.000000 1.51435000e+07
6330.000000 1.50433000e+07
6350.000000 1.49029000e+07
6370.000000 1.47890000e+07
6390.000000 1.47003000e+07
6410.000000 1.45628000e+07
6430.000000 1.44669000e+07
6450.000000 1.43040000e+07
6470.000000 1.42562000e+07
6490.000000 1.40862000e+07
6510.000000 1.39829000e+07
6530.000000 1.38099000e+07
6550.000000 1.28326000e+07
6570.000000 1.02594000e+07
6590.000000 1.33626000e+07
6610.000000 1.34535000e+07
6630.000000 1.34041000e+07
6650.000000 1.33288000e+07
6670.000000 1.32286000e+07
6690.000000 1.31362000e+07
6710.000000 1.30387000e+07
6730.000000 1.29431000e+07
6750.000000 1.28450000e+07
6770.000000 1.27560000e+07
6790.000000 1.26598000e+07
6810.000000 1.25701000e+07
6830.000000 1.24731000e+07
6850.000000 1.23852000e+07
6870.000000 1.22980000e+07
6890.000000 1.22092000e+07
6910.000000 1.21205000e+07
6930.000000 1.20326000e+07
6950.000000 1.19463000e+07
6970.000000 1.18592000e+07
6990.000000 1.17760000e+07
7010.000000 1.16821000e+07
7030.000000 1.16051000e+07
7050.000000 1.15249000e+07
7070.000000 1.14432000e+07
7090.000000 1.13623000e+07
7110.000000 1.12507000e+07
7130.000000 1.11959000e+07
7150.000000 1.11186000e+07
7170.000000 1.10420000e+07
7190.000000 1.09595000e+07
7210.000000 1.08821000e+07
7230.000000 1.08018000e+07
7250.000000 1.07344000e+07
7270.000000 1.06612000e+07
7290.000000 1.05815000e+07
7310.000000 1.04997000e+07
7330.000000 1.04334000e+07
7350.000000 1.03648000e+07
7370.000000 1.02982000e+07
7390.000000 1.02226000e+07
7410.000000 1.01462000e+07
7430.000000 1.00766000e+07
7450.000000 1.00090000e+07
7470.000000 9.92916000e+06
7490.000000 9.86747000e+06
7510.000000 9.80296000e+06
7530.000000 9.74232000e+06
7550.000000 9.68020000e+06
7570.000000 9.61137000e+06
7590.000000 9.54836000e+06
7610.000000 9.48392000e+06
7630.000000 9.42003000e+06
7650.000000 9.35282000e+06
7670.000000 9.28809000e+06
7690.000000 9.22965000e+06
7710.000000 9.15585000e+06
7730.000000 9.10664000e+06
7750.000000 9.04527000e+06
7770.000000 8.89393000e+06
7790.000000 8.92654000e+06
7810.000000 8.86730000e+06
7830.000000 8.80485000e+06
7850.000000 8.74353000e+06
7870.000000 8.68334000e+06
7890.000000 8.62243000e+06
7910.000000 8.57346000e+06
7930.000000 8.51589000e+06
7950.000000 8.45819000e+06
7970.000000 8.40987000e+06
7990.000000 8.34657000e+06
8010.000000 8.29849000e+06
8030.000000 8.24376000e+06
8050.000000 8.19064000e+06
8070.000000 8.13737000e+06
8090.000000 8.08394000e+06
8110.000000 8.03324000e+06
8130.000000 7.98179000e+06
8150.000000 7.92962000e+06
8170.000000 7.87843000e+06
8190.000000 7.80742000e+06
8210.000000 7.79011000e+06
8230.000000 7.74117000e+06
8250.000000 7.68099000e+06
8270.000000 7.64939000e+06
8290.000000 7.58950000e+06
8310.000000 7.50501000e+06
8330.000000 7.40441000e+06
8350.000000 7.45003000e+06
8370.000000 7.24884000e+06
8390.000000 7.32778000e+06
8410.000000 7.30309000e+06
8430.000000 7.50226000e+06
8450.000000 7.42194000e+06
8470.000000 7.19264000e+06
8490.000000 7.77239000e+06
8510.000000 7.08513000e+06
8530.000000 7.89020000e+06
8550.000000 6.86696000e+06
8570.000000 8.03831000e+06
8590.000000 7.66600000e+06
8610.000000 7.45002000e+06
8630.000000 8.22941000e+06
8650.000000 8.10883000e+06
8670.000000 6.76639000e+06
8690.000000 8.11068000e+06
8710.000000 8.16186000e+06
8730.000000 8.04295000e+06
8750.000000 6.78051000e+06
8770.000000 7.83260000e+06
8790.000000 7.95595000e+06
8810.000000 7.89609000e+06
8830.000000 7.82702000e+06
8850.000000 7.54397000e+06
8870.000000 6.58153000e+06
8890.000000 7.65260000e+06
8910.000000 7.62920000e+06
8930.000000 7.58089000e+06
8950.000000 7.57480000e+06
8970.000000 7.51718000e+06
8990.000000 7.42084000e+06
9010.000000 6.43010000e+06
9030.000000 6.98471000e+06
9050.000000 7.30207000e+06
9070.000000 7.20259000e+06
9090.000000 7.09615000e+06
9110.000000 7.14855000e+06
9130.000000 7.14529000e+06
9150.000000 7.10329000e+06
9170.000000 7.05531000e+06
9190.000000 6.99341000e+06
9210.000000 6.83738000e+06
9230.000000 5.78761000e+06
9250.000000 6.68900000e+06
9270.000000 6.76144000e+06
9290.000000 6.79172000e+06
9310.000000 6.75040000e+06
9330.000000 6.70678000e+06
9350.000000 6.66562000e+06
9370.000000 6.62432000e+06
9390.000000 6.57861000e+06
9410.000000 6.47325000e+06
9430.000000 6.49284000e+06
9450.000000 6.45737000e+06
9470.000000 6.41921000e+06
9490.000000 6.38005000e+06
9510.000000 6.32200000e+06
9530.000000 6.16939000e+06
9550.000000 5.28481000e+06
9570.000000 6.13356000e+06
9590.000000 6.17190000e+06
9610.000000 6.12788000e+06
9630.000000 6.07077000e+06
9650.000000 6.06950000e+06
9670.000000 5.99487000e+06
9690.000000 5.99261000e+06
9710.000000 5.96196000e+06
9730.000000 5.92514000e+06
9750.000000 5.88500000e+06
9770.000000 5.85383000e+06
9790.000000 5.81815000e+06
9810.000000 5.78270000e+06
9830.000000 5.74789000e+06
9850.000000 5.70749000e+06
9870.000000 5.67587000e+06
9890.000000 5.62829000e+06
9910.000000 5.60828000e+06
9930.000000 5.57005000e+06
9950.000000 5.54159000e+06
9970.000000 5.51066000e+06
9990.000000 5.47692000e+06
10025.000000 5.28280000e+06
10075.000000 5.05903000e+06
10125.000000 5.25209000e+06
10175.000000 5.18277000e+06
10225.000000 5.10843000e+06
10275.000000 5.03492000e+06
10325.000000 4.95589000e+06
10375.000000 4.88968000e+06
10425.000000 4.81967000e+06
10475.000000 4.73566000e+06
10525.000000 4.67955000e+06
10575.000000 4.61384000e+06
10625.000000 4.54616000e+06
10675.000000 4.44251000e+06
10725.000000 4.40053000e+06
10775.000000 4.35492000e+06
10825.000000 4.29131000e+06
10875.000000 4.23219000e+06
10925.000000 3.88422000e+06
10975.000000 4.07472000e+06
11025.000000 4.06636000e+06
11075.000000 4.01099000e+06
11125.000000 3.95493000e+06
11175.000000 3.90122000e+06
11225.000000 3.84890000e+06
11275.000000 3.78639000e+06
11325.000000 3.73071000e+06
11375.000000 3.69245000e+06
11425.000000 3.64086000e+06
11475.000000 3.59633000e+06
11525.000000 3.54874000e+06
11575.000000 3.50128000e+06
11625.000000 3.44697000e+06
11675.000000 3.39153000e+06
11725.000000 3.36431000e+06
11775.000000 3.29531000e+06
11825.000000 3.26320000e+06
11875.000000 3.22108000e+06
11925.000000 3.19227000e+06
11975.000000 3.13808000e+06
12025.000000 3.10866000e+06
12075.000000 3.06694000e+06
12125.000000 3.02812000e+06
12175.000000 2.99136000e+06
12225.000000 2.95282000e+06
12275.000000 2.91381000e+06
12325.000000 2.87782000e+06
12375.000000 2.84182000e+06
12425.000000 2.80655000e+06
12475.000000 2.77054000e+06
12525.000000 2.73574000e+06
12575.000000 2.69830000e+06
12625.000000 2.66491000e+06
12675.000000 2.63525000e+06
12725.000000 2.60272000e+06
12775.000000 2.56161000e+06
12825.000000 2.35592000e+06
12875.000000 2.50243000e+06
12925.000000 2.47657000e+06
12975.000000 2.44633000e+06
13025.000000 2.41692000e+06
13075.000000 2.38745000e+06
13125.000000 2.35815000e+06
13175.000000 2.32878000e+06
13225.000000 2.30194000e+06
13275.000000 2.27416000e+06
13325.000000 2.24694000e+06
13375.000000 2.22006000e+06
13425.000000 2.19352000e+06
13475.000000 2.16752000e+06
13525.000000 2.14102000e+06
13575.000000 2.11567000e+06
13625.000000 2.09145000e+06
13675.000000 2.06671000e+06
13725.000000 2.03748000e+06
13775.000000 2.01775000e+06
13825.000000 1.99451000e+06
13875.000000 1.97195000e+06
13925.000000 1.94829000e+06
13975.000000 1.92623000e+06
14025.000000 1.90398000e+06
14075.000000 1.88222000e+06
14125.000000 1.86037000e+06
14175.000000 1.83909000e+06
14225.000000 1.81790000e+06
14275.000000 1.79711000e+06
14325.000000 1.77684000e+06
14375.000000 1.75677000e+06
14425.000000 1.72743000e+06
14475.000000 1.71708000e+06
14525.000000 1.69257000e+06
14570.000000 1.68034000e+06
14620.000000 1.66188000e+06
14675.000000 1.64371000e+06
14725.000000 1.62532000e+06
14775.000000 1.60594000e+06
14825.000000 1.58849000e+06
14875.000000 1.56720000e+06
14925.000000 1.55119000e+06
14975.000000 1.53673000e+06
15025.000000 1.50560000e+06
15075.000000 1.49652000e+06
15125.000000 1.47902000e+06
15175.000000 1.46451000e+06
15225.000000 1.47519000e+06
15275.000000 1.42460000e+06
