# Kurucz ODFNEW /NOVER, alpha: 0.0 (2003)
# teff = 19000 K (value for the effective temperature for the model. Temperatures are given in K)
# logg = 5 log(cm/s2) (value for Log(G) for the model.)
# lh = 1.25  (l/Hp where l is the  mixing length of the convective element and Hp is the pressure scale height)
# meta = 0.2  (value for the Metallicity for the model.)
# vtur = 2 km/s (Microturbulence velocity)
# alpha = 0  (Alpha)
#
# column 1: WAVELENGTH (ANGSTROM), Wavelength in Angstrom
# column 2: FLUX (ERG/CM2/S/A), Flux in erg/cm2/s/A
147.200000 1.82037000e-20
151.000000 1.16151000e-19
155.200000 8.11968000e-19
158.800000 3.95770000e-18
162.000000 1.52678000e-17
166.000000 7.67964000e-17
170.300000 4.00305000e-16
173.400000 1.25344000e-15
176.800000 4.18090000e-15
180.200000 1.33280000e-14
181.700000 2.19123000e-14
186.100000 9.00934000e-14
191.000000 4.02650000e-13
193.900000 9.39008000e-13
198.400000 3.32919000e-12
201.800000 8.37092000e-12
205.000000 1.94286000e-11
210.500000 7.72856000e-11
216.200000 3.00401000e-10
219.800000 6.83036000e-10
223.000000 1.38248000e-09
226.800000 3.11801000e-09
230.000000 7.98182000e-09
234.000000 1.99132000e-08
240.000000 6.40917000e-08
246.500000 2.10839000e-07
252.400000 5.89992000e-07
256.800000 1.21714000e-06
260.000000 2.07201000e-06
264.000000 3.89643000e-06
268.500000 7.73397000e-06
273.500000 1.61128000e-05
278.500000 3.28074000e-05
284.000000 6.97166000e-05
290.000000 1.52918000e-04
296.000000 3.24061000e-04
301.000000 5.93155000e-04
308.000000 1.32759000e-03
318.000000 4.01302000e-03
328.000000 1.11477000e-02
338.000000 2.94313000e-02
348.000000 7.29636000e-02
357.000000 1.59646000e-01
366.000000 3.34106000e-01
375.000000 6.66580000e-01
385.000000 1.38746000e+00
395.000000 2.77045000e+00
405.000000 5.34645000e+00
414.000000 9.40197000e+00
422.000000 1.51342000e+01
430.000000 2.38955000e+01
441.000000 4.38385000e+01
451.000000 7.39157000e+01
460.000000 1.15572000e+02
470.000000 1.86267000e+02
480.000000 2.93453000e+02
490.000000 4.53864000e+02
500.000000 6.88119000e+02
506.000000 6.06464000e+03
512.000000 2.68826000e+04
520.000000 3.44824000e+04
530.000000 4.82546000e+04
540.000000 5.84732000e+04
550.000000 8.55742000e+04
560.000000 1.07925000e+05
570.000000 1.41763000e+05
580.000000 1.57646000e+05
590.000000 2.19057000e+05
600.000000 2.75149000e+05
610.000000 3.48401000e+05
620.000000 4.15382000e+05
630.000000 5.02230000e+05
640.000000 5.71183000e+05
650.000000 6.34038000e+05
658.000000 8.03188000e+05
665.000000 8.94064000e+05
675.000000 1.03272000e+06
685.000000 1.19629000e+06
695.000000 1.44203000e+06
705.000000 1.64456000e+06
716.000000 1.91673000e+06
726.000000 2.17349000e+06
735.000000 2.42813000e+06
745.000000 2.80926000e+06
755.000000 3.19267000e+06
765.000000 3.60659000e+06
775.000000 4.07291000e+06
785.000000 4.57773000e+06
795.000000 5.03224000e+06
805.000000 5.57928000e+06
815.000000 6.12772000e+06
825.000000 6.85073000e+06
835.000000 7.32143000e+06
845.000000 8.10309000e+06
855.000000 8.87783000e+06
865.000000 9.77289000e+06
875.000000 1.07396000e+07
885.000000 1.18518000e+07
895.000000 1.28564000e+07
905.000000 1.34418000e+07
915.000000 2.13891000e+07
925.000000 7.47229000e+07
935.000000 1.54493000e+08
945.000000 5.19729000e+08
955.000000 1.51629000e+09
965.000000 2.23410000e+09
975.000000 5.03019000e+08
985.000000 4.05220000e+09
995.000000 4.29156000e+09
1005.000000 5.25804000e+09
1015.000000 3.68163000e+09
1025.000000 4.47934000e+08
1035.000000 2.24882000e+09
1045.000000 6.57364000e+09
1055.000000 7.06902000e+09
1065.000000 5.50102000e+09
1075.000000 7.01674000e+09
1085.000000 6.25085000e+09
1095.000000 7.15834000e+09
1105.000000 6.19354000e+09
1115.000000 5.97840000e+09
1125.000000 5.77615000e+09
1135.000000 7.17065000e+09
1145.000000 5.94537000e+09
1155.000000 6.60563000e+09
1165.000000 6.97930000e+09
1175.000000 5.27946000e+09
1185.000000 6.83182000e+09
1195.000000 3.97590000e+09
1205.000000 2.29731000e+09
1215.000000 5.49824000e+08
1225.000000 2.11797000e+09
1235.000000 5.76719000e+09
1245.000000 6.62669000e+09
1255.000000 6.61239000e+09
1265.000000 5.86744000e+09
1275.000000 6.60865000e+09
1285.000000 7.10236000e+09
1295.000000 4.65794000e+09
1305.000000 3.94399000e+09
1315.000000 6.52535000e+09
1325.000000 6.15985000e+09
1335.000000 5.41242000e+09
1345.000000 6.29623000e+09
1355.000000 6.04647000e+09
1365.000000 5.37346000e+09
1375.000000 5.53111000e+09
1385.000000 5.64458000e+09
1395.000000 5.03061000e+09
1405.000000 5.23254000e+09
1415.000000 5.07267000e+09
1425.000000 5.24328000e+09
1435.000000 5.16259000e+09
1442.000000 5.47095000e+09
1447.000000 5.42259000e+09
1455.000000 5.28073000e+09
1465.000000 4.91979000e+09
1475.000000 4.82768000e+09
1485.000000 4.68839000e+09
1495.000000 4.79259000e+09
1505.000000 4.39396000e+09
1512.000000 3.99562000e+09
1517.000000 4.25679000e+09
1525.000000 4.27428000e+09
1535.000000 3.83856000e+09
1545.000000 3.99720000e+09
1555.000000 3.75043000e+09
1565.000000 3.76433000e+09
1575.000000 3.98519000e+09
1585.000000 4.02579000e+09
1595.000000 4.07409000e+09
1605.000000 3.95094000e+09
1615.000000 3.95878000e+09
1625.000000 3.76954000e+09
1635.000000 3.93059000e+09
1645.000000 3.90982000e+09
1655.000000 3.61266000e+09
1665.000000 3.92082000e+09
1672.000000 3.73255000e+09
1677.000000 3.81722000e+09
1685.000000 3.90207000e+09
1695.000000 3.69278000e+09
1705.000000 3.49149000e+09
1715.000000 3.27042000e+09
1725.000000 3.21780000e+09
1735.000000 3.38042000e+09
1745.000000 3.25271000e+09
1755.000000 3.38540000e+09
1765.000000 3.09694000e+09
1775.000000 3.14991000e+09
1785.000000 3.18223000e+09
1795.000000 3.30939000e+09
1805.000000 3.28659000e+09
1815.000000 3.01077000e+09
1825.000000 3.09731000e+09
1835.000000 2.93879000e+09
1845.000000 2.71732000e+09
1855.000000 2.63085000e+09
1865.000000 2.67896000e+09
1875.000000 2.91053000e+09
1885.000000 2.63938000e+09
1895.000000 2.48969000e+09
1905.000000 2.66844000e+09
1915.000000 2.51264000e+09
1925.000000 2.45214000e+09
1935.000000 2.53351000e+09
1945.000000 2.56798000e+09
1955.000000 2.37825000e+09
1967.000000 2.56713000e+09
1976.000000 2.65881000e+09
1984.000000 2.46428000e+09
1995.000000 2.39383000e+09
2005.000000 2.45763000e+09
2015.000000 2.32817000e+09
2025.000000 2.50230000e+09
2035.000000 2.31520000e+09
2045.000000 2.34252000e+09
2055.000000 2.24243000e+09
2065.000000 2.28482000e+09
2074.000000 2.34955000e+09
2078.000000 2.21514000e+09
2085.000000 2.28652000e+09
2095.000000 2.15015000e+09
2105.000000 2.19575000e+09
2115.000000 2.18506000e+09
2125.000000 2.21610000e+09
2135.000000 2.11737000e+09
2145.000000 2.08711000e+09
2155.000000 2.14217000e+09
2165.000000 2.08473000e+09
2175.000000 2.05756000e+09
2185.000000 2.00011000e+09
2195.000000 2.03572000e+09
2205.000000 1.98096000e+09
2215.000000 1.92794000e+09
2225.000000 1.84757000e+09
2235.000000 1.91561000e+09
2245.000000 1.86660000e+09
2255.000000 1.79451000e+09
2265.000000 1.83157000e+09
2275.000000 1.83778000e+09
2285.000000 1.84302000e+09
2295.000000 1.76955000e+09
2305.000000 1.73473000e+09
2315.000000 1.67725000e+09
2325.000000 1.65825000e+09
2335.000000 1.58659000e+09
2345.000000 1.55548000e+09
2355.000000 1.57688000e+09
2365.000000 1.51837000e+09
2375.000000 1.52993000e+09
2385.000000 1.46957000e+09
2395.000000 1.53062000e+09
2405.000000 1.46138000e+09
2415.000000 1.47405000e+09
2425.000000 1.48792000e+09
2435.000000 1.42108000e+09
2445.000000 1.45902000e+09
2455.000000 1.43622000e+09
2465.000000 1.41746000e+09
2475.000000 1.38149000e+09
2485.000000 1.42090000e+09
2495.000000 1.37068000e+09
2505.000000 1.40245000e+09
2513.000000 1.33155000e+09
2518.000000 1.37392000e+09
2525.000000 1.31461000e+09
2535.000000 1.30725000e+09
2545.000000 1.27280000e+09
2555.000000 1.30602000e+09
2565.000000 1.28859000e+09
2575.000000 1.31593000e+09
2585.000000 1.31157000e+09
2595.000000 1.30434000e+09
2605.000000 1.27142000e+09
2615.000000 1.26193000e+09
2625.000000 1.25326000e+09
2635.000000 1.25093000e+09
2645.000000 1.27170000e+09
2655.000000 1.25829000e+09
2665.000000 1.21131000e+09
2675.000000 1.22680000e+09
2685.000000 1.21251000e+09
2695.000000 1.18548000e+09
2705.000000 1.18414000e+09
2715.000000 1.15862000e+09
2725.000000 1.14191000e+09
2735.000000 1.16037000e+09
2745.000000 1.09784000e+09
2755.000000 1.09321000e+09
2765.000000 1.09660000e+09
2775.000000 1.11195000e+09
2785.000000 1.10169000e+09
2795.000000 1.03957000e+09
2805.000000 1.06894000e+09
2815.000000 1.07943000e+09
2825.000000 1.05920000e+09
2835.000000 1.01640000e+09
2845.000000 1.01247000e+09
2855.000000 1.01552000e+09
2865.000000 1.02675000e+09
2875.000000 1.00750000e+09
2885.000000 1.00256000e+09
2895.000000 9.95514000e+08
2910.000000 9.89459000e+08
2930.000000 9.63886000e+08
2950.000000 9.40427000e+08
2970.000000 9.31776000e+08
2990.000000 9.11136000e+08
3010.000000 9.01812000e+08
3030.000000 8.90192000e+08
3050.000000 8.70943000e+08
3070.000000 8.54156000e+08
3090.000000 8.39978000e+08
3110.000000 8.22198000e+08
3130.000000 8.10263000e+08
3150.000000 7.95526000e+08
3170.000000 7.79971000e+08
3190.000000 7.56080000e+08
3210.000000 7.51660000e+08
3230.000000 7.39889000e+08
3250.000000 7.27743000e+08
3270.000000 7.16332000e+08
3290.000000 7.03890000e+08
3310.000000 6.93346000e+08
3330.000000 6.80660000e+08
3350.000000 6.67455000e+08
3370.000000 6.57002000e+08
3390.000000 6.46224000e+08
3410.000000 6.36009000e+08
3430.000000 6.23746000e+08
3450.000000 6.12104000e+08
3470.000000 6.02722000e+08
3490.000000 5.93081000e+08
3510.000000 5.83956000e+08
3530.000000 5.75333000e+08
3550.000000 5.65998000e+08
3570.000000 5.58876000e+08
3590.000000 5.45973000e+08
3610.000000 5.38870000e+08
3630.000000 5.29747000e+08
3640.000000 5.28518000e+08
3650.000000 5.22515000e+08
3670.000000 5.16332000e+08
3690.000000 5.08315000e+08
3710.000000 4.92148000e+08
3730.000000 4.69175000e+08
3750.000000 4.76615000e+08
3770.000000 4.72048000e+08
3790.000000 5.12767000e+08
3810.000000 5.50245000e+08
3830.000000 4.66234000e+08
3850.000000 5.79054000e+08
3870.000000 6.12199000e+08
3890.000000 4.29681000e+08
3910.000000 6.10481000e+08
3930.000000 6.14577000e+08
3950.000000 5.94268000e+08
3970.000000 4.03216000e+08
3990.000000 5.62772000e+08
4010.000000 5.87043000e+08
4030.000000 5.42678000e+08
4050.000000 5.79776000e+08
4070.000000 5.57081000e+08
4090.000000 4.72756000e+08
4110.000000 3.96041000e+08
4130.000000 5.16165000e+08
4150.000000 5.24785000e+08
4170.000000 5.24486000e+08
4190.000000 5.20178000e+08
4210.000000 5.13696000e+08
4230.000000 5.04344000e+08
4250.000000 4.94895000e+08
4270.000000 4.78802000e+08
4290.000000 4.76538000e+08
4310.000000 4.59289000e+08
4330.000000 3.79404000e+08
4350.000000 3.39549000e+08
4370.000000 4.32796000e+08
4390.000000 4.22176000e+08
4410.000000 4.34163000e+08
4430.000000 4.26124000e+08
4450.000000 4.23311000e+08
4470.000000 3.89722000e+08
4490.000000 4.05169000e+08
4510.000000 4.05843000e+08
4530.000000 3.98082000e+08
4550.000000 3.92461000e+08
4570.000000 3.87446000e+08
4590.000000 3.81430000e+08
4610.000000 3.75239000e+08
4630.000000 3.68085000e+08
4650.000000 3.63148000e+08
4670.000000 3.58818000e+08
4690.000000 3.54206000e+08
4710.000000 3.40420000e+08
4730.000000 3.41151000e+08
4750.000000 3.35730000e+08
4770.000000 3.33831000e+08
4790.000000 3.27699000e+08
4810.000000 3.19753000e+08
4830.000000 3.09343000e+08
4850.000000 2.64483000e+08
4870.000000 2.30499000e+08
4890.000000 2.93196000e+08
4910.000000 2.97001000e+08
4930.000000 2.85327000e+08
4950.000000 2.92343000e+08
4970.000000 2.89431000e+08
4990.000000 2.84982000e+08
5010.000000 2.73586000e+08
5030.000000 2.75747000e+08
5050.000000 2.67333000e+08
5070.000000 2.69405000e+08
5090.000000 2.65504000e+08
5110.000000 2.61035000e+08
5130.000000 2.57085000e+08
5150.000000 2.53004000e+08
5170.000000 2.51149000e+08
5190.000000 2.47819000e+08
5210.000000 2.41936000e+08
5230.000000 2.41164000e+08
5250.000000 2.38223000e+08
5270.000000 2.34533000e+08
5290.000000 2.32439000e+08
5310.000000 2.29022000e+08
5330.000000 2.25781000e+08
5350.000000 2.22240000e+08
5370.000000 2.20457000e+08
5390.000000 2.17528000e+08
5410.000000 2.14365000e+08
5430.000000 2.11115000e+08
5450.000000 2.08718000e+08
5470.000000 2.05734000e+08
5490.000000 2.03863000e+08
5510.000000 2.01033000e+08
5530.000000 1.98646000e+08
5550.000000 1.96250000e+08
5570.000000 1.93666000e+08
5590.000000 1.91354000e+08
5610.000000 1.88783000e+08
5630.000000 1.86909000e+08
5650.000000 1.82851000e+08
5670.000000 1.80813000e+08
5690.000000 1.79311000e+08
5710.000000 1.77607000e+08
5730.000000 1.75497000e+08
5750.000000 1.73321000e+08
5770.000000 1.71307000e+08
5790.000000 1.69148000e+08
5810.000000 1.67014000e+08
5830.000000 1.65028000e+08
5850.000000 1.63054000e+08
5870.000000 1.55286000e+08
5890.000000 1.57850000e+08
5910.000000 1.57150000e+08
5930.000000 1.55449000e+08
5950.000000 1.52895000e+08
5970.000000 1.51713000e+08
5990.000000 1.49599000e+08
6010.000000 1.48313000e+08
6030.000000 1.46492000e+08
6050.000000 1.44825000e+08
6070.000000 1.43116000e+08
6090.000000 1.41354000e+08
6110.000000 1.39886000e+08
6130.000000 1.38273000e+08
6150.000000 1.35930000e+08
6170.000000 1.34981000e+08
6190.000000 1.33560000e+08
6210.000000 1.32017000e+08
6230.000000 1.30414000e+08
6250.000000 1.28520000e+08
6270.000000 1.27490000e+08
6290.000000 1.26024000e+08
6310.000000 1.24460000e+08
6330.000000 1.23242000e+08
6350.000000 1.20888000e+08
6370.000000 1.19926000e+08
6390.000000 1.19075000e+08
6410.000000 1.17663000e+08
6430.000000 1.16614000e+08
6450.000000 1.15167000e+08
6470.000000 1.13736000e+08
6490.000000 1.12330000e+08
6510.000000 1.10601000e+08
6530.000000 1.08069000e+08
6550.000000 9.86728000e+07
6570.000000 8.55068000e+07
6590.000000 1.02362000e+08
6610.000000 1.04512000e+08
6630.000000 1.04054000e+08
6650.000000 1.03165000e+08
6670.000000 1.00938000e+08
6690.000000 1.00024000e+08
6710.000000 1.00106000e+08
6730.000000 9.90546000e+07
6750.000000 9.80551000e+07
6770.000000 9.70409000e+07
6790.000000 9.57184000e+07
6810.000000 9.49457000e+07
6830.000000 9.38817000e+07
6850.000000 9.30132000e+07
6870.000000 9.20573000e+07
6890.000000 9.11031000e+07
6910.000000 9.01583000e+07
6930.000000 8.90817000e+07
6950.000000 8.83279000e+07
6970.000000 8.74418000e+07
6990.000000 8.65258000e+07
7010.000000 8.56034000e+07
7030.000000 8.47511000e+07
7050.000000 8.37480000e+07
7070.000000 8.18051000e+07
7090.000000 8.22511000e+07
7110.000000 8.13344000e+07
7130.000000 8.05527000e+07
7150.000000 7.97342000e+07
7170.000000 7.89749000e+07
7190.000000 7.82155000e+07
7210.000000 7.74416000e+07
7230.000000 7.59687000e+07
7250.000000 7.58440000e+07
7270.000000 7.51636000e+07
7290.000000 7.39436000e+07
7310.000000 7.36946000e+07
7330.000000 7.29705000e+07
7350.000000 7.22740000e+07
7370.000000 7.15702000e+07
7390.000000 7.08729000e+07
7410.000000 7.01890000e+07
7430.000000 6.94021000e+07
7450.000000 6.87924000e+07
7470.000000 6.80465000e+07
7490.000000 6.74418000e+07
7510.000000 6.68293000e+07
7530.000000 6.62043000e+07
7550.000000 6.55897000e+07
7570.000000 6.49780000e+07
7590.000000 6.43397000e+07
7610.000000 6.37639000e+07
7630.000000 6.31557000e+07
7650.000000 6.25575000e+07
7670.000000 6.19716000e+07
7690.000000 6.13885000e+07
7710.000000 6.08233000e+07
7730.000000 6.02423000e+07
7750.000000 5.96890000e+07
7770.000000 5.85853000e+07
7790.000000 5.85896000e+07
7810.000000 5.80466000e+07
7830.000000 5.75255000e+07
7850.000000 5.67969000e+07
7870.000000 5.63140000e+07
7890.000000 5.56839000e+07
7910.000000 5.54327000e+07
7930.000000 5.49654000e+07
7950.000000 5.42701000e+07
7970.000000 5.39513000e+07
7990.000000 5.32041000e+07
8010.000000 5.30022000e+07
8030.000000 5.25106000e+07
8050.000000 5.20221000e+07
8070.000000 5.15766000e+07
8090.000000 5.10893000e+07
8110.000000 5.06338000e+07
8130.000000 5.01797000e+07
8150.000000 4.97443000e+07
8170.000000 4.93261000e+07
8190.000000 4.88316000e+07
8210.000000 4.82581000e+07
8230.000000 4.77769000e+07
8250.000000 4.75782000e+07
8270.000000 4.70828000e+07
8290.000000 4.67375000e+07
8310.000000 4.63655000e+07
8330.000000 4.59694000e+07
8350.000000 4.54793000e+07
8370.000000 4.51412000e+07
8390.000000 4.48449000e+07
8410.000000 4.44540000e+07
8430.000000 4.40392000e+07
8450.000000 4.32875000e+07
8470.000000 4.32782000e+07
8490.000000 4.28090000e+07
8510.000000 4.24104000e+07
8530.000000 4.21149000e+07
8550.000000 4.13759000e+07
8570.000000 4.15908000e+07
8590.000000 4.03799000e+07
8610.000000 4.01818000e+07
8630.000000 4.07722000e+07
8650.000000 3.96268000e+07
8670.000000 3.77978000e+07
8690.000000 3.96050000e+07
8710.000000 3.99944000e+07
8730.000000 3.86359000e+07
8750.000000 3.52223000e+07
8770.000000 3.72586000e+07
8790.000000 3.89421000e+07
8810.000000 3.90815000e+07
8830.000000 3.81460000e+07
8850.000000 3.51677000e+07
8870.000000 3.26491000e+07
8890.000000 3.63816000e+07
8910.000000 3.75481000e+07
8930.000000 3.76073000e+07
8950.000000 3.74592000e+07
8970.000000 3.67740000e+07
8990.000000 3.50020000e+07
9010.000000 3.06790000e+07
9030.000000 3.19311000e+07
9050.000000 3.47809000e+07
9070.000000 3.51529000e+07
9090.000000 3.53221000e+07
9110.000000 3.53143000e+07
9130.000000 3.50680000e+07
9150.000000 3.47551000e+07
9170.000000 3.41924000e+07
9190.000000 3.33420000e+07
9210.000000 3.11206000e+07
9230.000000 2.70936000e+07
9250.000000 3.02462000e+07
9270.000000 3.18655000e+07
9290.000000 3.25810000e+07
9310.000000 3.24959000e+07
9330.000000 3.23978000e+07
9350.000000 3.22124000e+07
9370.000000 3.19922000e+07
9390.000000 3.17266000e+07
9410.000000 3.12362000e+07
9430.000000 3.12166000e+07
9450.000000 3.09336000e+07
9470.000000 3.04413000e+07
9490.000000 3.01141000e+07
9510.000000 2.91269000e+07
9530.000000 2.70121000e+07
9550.000000 2.38663000e+07
9570.000000 2.71343000e+07
9590.000000 2.85136000e+07
9610.000000 2.87507000e+07
9630.000000 2.84787000e+07
9650.000000 2.86326000e+07
9670.000000 2.84192000e+07
9690.000000 2.82495000e+07
9710.000000 2.80229000e+07
9730.000000 2.78756000e+07
9750.000000 2.76456000e+07
9770.000000 2.74560000e+07
9790.000000 2.72429000e+07
9810.000000 2.70341000e+07
9830.000000 2.68080000e+07
9850.000000 2.66197000e+07
9870.000000 2.64125000e+07
9890.000000 2.61748000e+07
9910.000000 2.58821000e+07
9930.000000 2.57562000e+07
9950.000000 2.55233000e+07
9970.000000 2.52535000e+07
9990.000000 2.49090000e+07
10025.000000 2.29178000e+07
10075.000000 2.19872000e+07
10125.000000 2.36587000e+07
10175.000000 2.34977000e+07
10225.000000 2.31337000e+07
10275.000000 2.27285000e+07
10325.000000 2.22365000e+07
10375.000000 2.19184000e+07
10425.000000 2.15297000e+07
10475.000000 2.11396000e+07
10525.000000 2.07597000e+07
10575.000000 2.03985000e+07
10625.000000 2.00477000e+07
10675.000000 1.96154000e+07
10725.000000 1.93432000e+07
10775.000000 1.89986000e+07
10825.000000 1.84326000e+07
10875.000000 1.80809000e+07
10925.000000 1.58743000e+07
10975.000000 1.67399000e+07
11025.000000 1.72303000e+07
11075.000000 1.70923000e+07
11125.000000 1.68629000e+07
11175.000000 1.65793000e+07
11225.000000 1.63015000e+07
11275.000000 1.59759000e+07
11325.000000 1.57315000e+07
11375.000000 1.55093000e+07
11425.000000 1.52527000e+07
11475.000000 1.50090000e+07
11525.000000 1.47645000e+07
11575.000000 1.45242000e+07
11625.000000 1.42735000e+07
11675.000000 1.40484000e+07
11725.000000 1.38332000e+07
11775.000000 1.35799000e+07
11825.000000 1.33993000e+07
11875.000000 1.31825000e+07
11925.000000 1.29834000e+07
11975.000000 1.26664000e+07
12025.000000 1.25803000e+07
12075.000000 1.23843000e+07
12125.000000 1.21917000e+07
12175.000000 1.20043000e+07
12225.000000 1.18196000e+07
12275.000000 1.16370000e+07
12325.000000 1.14599000e+07
12375.000000 1.12868000e+07
12425.000000 1.11176000e+07
12475.000000 1.09367000e+07
12525.000000 1.07693000e+07
12575.000000 1.06138000e+07
12625.000000 1.04597000e+07
12675.000000 1.02859000e+07
12725.000000 1.00901000e+07
12775.000000 9.65827000e+06
12825.000000 8.69603000e+06
12875.000000 9.48450000e+06
12925.000000 9.52177000e+06
12975.000000 9.37356000e+06
13025.000000 9.30062000e+06
13075.000000 9.16660000e+06
