# Kurucz ODFNEW /NOVER, alpha: 0.0 (2003)
# teff = 30000 K (value for the effective temperature for the model. Temperatures are given in K)
# logg = 3.5 log(cm/s2) (value for Log(G) for the model.)
# lh = 1.25  (l/Hp where l is the  mixing length of the convective element and Hp is the pressure scale height)
# meta = -0.5  (value for the Metallicity for the model.)
# vtur = 2 km/s (Microturbulence velocity)
# alpha = 0  (Alpha)
#
# column 1: WAVELENGTH (ANGSTROM), Wavelength in Angstrom
# column 2: FLUX (ERG/CM2/S/A), Flux in erg/cm2/s/A
147.200000 2.49654000e-08
151.000000 7.63339000e-08
155.200000 2.47602000e-07
158.800000 6.48811000e-07
162.000000 1.47697000e-06
166.000000 3.96225000e-06
170.300000 1.08964000e-05
173.400000 2.19616000e-05
176.800000 4.61285000e-05
180.200000 9.42901000e-05
181.700000 1.28327000e-04
186.100000 3.07893000e-04
191.000000 7.80040000e-04
193.900000 1.32356000e-03
198.400000 2.92090000e-03
201.800000 5.19072000e-03
205.000000 8.76836000e-03
210.500000 2.08378000e-02
216.200000 4.87764000e-02
219.800000 8.17603000e-02
223.000000 1.27536000e-01
226.800000 2.12621000e-01
230.000000 3.26288000e+02
234.000000 7.97753000e+02
240.000000 1.32830000e+03
246.500000 2.39328000e+03
252.400000 4.05187000e+03
256.800000 5.11490000e+03
260.000000 9.74648000e+03
264.000000 1.59976000e+04
268.500000 2.39816000e+04
273.500000 3.34947000e+04
278.500000 4.32240000e+04
284.000000 9.05625000e+04
290.000000 1.32120000e+05
296.000000 1.76338000e+05
301.000000 2.33956000e+05
308.000000 5.03516000e+05
318.000000 1.23978000e+06
328.000000 1.83466000e+06
338.000000 3.23961000e+06
348.000000 5.02766000e+06
357.000000 8.69987000e+06
366.000000 1.45592000e+07
375.000000 1.81012000e+07
385.000000 2.56499000e+07
395.000000 3.66794000e+07
405.000000 4.64409000e+07
414.000000 5.88912000e+07
422.000000 6.74958000e+07
430.000000 7.95247000e+07
441.000000 1.00938000e+08
451.000000 1.19386000e+08
460.000000 1.34229000e+08
470.000000 1.61236000e+08
480.000000 1.91406000e+08
490.000000 2.17424000e+08
500.000000 2.62882000e+08
506.000000 8.49096000e+08
512.000000 4.36795000e+09
520.000000 4.14737000e+09
530.000000 3.75603000e+09
540.000000 3.49948000e+09
550.000000 4.10554000e+09
560.000000 5.02494000e+09
570.000000 5.31526000e+09
580.000000 4.86792000e+09
590.000000 5.22843000e+09
600.000000 4.50317000e+09
610.000000 5.30398000e+09
620.000000 6.12852000e+09
630.000000 6.01799000e+09
640.000000 6.00311000e+09
650.000000 5.85718000e+09
658.000000 5.38716000e+09
665.000000 6.10417000e+09
675.000000 6.61407000e+09
685.000000 5.61058000e+09
695.000000 6.93349000e+09
705.000000 5.94103000e+09
716.000000 7.38238000e+09
726.000000 7.27262000e+09
735.000000 7.35990000e+09
745.000000 7.22134000e+09
755.000000 7.24214000e+09
765.000000 7.38363000e+09
775.000000 7.61268000e+09
785.000000 7.87725000e+09
795.000000 7.91100000e+09
805.000000 7.72905000e+09
815.000000 7.73338000e+09
825.000000 8.08892000e+09
835.000000 6.98210000e+09
845.000000 7.91790000e+09
855.000000 7.93836000e+09
865.000000 8.15263000e+09
875.000000 8.23946000e+09
885.000000 8.38571000e+09
895.000000 8.48391000e+09
905.000000 8.32781000e+09
915.000000 1.11441000e+10
925.000000 3.67789000e+10
935.000000 5.12591000e+10
945.000000 5.94988000e+10
955.000000 6.18984000e+10
965.000000 6.55618000e+10
975.000000 3.46498000e+10
985.000000 5.58207000e+10
995.000000 5.29501000e+10
1005.000000 5.46766000e+10
1015.000000 5.59303000e+10
1025.000000 4.88776000e+10
1035.000000 5.38705000e+10
1045.000000 5.92438000e+10
1055.000000 5.72765000e+10
1065.000000 5.18913000e+10
1075.000000 5.30168000e+10
1085.000000 5.00311000e+10
1095.000000 5.22886000e+10
1105.000000 5.04085000e+10
1115.000000 4.94720000e+10
1125.000000 4.32504000e+10
1135.000000 4.80012000e+10
1145.000000 4.60371000e+10
1155.000000 4.49638000e+10
1165.000000 4.40703000e+10
1175.000000 3.21003000e+10
1185.000000 4.06368000e+10
1195.000000 3.99305000e+10
1205.000000 3.82171000e+10
1215.000000 3.26857000e+10
1225.000000 3.75091000e+10
1235.000000 3.90629000e+10
1245.000000 3.75946000e+10
1255.000000 3.75695000e+10
1265.000000 3.79596000e+10
1275.000000 3.80153000e+10
1285.000000 3.77020000e+10
1295.000000 3.54507000e+10
1305.000000 3.53298000e+10
1315.000000 3.61953000e+10
1325.000000 3.50395000e+10
1335.000000 3.40240000e+10
1345.000000 3.41572000e+10
1355.000000 3.33368000e+10
1365.000000 3.24518000e+10
1375.000000 3.17962000e+10
1385.000000 3.10697000e+10
1395.000000 2.62836000e+10
1405.000000 2.66799000e+10
1415.000000 2.93315000e+10
1425.000000 2.71607000e+10
1435.000000 2.80769000e+10
1442.000000 2.80115000e+10
1447.000000 2.77427000e+10
1455.000000 2.67996000e+10
1465.000000 2.63437000e+10
1475.000000 2.61644000e+10
1485.000000 2.60182000e+10
1495.000000 2.52532000e+10
1505.000000 2.48439000e+10
1512.000000 2.43705000e+10
1517.000000 2.43657000e+10
1525.000000 2.37122000e+10
1535.000000 2.14968000e+10
1545.000000 1.94155000e+10
1555.000000 1.92601000e+10
1565.000000 2.05498000e+10
1575.000000 2.12434000e+10
1585.000000 2.12341000e+10
1595.000000 2.09376000e+10
1605.000000 1.97269000e+10
1615.000000 1.91136000e+10
1625.000000 1.92843000e+10
1635.000000 1.93718000e+10
1645.000000 1.89602000e+10
1655.000000 1.92393000e+10
1665.000000 1.88852000e+10
1672.000000 1.78865000e+10
1677.000000 1.96487000e+10
1685.000000 1.89305000e+10
1695.000000 1.84154000e+10
1705.000000 1.81067000e+10
1715.000000 1.74940000e+10
1725.000000 1.70486000e+10
1735.000000 1.74534000e+10
1745.000000 1.71636000e+10
1755.000000 1.68597000e+10
1765.000000 1.66656000e+10
1775.000000 1.63217000e+10
1785.000000 1.63061000e+10
1795.000000 1.59729000e+10
1805.000000 1.59270000e+10
1815.000000 1.55096000e+10
1825.000000 1.53095000e+10
1835.000000 1.52584000e+10
1845.000000 1.45589000e+10
1855.000000 1.44921000e+10
1865.000000 1.44357000e+10
1875.000000 1.42296000e+10
1885.000000 1.36443000e+10
1895.000000 1.33559000e+10
1905.000000 1.35752000e+10
1915.000000 1.32119000e+10
1925.000000 1.26440000e+10
1935.000000 1.30167000e+10
1945.000000 1.30495000e+10
1955.000000 1.22244000e+10
1967.000000 1.25071000e+10
1976.000000 1.26153000e+10
1984.000000 1.22333000e+10
1995.000000 1.18820000e+10
2005.000000 1.20122000e+10
2015.000000 1.19554000e+10
2025.000000 1.18670000e+10
2035.000000 1.15114000e+10
2045.000000 1.13496000e+10
2055.000000 9.71391000e+09
2065.000000 9.47958000e+09
2074.000000 9.87481000e+09
2078.000000 9.83857000e+09
2085.000000 1.04122000e+10
2095.000000 1.04418000e+10
2105.000000 1.04559000e+10
2115.000000 1.04852000e+10
2125.000000 1.03284000e+10
2135.000000 1.02277000e+10
2145.000000 1.00474000e+10
2155.000000 1.00169000e+10
2165.000000 9.73486000e+09
2175.000000 9.74748000e+09
2185.000000 9.54641000e+09
2195.000000 9.54486000e+09
2205.000000 9.40811000e+09
2215.000000 9.18437000e+09
2225.000000 9.13929000e+09
2235.000000 9.00490000e+09
2245.000000 8.89047000e+09
2255.000000 8.69103000e+09
2265.000000 8.66146000e+09
2275.000000 8.55709000e+09
2285.000000 8.40588000e+09
2295.000000 7.86786000e+09
2305.000000 8.11386000e+09
2315.000000 8.06711000e+09
2325.000000 7.98184000e+09
2335.000000 7.86456000e+09
2345.000000 7.77639000e+09
2355.000000 7.66566000e+09
2365.000000 7.56325000e+09
2375.000000 7.44960000e+09
2385.000000 7.24553000e+09
2395.000000 7.21536000e+09
2405.000000 7.16395000e+09
2415.000000 7.06793000e+09
2425.000000 6.99310000e+09
2435.000000 6.88622000e+09
2445.000000 6.80669000e+09
2455.000000 6.71759000e+09
2465.000000 6.63468000e+09
2475.000000 6.54797000e+09
2485.000000 6.42216000e+09
2495.000000 5.36963000e+09
2505.000000 6.21976000e+09
2513.000000 6.03169000e+09
2518.000000 6.10282000e+09
2525.000000 6.14408000e+09
2535.000000 6.07987000e+09
2545.000000 5.97228000e+09
2555.000000 5.90773000e+09
2565.000000 5.84973000e+09
2575.000000 5.77654000e+09
2585.000000 5.70713000e+09
2595.000000 5.62742000e+09
2605.000000 5.58042000e+09
2615.000000 5.49947000e+09
2625.000000 5.44103000e+09
2635.000000 5.37583000e+09
2645.000000 5.30429000e+09
2655.000000 5.24170000e+09
2665.000000 5.15958000e+09
2675.000000 5.08053000e+09
2685.000000 5.05624000e+09
2695.000000 4.96500000e+09
2705.000000 4.92439000e+09
2715.000000 4.86156000e+09
2725.000000 4.80017000e+09
2735.000000 4.70837000e+09
2745.000000 4.70468000e+09
2755.000000 4.65019000e+09
2765.000000 4.57566000e+09
2775.000000 4.54837000e+09
2785.000000 4.48735000e+09
2795.000000 4.38706000e+09
2805.000000 4.37283000e+09
2815.000000 4.33802000e+09
2825.000000 4.27215000e+09
2835.000000 4.21440000e+09
2845.000000 4.19121000e+09
2855.000000 4.13865000e+09
2865.000000 4.08810000e+09
2875.000000 4.04399000e+09
2885.000000 3.99943000e+09
2895.000000 3.95365000e+09
2910.000000 3.87954000e+09
2930.000000 3.80122000e+09
2950.000000 3.70067000e+09
2970.000000 3.62892000e+09
2990.000000 3.53966000e+09
3010.000000 3.45868000e+09
3030.000000 3.38104000e+09
3050.000000 3.31587000e+09
3070.000000 3.25150000e+09
3090.000000 3.16508000e+09
3110.000000 3.11196000e+09
3130.000000 3.04340000e+09
3150.000000 2.97841000e+09
3170.000000 2.91546000e+09
3190.000000 2.84828000e+09
3210.000000 2.78431000e+09
3230.000000 2.73842000e+09
3250.000000 2.68645000e+09
3270.000000 2.62307000e+09
3290.000000 2.57374000e+09
3310.000000 2.52251000e+09
3330.000000 2.46798000e+09
3350.000000 2.41463000e+09
3370.000000 2.36983000e+09
3390.000000 2.32831000e+09
3410.000000 2.28180000e+09
3430.000000 2.23382000e+09
3450.000000 2.18365000e+09
3470.000000 2.14538000e+09
3490.000000 2.10323000e+09
3510.000000 2.06667000e+09
3530.000000 2.02818000e+09
3550.000000 1.98859000e+09
3570.000000 1.95490000e+09
3590.000000 1.91029000e+09
3610.000000 1.87499000e+09
3630.000000 1.83866000e+09
3640.000000 1.82084000e+09
3650.000000 1.75124000e+09
3670.000000 1.72348000e+09
3690.000000 1.68799000e+09
3710.000000 1.64817000e+09
3730.000000 1.61231000e+09
3750.000000 1.65126000e+09
3770.000000 1.63267000e+09
3790.000000 1.64429000e+09
3810.000000 1.66600000e+09
3830.000000 1.54584000e+09
3850.000000 1.63834000e+09
3870.000000 1.60488000e+09
3890.000000 1.47183000e+09
3910.000000 1.56748000e+09
3930.000000 1.52664000e+09
3950.000000 1.50578000e+09
3970.000000 1.36196000e+09
3990.000000 1.45885000e+09
4010.000000 1.43016000e+09
4030.000000 1.38742000e+09
4050.000000 1.38693000e+09
4070.000000 1.35091000e+09
4090.000000 1.30672000e+09
4110.000000 1.21988000e+09
4130.000000 1.28348000e+09
4150.000000 1.26409000e+09
4170.000000 1.24966000e+09
4190.000000 1.22784000e+09
4210.000000 1.20557000e+09
4230.000000 1.19035000e+09
4250.000000 1.16699000e+09
4270.000000 1.14371000e+09
4290.000000 1.12816000e+09
4310.000000 1.10647000e+09
4330.000000 1.06710000e+09
4350.000000 1.00346000e+09
4370.000000 1.05493000e+09
4390.000000 1.03172000e+09
4410.000000 1.02037000e+09
4430.000000 1.00761000e+09
4450.000000 9.91777000e+08
4470.000000 9.62106000e+08
4490.000000 9.60599000e+08
4510.000000 9.44301000e+08
4530.000000 9.30914000e+08
4550.000000 9.12285000e+08
4570.000000 9.02207000e+08
4590.000000 8.86780000e+08
4610.000000 8.73394000e+08
4630.000000 8.57816000e+08
4650.000000 8.28221000e+08
4670.000000 8.31731000e+08
4690.000000 8.11653000e+08
4710.000000 8.01650000e+08
4730.000000 7.98354000e+08
4750.000000 7.85734000e+08
4770.000000 7.75268000e+08
4790.000000 7.63570000e+08
4810.000000 7.51730000e+08
4830.000000 7.39752000e+08
4850.000000 7.18449000e+08
4870.000000 6.68417000e+08
4890.000000 7.07641000e+08
4910.000000 6.97450000e+08
4930.000000 6.80363000e+08
4950.000000 6.76260000e+08
4970.000000 6.68114000e+08
4990.000000 6.58396000e+08
5010.000000 6.42914000e+08
5030.000000 6.39062000e+08
5050.000000 6.28338000e+08
5070.000000 6.21412000e+08
5090.000000 6.12466000e+08
5110.000000 6.03772000e+08
5130.000000 5.94965000e+08
5150.000000 5.86574000e+08
5170.000000 5.78408000e+08
5190.000000 5.70519000e+08
5210.000000 5.62663000e+08
5230.000000 5.54815000e+08
5250.000000 5.46741000e+08
5270.000000 5.39154000e+08
5290.000000 5.32163000e+08
5310.000000 5.24822000e+08
5330.000000 5.17682000e+08
5350.000000 5.10659000e+08
5370.000000 5.03740000e+08
5390.000000 4.96819000e+08
5410.000000 4.87965000e+08
5430.000000 4.83649000e+08
5450.000000 4.77125000e+08
5470.000000 4.70734000e+08
5490.000000 4.64473000e+08
5510.000000 4.58303000e+08
5530.000000 4.52247000e+08
5550.000000 4.46376000e+08
5570.000000 4.40432000e+08
5590.000000 4.34332000e+08
5610.000000 4.29050000e+08
5630.000000 4.23476000e+08
5650.000000 4.17934000e+08
5670.000000 4.12284000e+08
5690.000000 4.04387000e+08
5710.000000 3.96094000e+08
5730.000000 3.91165000e+08
5750.000000 3.85999000e+08
5770.000000 3.81494000e+08
5790.000000 3.76751000e+08
5810.000000 3.72141000e+08
5830.000000 3.67708000e+08
5850.000000 3.63921000e+08
5870.000000 3.53869000e+08
5890.000000 3.55542000e+08
5910.000000 3.51910000e+08
5930.000000 3.48073000e+08
5950.000000 3.44502000e+08
5970.000000 3.41109000e+08
5990.000000 3.36746000e+08
6010.000000 3.32745000e+08
6030.000000 3.28563000e+08
6050.000000 3.24603000e+08
6070.000000 3.20730000e+08
6090.000000 3.16879000e+08
6110.000000 3.13002000e+08
6130.000000 3.09238000e+08
6150.000000 3.05388000e+08
6170.000000 3.01699000e+08
6190.000000 2.98278000e+08
6210.000000 2.94748000e+08
6230.000000 2.91111000e+08
6250.000000 2.87737000e+08
6270.000000 2.84371000e+08
6290.000000 2.81042000e+08
6310.000000 2.77503000e+08
6330.000000 2.74483000e+08
6350.000000 2.71234000e+08
6370.000000 2.68122000e+08
6390.000000 2.64998000e+08
6410.000000 2.61706000e+08
6430.000000 2.58914000e+08
6450.000000 2.55907000e+08
6470.000000 2.52842000e+08
6490.000000 2.49990000e+08
6510.000000 2.47220000e+08
6530.000000 2.43994000e+08
6550.000000 2.39477000e+08
6570.000000 2.21186000e+08
6590.000000 2.35555000e+08
6610.000000 2.33494000e+08
6630.000000 2.30930000e+08
6650.000000 2.28342000e+08
6670.000000 2.24384000e+08
6690.000000 2.21697000e+08
6710.000000 2.20687000e+08
6730.000000 2.18180000e+08
6750.000000 2.15888000e+08
6770.000000 2.13603000e+08
6790.000000 2.11097000e+08
6810.000000 2.08941000e+08
6830.000000 2.06645000e+08
6850.000000 2.04412000e+08
6870.000000 2.02178000e+08
6890.000000 1.99625000e+08
6910.000000 1.97722000e+08
6930.000000 1.95711000e+08
6950.000000 1.93612000e+08
6970.000000 1.91533000e+08
6990.000000 1.89482000e+08
7010.000000 1.87437000e+08
7030.000000 1.85343000e+08
7050.000000 1.83459000e+08
7070.000000 1.79551000e+08
7090.000000 1.79641000e+08
7110.000000 1.77722000e+08
7130.000000 1.75867000e+08
7150.000000 1.74045000e+08
7170.000000 1.71998000e+08
7190.000000 1.70372000e+08
7210.000000 1.68660000e+08
7230.000000 1.66373000e+08
7250.000000 1.65105000e+08
7270.000000 1.63478000e+08
7290.000000 1.60909000e+08
7310.000000 1.60115000e+08
7330.000000 1.58492000e+08
7350.000000 1.56877000e+08
7370.000000 1.55285000e+08
7390.000000 1.53707000e+08
7410.000000 1.52145000e+08
7430.000000 1.50610000e+08
7450.000000 1.49090000e+08
7470.000000 1.47516000e+08
7490.000000 1.46024000e+08
7510.000000 1.44626000e+08
7530.000000 1.43201000e+08
7550.000000 1.41789000e+08
7570.000000 1.40371000e+08
7590.000000 1.38729000e+08
7610.000000 1.37546000e+08
7630.000000 1.36243000e+08
7650.000000 1.34901000e+08
7670.000000 1.33590000e+08
7690.000000 1.32233000e+08
7710.000000 1.30965000e+08
7730.000000 1.29645000e+08
7750.000000 1.28450000e+08
7770.000000 1.27203000e+08
7790.000000 1.25980000e+08
7810.000000 1.24718000e+08
7830.000000 1.23559000e+08
7850.000000 1.22429000e+08
7870.000000 1.21211000e+08
7890.000000 1.20017000e+08
7910.000000 1.18947000e+08
7930.000000 1.17797000e+08
7950.000000 1.16704000e+08
7970.000000 1.15538000e+08
7990.000000 1.14488000e+08
8010.000000 1.13353000e+08
8030.000000 1.12275000e+08
8050.000000 1.11253000e+08
8070.000000 1.10222000e+08
8090.000000 1.09091000e+08
8110.000000 1.07975000e+08
8130.000000 1.07188000e+08
8150.000000 1.06067000e+08
8170.000000 1.05209000e+08
8190.000000 1.04073000e+08
8210.000000 1.02465000e+08
8230.000000 1.01490000e+08
8250.000000 1.00777000e+08
8270.000000 9.95352000e+07
8290.000000 9.89020000e+07
8310.000000 9.80337000e+07
8330.000000 9.70912000e+07
8350.000000 9.59621000e+07
8370.000000 9.52674000e+07
8390.000000 9.44980000e+07
8410.000000 9.36336000e+07
8430.000000 9.27551000e+07
8450.000000 9.16518000e+07
8470.000000 9.09569000e+07
8490.000000 9.03721000e+07
8510.000000 8.90062000e+07
8530.000000 8.89570000e+07
8550.000000 8.68870000e+07
8570.000000 8.80515000e+07
8590.000000 8.53956000e+07
8610.000000 8.47604000e+07
8630.000000 8.62143000e+07
8650.000000 8.46027000e+07
8670.000000 8.03888000e+07
8690.000000 8.41499000e+07
8710.000000 8.38483000e+07
8730.000000 8.22584000e+07
8750.000000 7.67655000e+07
8770.000000 8.04322000e+07
8790.000000 8.11734000e+07
8810.000000 8.05529000e+07
8830.000000 7.97101000e+07
8850.000000 7.70125000e+07
8870.000000 7.27392000e+07
8890.000000 7.74603000e+07
8910.000000 7.71604000e+07
8930.000000 7.64703000e+07
8950.000000 7.58938000e+07
8970.000000 7.52982000e+07
8990.000000 7.39800000e+07
9010.000000 6.87421000e+07
9030.000000 7.10622000e+07
9050.000000 7.26113000e+07
9070.000000 7.17740000e+07
9090.000000 7.14266000e+07
9110.000000 7.09635000e+07
9130.000000 7.03863000e+07
9150.000000 6.98045000e+07
9170.000000 6.91195000e+07
9190.000000 6.85826000e+07
9210.000000 6.68771000e+07
9230.000000 6.16835000e+07
9250.000000 6.60358000e+07
9270.000000 6.63035000e+07
9290.000000 6.58438000e+07
9310.000000 6.51526000e+07
9330.000000 6.47351000e+07
9350.000000 6.40404000e+07
9370.000000 6.37073000e+07
9390.000000 6.32097000e+07
9410.000000 6.26818000e+07
9430.000000 6.21790000e+07
9450.000000 6.16840000e+07
9470.000000 6.09869000e+07
9490.000000 6.06799000e+07
9510.000000 5.97751000e+07
9530.000000 5.84460000e+07
9550.000000 5.41162000e+07
9570.000000 5.82258000e+07
9590.000000 5.82536000e+07
9610.000000 5.77380000e+07
9630.000000 5.71938000e+07
9650.000000 5.69246000e+07
9670.000000 5.64758000e+07
9690.000000 5.60022000e+07
9710.000000 5.51764000e+07
9730.000000 5.51090000e+07
9750.000000 5.47167000e+07
9770.000000 5.42798000e+07
9790.000000 5.38617000e+07
9810.000000 5.34309000e+07
9830.000000 5.30226000e+07
9850.000000 5.26056000e+07
9870.000000 5.21954000e+07
9890.000000 5.17766000e+07
9910.000000 5.13069000e+07
9930.000000 5.10011000e+07
9950.000000 5.06098000e+07
9970.000000 5.02099000e+07
9990.000000 4.98354000e+07
10025.000000 4.82136000e+07
10075.000000 4.68121000e+07
10125.000000 4.70969000e+07
10175.000000 4.64386000e+07
10225.000000 4.55568000e+07
10275.000000 4.47220000e+07
10325.000000 4.37845000e+07
10375.000000 4.30870000e+07
10425.000000 4.22865000e+07
10475.000000 4.15233000e+07
10525.000000 4.07658000e+07
10575.000000 4.00275000e+07
10625.000000 3.93079000e+07
10675.000000 3.85637000e+07
10725.000000 3.79135000e+07
10775.000000 3.72379000e+07
10825.000000 3.62967000e+07
10875.000000 3.59255000e+07
10925.000000 3.37131000e+07
10975.000000 3.44356000e+07
11025.000000 3.39752000e+07
11075.000000 3.34879000e+07
11125.000000 3.29136000e+07
11175.000000 3.23513000e+07
11225.000000 3.17856000e+07
11275.000000 3.12554000e+07
11325.000000 3.07186000e+07
11375.000000 3.02017000e+07
11425.000000 2.96955000e+07
11475.000000 2.91998000e+07
11525.000000 2.87116000e+07
11575.000000 2.82335000e+07
11625.000000 2.77361000e+07
11675.000000 2.72903000e+07
11725.000000 2.68630000e+07
11775.000000 2.64234000e+07
11825.000000 2.59916000e+07
11875.000000 2.55715000e+07
11925.000000 2.51585000e+07
11975.000000 2.46181000e+07
12025.000000 2.43576000e+07
12075.000000 2.39687000e+07
12125.000000 2.35859000e+07
12175.000000 2.32144000e+07
12225.000000 2.28482000e+07
12275.000000 2.24894000e+07
12325.000000 2.21372000e+07
12375.000000 2.17921000e+07
12425.000000 2.14541000e+07
12475.000000 2.11210000e+07
12525.000000 2.07668000e+07
12575.000000 2.04755000e+07
12625.000000 2.01628000e+07
12675.000000 1.98570000e+07
12725.000000 1.95557000e+07
12775.000000 1.90869000e+07
12825.000000 1.81282000e+07
12875.000000 1.86599000e+07
12925.000000 1.84056000e+07
12975.000000 1.80615000e+07
13025.000000 1.78596000e+07
13075.000000 1.75983000e+07
