# Kurucz ODFNEW /NOVER, alpha: 0.0 (2003)
# teff = 22000 K (value for the effective temperature for the model. Temperatures are given in K)
# logg = 5 log(cm/s2) (value for Log(G) for the model.)
# lh = 1.25  (l/Hp where l is the  mixing length of the convective element and Hp is the pressure scale height)
# meta = -1.5  (value for the Metallicity for the model.)
# vtur = 2 km/s (Microturbulence velocity)
# alpha = 0  (Alpha)
#
# column 1: WAVELENGTH (ANGSTROM), Wavelength in Angstrom
# column 2: FLUX (ERG/CM2/S/A), Flux in erg/cm2/s/A
147.200000 1.27000000e-17
151.000000 7.07725000e-17
155.200000 4.30141000e-16
158.800000 1.87622000e-15
162.000000 6.59320000e-15
166.000000 2.97066000e-14
170.300000 1.38808000e-13
173.400000 4.02921000e-13
176.800000 1.24366000e-12
180.200000 3.68295000e-12
181.700000 5.87113000e-12
186.100000 2.21122000e-11
191.000000 9.02288000e-11
193.900000 2.00573000e-10
198.400000 6.62258000e-10
201.800000 1.57775000e-09
205.000000 3.48106000e-09
210.500000 1.28160000e-08
216.200000 4.61409000e-08
219.800000 1.00163000e-07
223.000000 1.95277000e-07
226.800000 4.21037000e-07
230.000000 1.42075000e-06
234.000000 3.30268000e-06
240.000000 9.60006000e-06
246.500000 2.85761000e-05
252.400000 7.34112000e-05
256.800000 1.42400000e-04
260.000000 2.31142000e-04
264.000000 4.11356000e-04
268.500000 7.69321000e-04
273.500000 1.50405000e-03
278.500000 2.87207000e-03
284.000000 5.68999000e-03
290.000000 1.16280000e-02
296.000000 2.30305000e-02
301.000000 3.98747000e-02
308.000000 8.27014000e-02
318.000000 2.24840000e-01
328.000000 5.69345000e-01
338.000000 1.36049000e+00
348.000000 3.08311000e+00
357.000000 6.17256000e+00
366.000000 1.19252000e+01
375.000000 2.22493000e+01
385.000000 4.28998000e+01
395.000000 7.97742000e+01
405.000000 1.43542000e+02
414.000000 2.37253000e+02
422.000000 3.63520000e+02
430.000000 5.47225000e+02
441.000000 9.36201000e+02
451.000000 1.48707000e+03
460.000000 2.21266000e+03
470.000000 3.37402000e+03
480.000000 5.04448000e+03
490.000000 7.40765000e+03
500.000000 1.06898000e+04
506.000000 6.68821000e+04
512.000000 2.09689000e+05
520.000000 2.68253000e+05
530.000000 3.78835000e+05
540.000000 4.30810000e+05
550.000000 6.06391000e+05
560.000000 7.43812000e+05
570.000000 9.23051000e+05
580.000000 9.73102000e+05
590.000000 1.29155000e+06
600.000000 1.60696000e+06
610.000000 1.92465000e+06
620.000000 2.26067000e+06
630.000000 2.66511000e+06
640.000000 3.06221000e+06
650.000000 3.58655000e+06
658.000000 4.05379000e+06
665.000000 4.45737000e+06
675.000000 5.04729000e+06
685.000000 5.74594000e+06
695.000000 6.63899000e+06
705.000000 7.48358000e+06
716.000000 8.51113000e+06
726.000000 9.52552000e+06
735.000000 1.05768000e+07
745.000000 1.18240000e+07
755.000000 1.31506000e+07
765.000000 1.45291000e+07
775.000000 1.60778000e+07
785.000000 1.76980000e+07
795.000000 1.93722000e+07
805.000000 2.11920000e+07
815.000000 2.30776000e+07
825.000000 2.51729000e+07
835.000000 2.69953000e+07
845.000000 2.94809000e+07
855.000000 3.17117000e+07
865.000000 3.43647000e+07
875.000000 3.70015000e+07
885.000000 3.98232000e+07
895.000000 4.26514000e+07
905.000000 4.50097000e+07
915.000000 6.44723000e+07
925.000000 2.31161000e+08
935.000000 5.89124000e+08
945.000000 2.68782000e+09
955.000000 6.91230000e+09
965.000000 1.00398000e+10
975.000000 2.76254000e+09
985.000000 1.71388000e+10
995.000000 1.89829000e+10
1005.000000 1.95521000e+10
1015.000000 1.34873000e+10
1025.000000 1.61359000e+09
1035.000000 1.06190000e+10
1045.000000 1.93301000e+10
1055.000000 1.97658000e+10
1065.000000 1.80279000e+10
1075.000000 1.91529000e+10
1085.000000 1.76469000e+10
1095.000000 1.86378000e+10
1105.000000 1.75069000e+10
1115.000000 1.73579000e+10
1125.000000 1.62509000e+10
1135.000000 1.66843000e+10
1145.000000 1.55577000e+10
1155.000000 1.59669000e+10
1165.000000 1.57315000e+10
1175.000000 1.34958000e+10
1185.000000 1.47373000e+10
1195.000000 1.26764000e+10
1205.000000 8.29439000e+09
1215.000000 1.40948000e+09
1225.000000 7.38132000e+09
1235.000000 1.20202000e+10
1245.000000 1.27097000e+10
1255.000000 1.25529000e+10
1265.000000 1.23411000e+10
1275.000000 1.24405000e+10
1285.000000 1.22209000e+10
1295.000000 1.10773000e+10
1305.000000 1.08673000e+10
1315.000000 1.14682000e+10
1325.000000 1.10343000e+10
1335.000000 1.05251000e+10
1345.000000 1.06878000e+10
1355.000000 1.05823000e+10
1365.000000 1.02307000e+10
1375.000000 1.00597000e+10
1385.000000 9.91283000e+09
1395.000000 9.41173000e+09
1405.000000 9.38930000e+09
1415.000000 9.30579000e+09
1425.000000 9.17954000e+09
1435.000000 9.02607000e+09
1442.000000 8.97053000e+09
1447.000000 8.86654000e+09
1455.000000 8.71770000e+09
1465.000000 8.50080000e+09
1475.000000 8.36376000e+09
1485.000000 8.16574000e+09
1495.000000 8.03680000e+09
1505.000000 7.77784000e+09
1512.000000 7.60580000e+09
1517.000000 7.60976000e+09
1525.000000 7.48737000e+09
1535.000000 7.18116000e+09
1545.000000 7.18951000e+09
1555.000000 6.95166000e+09
1565.000000 6.94817000e+09
1575.000000 6.91048000e+09
1585.000000 6.79207000e+09
1595.000000 6.71087000e+09
1605.000000 6.50539000e+09
1615.000000 6.39836000e+09
1625.000000 6.34339000e+09
1635.000000 6.28027000e+09
1645.000000 6.14428000e+09
1655.000000 6.02597000e+09
1665.000000 6.01495000e+09
1672.000000 5.83263000e+09
1677.000000 5.90118000e+09
1685.000000 5.82511000e+09
1695.000000 5.69666000e+09
1705.000000 5.56562000e+09
1715.000000 5.43532000e+09
1725.000000 5.34464000e+09
1735.000000 5.31437000e+09
1745.000000 5.20823000e+09
1755.000000 5.17730000e+09
1765.000000 4.94296000e+09
1775.000000 4.96419000e+09
1785.000000 4.90553000e+09
1795.000000 4.86856000e+09
1805.000000 4.80506000e+09
1815.000000 4.69233000e+09
1825.000000 4.64693000e+09
1835.000000 4.56576000e+09
1845.000000 4.40186000e+09
1855.000000 4.28829000e+09
1865.000000 4.26810000e+09
1875.000000 4.28559000e+09
1885.000000 4.11058000e+09
1895.000000 3.98800000e+09
1905.000000 4.05005000e+09
1915.000000 3.91992000e+09
1925.000000 3.85328000e+09
1935.000000 3.85159000e+09
1945.000000 3.85042000e+09
1955.000000 3.69551000e+09
1967.000000 3.72845000e+09
1976.000000 3.72979000e+09
1984.000000 3.62377000e+09
1995.000000 3.52268000e+09
2005.000000 3.54236000e+09
2015.000000 3.51824000e+09
2025.000000 3.49598000e+09
2035.000000 3.41112000e+09
2045.000000 3.36604000e+09
2055.000000 3.27074000e+09
2065.000000 3.25769000e+09
2074.000000 3.27537000e+09
2078.000000 3.20257000e+09
2085.000000 3.19852000e+09
2095.000000 3.12248000e+09
2105.000000 3.12001000e+09
2115.000000 3.08982000e+09
2125.000000 3.06856000e+09
2135.000000 3.02079000e+09
2145.000000 2.96960000e+09
2155.000000 2.94495000e+09
2165.000000 2.90438000e+09
2175.000000 2.86476000e+09
2185.000000 2.83189000e+09
2195.000000 2.80239000e+09
2205.000000 2.76192000e+09
2215.000000 2.72537000e+09
2225.000000 2.68509000e+09
2235.000000 2.65765000e+09
2245.000000 2.62723000e+09
2255.000000 2.58916000e+09
2265.000000 2.56385000e+09
2275.000000 2.53030000e+09
2285.000000 2.50394000e+09
2295.000000 2.45392000e+09
2305.000000 2.43905000e+09
2315.000000 2.40460000e+09
2325.000000 2.37859000e+09
2335.000000 2.33822000e+09
2345.000000 2.29846000e+09
2355.000000 2.28998000e+09
2365.000000 2.25180000e+09
2375.000000 2.23187000e+09
2385.000000 2.19320000e+09
2395.000000 2.17413000e+09
2405.000000 2.14834000e+09
2415.000000 2.12212000e+09
2425.000000 2.10940000e+09
2435.000000 2.07870000e+09
2445.000000 2.05587000e+09
2455.000000 2.03778000e+09
2465.000000 2.00888000e+09
2475.000000 1.98831000e+09
2485.000000 1.96600000e+09
2495.000000 1.92467000e+09
2505.000000 1.92062000e+09
2513.000000 1.88777000e+09
2518.000000 1.89353000e+09
2525.000000 1.87383000e+09
2535.000000 1.84682000e+09
2545.000000 1.82798000e+09
2555.000000 1.81727000e+09
2565.000000 1.79294000e+09
2575.000000 1.77813000e+09
2585.000000 1.75792000e+09
2595.000000 1.73723000e+09
2605.000000 1.72559000e+09
2615.000000 1.70933000e+09
2625.000000 1.69278000e+09
2635.000000 1.67263000e+09
2645.000000 1.66167000e+09
2655.000000 1.64138000e+09
2665.000000 1.61699000e+09
2675.000000 1.59887000e+09
2685.000000 1.59247000e+09
2695.000000 1.56070000e+09
2705.000000 1.55804000e+09
2715.000000 1.54025000e+09
2725.000000 1.50902000e+09
2735.000000 1.50884000e+09
2745.000000 1.48001000e+09
2755.000000 1.46730000e+09
2765.000000 1.44547000e+09
2775.000000 1.44716000e+09
2785.000000 1.43091000e+09
2795.000000 1.39228000e+09
2805.000000 1.39205000e+09
2815.000000 1.38821000e+09
2825.000000 1.35659000e+09
2835.000000 1.34188000e+09
2845.000000 1.34443000e+09
2855.000000 1.33142000e+09
2865.000000 1.31870000e+09
2875.000000 1.30489000e+09
2885.000000 1.29193000e+09
2895.000000 1.27897000e+09
2910.000000 1.25972000e+09
2930.000000 1.23346000e+09
2950.000000 1.19900000e+09
2970.000000 1.18636000e+09
2990.000000 1.16254000e+09
3010.000000 1.14045000e+09
3030.000000 1.11875000e+09
3050.000000 1.09720000e+09
3070.000000 1.07620000e+09
3090.000000 1.05545000e+09
3110.000000 1.03568000e+09
3130.000000 1.01722000e+09
3150.000000 9.98233000e+08
3170.000000 9.79491000e+08
3190.000000 9.51995000e+08
3210.000000 9.43240000e+08
3230.000000 9.25782000e+08
3250.000000 9.08752000e+08
3270.000000 8.93265000e+08
3290.000000 8.76034000e+08
3310.000000 8.61491000e+08
3330.000000 8.46112000e+08
3350.000000 8.29694000e+08
3370.000000 8.16392000e+08
3390.000000 8.02067000e+08
3410.000000 7.88054000e+08
3430.000000 7.71878000e+08
3450.000000 7.56213000e+08
3470.000000 7.45049000e+08
3490.000000 7.32358000e+08
3510.000000 7.20550000e+08
3530.000000 7.09264000e+08
3550.000000 6.97349000e+08
3570.000000 6.89528000e+08
3590.000000 6.73244000e+08
3610.000000 6.64562000e+08
3630.000000 6.51255000e+08
3640.000000 6.50468000e+08
3650.000000 6.42016000e+08
3670.000000 6.34311000e+08
3690.000000 6.24078000e+08
3710.000000 6.03983000e+08
3730.000000 5.78163000e+08
3750.000000 5.81898000e+08
3770.000000 5.73593000e+08
3790.000000 6.14292000e+08
3810.000000 6.52005000e+08
3830.000000 5.56250000e+08
3850.000000 6.86996000e+08
3870.000000 7.16915000e+08
3890.000000 5.17763000e+08
3910.000000 7.10256000e+08
3930.000000 7.19681000e+08
3950.000000 6.91236000e+08
3970.000000 4.84557000e+08
3990.000000 6.57474000e+08
4010.000000 6.75930000e+08
4030.000000 6.23030000e+08
4050.000000 6.67146000e+08
4070.000000 6.48074000e+08
4090.000000 5.55610000e+08
4110.000000 4.70374000e+08
4130.000000 6.02192000e+08
4150.000000 6.06617000e+08
4170.000000 6.05210000e+08
4190.000000 5.98416000e+08
4210.000000 5.89513000e+08
4230.000000 5.79720000e+08
4250.000000 5.69688000e+08
4270.000000 5.57649000e+08
4290.000000 5.48183000e+08
4310.000000 5.30391000e+08
4330.000000 4.46154000e+08
4350.000000 4.01606000e+08
4370.000000 5.01427000e+08
4390.000000 4.83694000e+08
4410.000000 4.99191000e+08
4430.000000 4.89760000e+08
4450.000000 4.84436000e+08
4470.000000 4.43872000e+08
4490.000000 4.68275000e+08
4510.000000 4.63834000e+08
4530.000000 4.56627000e+08
4550.000000 4.49637000e+08
4570.000000 4.42788000e+08
4590.000000 4.36130000e+08
4610.000000 4.29500000e+08
4630.000000 4.22986000e+08
4650.000000 4.16480000e+08
4670.000000 4.10467000e+08
4690.000000 4.04422000e+08
4710.000000 3.91604000e+08
4730.000000 3.92122000e+08
4750.000000 3.86105000e+08
4770.000000 3.80721000e+08
4790.000000 3.74232000e+08
4810.000000 3.67137000e+08
4830.000000 3.55835000e+08
4850.000000 3.08366000e+08
4870.000000 2.70750000e+08
4890.000000 3.36758000e+08
4910.000000 3.39771000e+08
4930.000000 3.25549000e+08
4950.000000 3.33748000e+08
4970.000000 3.29817000e+08
4990.000000 3.25151000e+08
5010.000000 3.15116000e+08
5030.000000 3.15980000e+08
5050.000000 3.08976000e+08
5070.000000 3.07423000e+08
5090.000000 3.03165000e+08
5110.000000 2.98979000e+08
5130.000000 2.94848000e+08
5150.000000 2.90801000e+08
5170.000000 2.86907000e+08
5190.000000 2.83008000e+08
5210.000000 2.79049000e+08
5230.000000 2.75417000e+08
5250.000000 2.71724000e+08
5270.000000 2.68064000e+08
5290.000000 2.64507000e+08
5310.000000 2.60995000e+08
5330.000000 2.57515000e+08
5350.000000 2.54079000e+08
5370.000000 2.50792000e+08
5390.000000 2.47508000e+08
5410.000000 2.44266000e+08
5430.000000 2.41039000e+08
5450.000000 2.37941000e+08
5470.000000 2.34870000e+08
5490.000000 2.31849000e+08
5510.000000 2.28866000e+08
5530.000000 2.25932000e+08
5550.000000 2.23060000e+08
5570.000000 2.20210000e+08
5590.000000 2.17431000e+08
5610.000000 2.14663000e+08
5630.000000 2.11987000e+08
5650.000000 2.09250000e+08
5670.000000 2.06640000e+08
5690.000000 2.04073000e+08
5710.000000 2.01583000e+08
5730.000000 1.99076000e+08
5750.000000 1.96611000e+08
5770.000000 1.94198000e+08
5790.000000 1.91814000e+08
5810.000000 1.89469000e+08
5830.000000 1.87152000e+08
5850.000000 1.84872000e+08
5870.000000 1.75360000e+08
5890.000000 1.79655000e+08
5910.000000 1.78247000e+08
5930.000000 1.76115000e+08
5950.000000 1.73986000e+08
5970.000000 1.71923000e+08
5990.000000 1.69864000e+08
6010.000000 1.67859000e+08
6030.000000 1.65877000e+08
6050.000000 1.63928000e+08
6070.000000 1.61991000e+08
6090.000000 1.60095000e+08
6110.000000 1.58232000e+08
6130.000000 1.56389000e+08
6150.000000 1.54556000e+08
6170.000000 1.52774000e+08
6190.000000 1.51012000e+08
6210.000000 1.49279000e+08
6230.000000 1.47565000e+08
6250.000000 1.45870000e+08
6270.000000 1.44212000e+08
6290.000000 1.42573000e+08
6310.000000 1.40951000e+08
6330.000000 1.39357000e+08
6350.000000 1.37705000e+08
6370.000000 1.36201000e+08
6390.000000 1.34713000e+08
6410.000000 1.33195000e+08
6430.000000 1.31721000e+08
6450.000000 1.30263000e+08
6470.000000 1.28784000e+08
6490.000000 1.27052000e+08
6510.000000 1.25286000e+08
6530.000000 1.22611000e+08
6550.000000 1.13039000e+08
6570.000000 9.87712000e+07
6590.000000 1.16754000e+08
6610.000000 1.18256000e+08
6630.000000 1.17535000e+08
6650.000000 1.16497000e+08
6670.000000 1.13784000e+08
6690.000000 1.12684000e+08
6710.000000 1.13034000e+08
6730.000000 1.11822000e+08
6750.000000 1.10631000e+08
6770.000000 1.09461000e+08
6790.000000 1.08278000e+08
6810.000000 1.07147000e+08
6830.000000 1.06020000e+08
6850.000000 1.04904000e+08
6870.000000 1.03807000e+08
6890.000000 1.02721000e+08
6910.000000 1.01646000e+08
6930.000000 1.00590000e+08
6950.000000 9.95513000e+07
6970.000000 9.85155000e+07
6990.000000 9.74976000e+07
7010.000000 9.64974000e+07
7030.000000 9.55070000e+07
7050.000000 9.45263000e+07
7070.000000 9.19497000e+07
7090.000000 9.26083000e+07
7110.000000 9.16707000e+07
7130.000000 9.07422000e+07
7150.000000 8.98226000e+07
7170.000000 8.89118000e+07
7190.000000 8.80243000e+07
7210.000000 8.71453000e+07
7230.000000 8.61522000e+07
7250.000000 8.54123000e+07
7270.000000 8.45581000e+07
7290.000000 8.30244000e+07
7310.000000 8.28809000e+07
7330.000000 8.20716000e+07
7350.000000 8.12630000e+07
7370.000000 8.04688000e+07
7390.000000 7.96751000e+07
7410.000000 7.89025000e+07
7430.000000 7.81303000e+07
7450.000000 7.73788000e+07
7470.000000 7.66274000e+07
7490.000000 7.58897000e+07
7510.000000 7.51320000e+07
7530.000000 7.44278000e+07
7550.000000 7.37168000e+07
7570.000000 7.30056000e+07
7590.000000 7.23075000e+07
7610.000000 7.16222000e+07
7630.000000 7.09366000e+07
7650.000000 7.02636000e+07
7670.000000 6.96031000e+07
7690.000000 6.89421000e+07
7710.000000 6.82933000e+07
7730.000000 6.76504000e+07
7750.000000 6.70194000e+07
7770.000000 6.63566000e+07
7790.000000 6.57680000e+07
7810.000000 6.51289000e+07
7830.000000 6.45509000e+07
7850.000000 6.40023000e+07
7870.000000 6.34098000e+07
7890.000000 6.27982000e+07
7910.000000 6.22523000e+07
7930.000000 6.16810000e+07
7950.000000 6.11088000e+07
7970.000000 6.05297000e+07
7990.000000 5.99910000e+07
8010.000000 5.94628000e+07
8030.000000 5.89216000e+07
8050.000000 5.83676000e+07
8070.000000 5.78374000e+07
8090.000000 5.72444000e+07
8110.000000 5.67654000e+07
8130.000000 5.62767000e+07
8150.000000 5.57263000e+07
8170.000000 5.52754000e+07
8190.000000 5.47177000e+07
8210.000000 5.41535000e+07
8230.000000 5.37777000e+07
8250.000000 5.33258000e+07
8270.000000 5.26831000e+07
8290.000000 5.23892000e+07
8310.000000 5.19595000e+07
8330.000000 5.14817000e+07
8350.000000 5.08523000e+07
8370.000000 5.05445000e+07
8390.000000 5.01727000e+07
8410.000000 4.97346000e+07
8430.000000 4.92752000e+07
8450.000000 4.85832000e+07
8470.000000 4.84134000e+07
8490.000000 4.79065000e+07
8510.000000 4.75146000e+07
8530.000000 4.70549000e+07
8550.000000 4.64382000e+07
8570.000000 4.64910000e+07
8590.000000 4.51148000e+07
8610.000000 4.50345000e+07
8630.000000 4.55665000e+07
8650.000000 4.43184000e+07
8670.000000 4.25640000e+07
8690.000000 4.43304000e+07
8710.000000 4.46186000e+07
8730.000000 4.31080000e+07
8750.000000 3.97255000e+07
8770.000000 4.16596000e+07
8790.000000 4.33986000e+07
8810.000000 4.34586000e+07
8830.000000 4.25734000e+07
8850.000000 3.93461000e+07
8870.000000 3.68106000e+07
8890.000000 4.06393000e+07
8910.000000 4.17625000e+07
8930.000000 4.17901000e+07
8950.000000 4.15626000e+07
8970.000000 4.08667000e+07
8990.000000 3.89897000e+07
9010.000000 3.44792000e+07
9030.000000 3.58259000e+07
9050.000000 3.87509000e+07
9070.000000 3.90042000e+07
9090.000000 3.92705000e+07
9110.000000 3.91854000e+07
9130.000000 3.89032000e+07
9150.000000 3.85254000e+07
9170.000000 3.79284000e+07
9190.000000 3.71202000e+07
9210.000000 3.46923000e+07
9230.000000 3.05455000e+07
9250.000000 3.38840000e+07
9270.000000 3.57923000e+07
9290.000000 3.61839000e+07
9310.000000 3.59595000e+07
9330.000000 3.59263000e+07
9350.000000 3.56590000e+07
9370.000000 3.54168000e+07
9390.000000 3.51392000e+07
9410.000000 3.48419000e+07
9430.000000 3.45579000e+07
9450.000000 3.42380000e+07
9470.000000 3.36428000e+07
9490.000000 3.33944000e+07
9510.000000 3.23048000e+07
9530.000000 3.00796000e+07
9550.000000 2.68020000e+07
9570.000000 3.02737000e+07
9590.000000 3.16567000e+07
9610.000000 3.18326000e+07
9630.000000 3.16664000e+07
9650.000000 3.16736000e+07
9670.000000 3.14722000e+07
9690.000000 3.12446000e+07
9710.000000 3.09498000e+07
9730.000000 3.08119000e+07
9750.000000 3.05747000e+07
9770.000000 3.03403000e+07
9790.000000 3.01080000e+07
9810.000000 2.98777000e+07
9830.000000 2.96494000e+07
9850.000000 2.94235000e+07
9870.000000 2.92000000e+07
9890.000000 2.89765000e+07
9910.000000 2.87388000e+07
9930.000000 2.84734000e+07
9950.000000 2.82224000e+07
9970.000000 2.79395000e+07
9990.000000 2.75733000e+07
10025.000000 2.54757000e+07
10075.000000 2.45569000e+07
10125.000000 2.62263000e+07
10175.000000 2.59906000e+07
10225.000000 2.55493000e+07
10275.000000 2.50965000e+07
10325.000000 2.45278000e+07
10375.000000 2.41964000e+07
10425.000000 2.37618000e+07
10475.000000 2.33367000e+07
10525.000000 2.29209000e+07
10575.000000 2.25147000e+07
10625.000000 2.21174000e+07
10675.000000 2.16806000e+07
10725.000000 2.13486000e+07
10775.000000 2.09751000e+07
10825.000000 2.03178000e+07
10875.000000 1.99817000e+07
10925.000000 1.76519000e+07
10975.000000 1.85636000e+07
11025.000000 1.89935000e+07
11075.000000 1.88473000e+07
11125.000000 1.85894000e+07
11175.000000 1.82768000e+07
11225.000000 1.79618000e+07
11275.000000 1.76695000e+07
11325.000000 1.73770000e+07
11375.000000 1.70903000e+07
11425.000000 1.68089000e+07
11475.000000 1.65331000e+07
11525.000000 1.62632000e+07
11575.000000 1.59984000e+07
11625.000000 1.57393000e+07
11675.000000 1.54853000e+07
11725.000000 1.52365000e+07
11775.000000 1.49919000e+07
11825.000000 1.47536000e+07
11875.000000 1.45196000e+07
11925.000000 1.42897000e+07
11975.000000 1.38848000e+07
12025.000000 1.38441000e+07
12075.000000 1.36279000e+07
12125.000000 1.34158000e+07
12175.000000 1.32080000e+07
12225.000000 1.30039000e+07
12275.000000 1.28039000e+07
12325.000000 1.26077000e+07
12375.000000 1.24152000e+07
12425.000000 1.22265000e+07
12475.000000 1.20410000e+07
12525.000000 1.18336000e+07
12575.000000 1.16811000e+07
12625.000000 1.15063000e+07
12675.000000 1.13181000e+07
12725.000000 1.11023000e+07
12775.000000 1.06343000e+07
12825.000000 9.63075000e+06
12875.000000 1.04520000e+07
12925.000000 1.04721000e+07
12975.000000 1.02752000e+07
13025.000000 1.02188000e+07
13075.000000 1.00710000e+07
