# Kurucz ODFNEW /NOVER, alpha: 0.0 (2003)
# teff = 25000 K (value for the effective temperature for the model. Temperatures are given in K)
# logg = 3.5 log(cm/s2) (value for Log(G) for the model.)
# lh = 1.25  (l/Hp where l is the  mixing length of the convective element and Hp is the pressure scale height)
# meta = 0  (value for the Metallicity for the model.)
# vtur = 2 km/s (Microturbulence velocity)
# alpha = 0  (Alpha)
#
# column 1: WAVELENGTH (ANGSTROM), Wavelength in Angstrom
# column 2: FLUX (ERG/CM2/S/A), Flux in erg/cm2/s/A
147.200000 2.49758000e-14
151.000000 1.06887000e-13
155.200000 4.94031000e-13
158.800000 1.73041000e-12
162.000000 5.06325000e-12
166.000000 1.83511000e-11
170.300000 6.87183000e-11
173.400000 1.71879000e-10
176.800000 4.53426000e-10
180.200000 1.15641000e-09
181.700000 1.72944000e-09
186.100000 5.44733000e-09
191.000000 1.84518000e-08
193.900000 3.69533000e-08
198.400000 1.04522000e-07
201.800000 2.22671000e-07
205.000000 4.43936000e-07
210.500000 1.38754000e-06
216.200000 4.26003000e-06
219.800000 8.40217000e-06
223.000000 1.50945000e-05
226.800000 2.97139000e-05
230.000000 3.04610000e-03
234.000000 6.98679000e-03
240.000000 1.59077000e-02
246.500000 3.78104000e-02
252.400000 8.04602000e-02
256.800000 1.29426000e-01
260.000000 2.15577000e-01
264.000000 3.38795000e-01
268.500000 5.63012000e-01
273.500000 9.59523000e-01
278.500000 1.59620000e+00
284.000000 3.01356000e+00
290.000000 5.26884000e+00
296.000000 9.05361000e+00
301.000000 1.37634000e+01
308.000000 2.56055000e+01
318.000000 6.11453000e+01
328.000000 1.24392000e+02
338.000000 2.59715000e+02
348.000000 5.01646000e+02
357.000000 2.23769000e+03
366.000000 4.47274000e+03
375.000000 6.65964000e+03
385.000000 1.10537000e+04
395.000000 2.06779000e+04
405.000000 3.08917000e+04
414.000000 4.57053000e+04
422.000000 6.21289000e+04
430.000000 8.80577000e+04
441.000000 1.30716000e+05
451.000000 1.75832000e+05
460.000000 2.29812000e+05
470.000000 3.22548000e+05
480.000000 4.34187000e+05
490.000000 5.83295000e+05
500.000000 7.57965000e+05
506.000000 4.21510000e+06
512.000000 2.99608000e+07
520.000000 3.24901000e+07
530.000000 3.60045000e+07
540.000000 3.73732000e+07
550.000000 5.53549000e+07
560.000000 6.63649000e+07
570.000000 7.69147000e+07
580.000000 7.25977000e+07
590.000000 9.39486000e+07
600.000000 1.01467000e+08
610.000000 1.19984000e+08
620.000000 1.34354000e+08
630.000000 1.41096000e+08
640.000000 1.31119000e+08
650.000000 9.99202000e+07
658.000000 1.49260000e+08
665.000000 1.79937000e+08
675.000000 1.88073000e+08
685.000000 1.85119000e+08
695.000000 2.46492000e+08
705.000000 2.41762000e+08
716.000000 2.78732000e+08
726.000000 2.83643000e+08
735.000000 2.93217000e+08
745.000000 3.33401000e+08
755.000000 3.51262000e+08
765.000000 3.74280000e+08
775.000000 3.98918000e+08
785.000000 4.25812000e+08
795.000000 4.39224000e+08
805.000000 4.50924000e+08
815.000000 4.58592000e+08
825.000000 5.01465000e+08
835.000000 4.24918000e+08
845.000000 5.08562000e+08
855.000000 5.14746000e+08
865.000000 5.47503000e+08
875.000000 5.81904000e+08
885.000000 6.27077000e+08
895.000000 6.53118000e+08
905.000000 6.45112000e+08
915.000000 1.01631000e+09
925.000000 8.08870000e+09
935.000000 1.56919000e+10
945.000000 2.31967000e+10
955.000000 2.59746000e+10
965.000000 2.75075000e+10
975.000000 5.70509000e+09
985.000000 2.03080000e+10
995.000000 2.14669000e+10
1005.000000 2.55349000e+10
1015.000000 2.64286000e+10
1025.000000 1.84473000e+10
1035.000000 2.16192000e+10
1045.000000 3.08187000e+10
1055.000000 2.82436000e+10
1065.000000 2.31892000e+10
1075.000000 2.63552000e+10
1085.000000 2.36504000e+10
1095.000000 2.64739000e+10
1105.000000 2.41876000e+10
1115.000000 2.34521000e+10
1125.000000 1.84012000e+10
1135.000000 2.43474000e+10
1145.000000 2.25151000e+10
1155.000000 2.27496000e+10
1165.000000 2.23402000e+10
1175.000000 1.25435000e+10
1185.000000 2.08035000e+10
1195.000000 1.97658000e+10
1205.000000 1.40840000e+10
1215.000000 1.32320000e+10
1225.000000 1.88490000e+10
1235.000000 2.07593000e+10
1245.000000 1.98735000e+10
1255.000000 1.97525000e+10
1265.000000 2.01498000e+10
1275.000000 2.08424000e+10
1285.000000 2.06123000e+10
1295.000000 1.51945000e+10
1305.000000 1.65803000e+10
1315.000000 2.01131000e+10
1325.000000 1.88422000e+10
1335.000000 1.81619000e+10
1345.000000 1.84126000e+10
1355.000000 1.81310000e+10
1365.000000 1.68307000e+10
1375.000000 1.62673000e+10
1385.000000 1.56882000e+10
1395.000000 1.06999000e+10
1405.000000 1.18693000e+10
1415.000000 1.39877000e+10
1425.000000 1.35872000e+10
1435.000000 1.42155000e+10
1442.000000 1.44931000e+10
1447.000000 1.42316000e+10
1455.000000 1.37098000e+10
1465.000000 1.26344000e+10
1475.000000 1.30131000e+10
1485.000000 1.28921000e+10
1495.000000 1.25791000e+10
1505.000000 1.14611000e+10
1512.000000 1.02240000e+10
1517.000000 1.05694000e+10
1525.000000 1.08378000e+10
1535.000000 9.06095000e+09
1545.000000 8.65601000e+09
1555.000000 8.42288000e+09
1565.000000 9.30324000e+09
1575.000000 9.98461000e+09
1585.000000 1.00205000e+10
1595.000000 9.88239000e+09
1605.000000 9.92634000e+09
1615.000000 9.63726000e+09
1625.000000 9.55311000e+09
1635.000000 1.01257000e+10
1645.000000 1.01273000e+10
1655.000000 1.00259000e+10
1665.000000 1.01149000e+10
1672.000000 9.56181000e+09
1677.000000 1.07074000e+10
1685.000000 1.02236000e+10
1695.000000 9.61878000e+09
1705.000000 9.42360000e+09
1715.000000 8.85407000e+09
1725.000000 8.73373000e+09
1735.000000 9.07187000e+09
1745.000000 8.88319000e+09
1755.000000 8.91080000e+09
1765.000000 8.86296000e+09
1775.000000 8.23547000e+09
1785.000000 8.42627000e+09
1795.000000 8.61209000e+09
1805.000000 8.69038000e+09
1815.000000 7.72780000e+09
1825.000000 8.04466000e+09
1835.000000 7.83180000e+09
1845.000000 7.11077000e+09
1855.000000 7.25722000e+09
1865.000000 7.35669000e+09
1875.000000 7.61544000e+09
1885.000000 6.76363000e+09
1895.000000 6.27993000e+09
1905.000000 6.84316000e+09
1915.000000 6.43709000e+09
1925.000000 6.06447000e+09
1935.000000 6.50292000e+09
1945.000000 6.64894000e+09
1955.000000 5.92197000e+09
1967.000000 6.48517000e+09
1976.000000 6.77444000e+09
1984.000000 6.28071000e+09
1995.000000 6.16261000e+09
2005.000000 6.42367000e+09
2015.000000 6.36099000e+09
2025.000000 6.52708000e+09
2035.000000 5.90599000e+09
2045.000000 6.03097000e+09
2055.000000 5.69275000e+09
2065.000000 5.65886000e+09
2074.000000 6.04583000e+09
2078.000000 5.41161000e+09
2085.000000 5.78653000e+09
2095.000000 5.49040000e+09
2105.000000 5.69861000e+09
2115.000000 5.72780000e+09
2125.000000 5.76971000e+09
2135.000000 5.68306000e+09
2145.000000 5.34706000e+09
2155.000000 5.59826000e+09
2165.000000 5.57375000e+09
2175.000000 5.50382000e+09
2185.000000 5.31137000e+09
2195.000000 5.39350000e+09
2205.000000 5.38135000e+09
2215.000000 5.28910000e+09
2225.000000 5.15126000e+09
2235.000000 5.05353000e+09
2245.000000 5.10219000e+09
2255.000000 4.94502000e+09
2265.000000 4.99170000e+09
2275.000000 4.92011000e+09
2285.000000 4.90658000e+09
2295.000000 4.40271000e+09
2305.000000 4.72969000e+09
2315.000000 4.59972000e+09
2325.000000 4.54839000e+09
2335.000000 4.42805000e+09
2345.000000 4.47010000e+09
2355.000000 4.43630000e+09
2365.000000 4.39718000e+09
2375.000000 4.29658000e+09
2385.000000 4.26195000e+09
2395.000000 4.20541000e+09
2405.000000 4.14166000e+09
2415.000000 4.09768000e+09
2425.000000 4.08221000e+09
2435.000000 3.96965000e+09
2445.000000 3.97430000e+09
2455.000000 3.96936000e+09
2465.000000 3.90039000e+09
2475.000000 3.83444000e+09
2485.000000 3.74635000e+09
2495.000000 3.07071000e+09
2505.000000 3.61094000e+09
2513.000000 3.48932000e+09
2518.000000 3.61184000e+09
2525.000000 3.59078000e+09
2535.000000 3.55799000e+09
2545.000000 3.42690000e+09
2555.000000 3.46078000e+09
2565.000000 3.41690000e+09
2575.000000 3.41462000e+09
2585.000000 3.36175000e+09
2595.000000 3.33125000e+09
2605.000000 3.30600000e+09
2615.000000 3.25256000e+09
2625.000000 3.23083000e+09
2635.000000 3.20055000e+09
2645.000000 3.15561000e+09
2655.000000 3.13851000e+09
2665.000000 3.02090000e+09
2675.000000 3.02594000e+09
2685.000000 3.02100000e+09
2695.000000 2.91408000e+09
2705.000000 2.85978000e+09
2715.000000 2.86323000e+09
2725.000000 2.85616000e+09
2735.000000 2.83022000e+09
2745.000000 2.77399000e+09
2755.000000 2.76084000e+09
2765.000000 2.72513000e+09
2775.000000 2.73659000e+09
2785.000000 2.69070000e+09
2795.000000 2.59866000e+09
2805.000000 2.61857000e+09
2815.000000 2.61735000e+09
2825.000000 2.58148000e+09
2835.000000 2.49454000e+09
2845.000000 2.52167000e+09
2855.000000 2.47381000e+09
2865.000000 2.46988000e+09
2875.000000 2.44329000e+09
2885.000000 2.41873000e+09
2895.000000 2.37890000e+09
2910.000000 2.33077000e+09
2930.000000 2.30095000e+09
2950.000000 2.23211000e+09
2970.000000 2.19912000e+09
2990.000000 2.15003000e+09
3010.000000 2.07103000e+09
3030.000000 2.06233000e+09
3050.000000 2.02930000e+09
3070.000000 1.99635000e+09
3090.000000 1.91642000e+09
3110.000000 1.90976000e+09
3130.000000 1.86206000e+09
3150.000000 1.83180000e+09
3170.000000 1.78582000e+09
3190.000000 1.74972000e+09
3210.000000 1.72503000e+09
3230.000000 1.68286000e+09
3250.000000 1.65854000e+09
3270.000000 1.62013000e+09
3290.000000 1.58845000e+09
3310.000000 1.56013000e+09
3330.000000 1.52613000e+09
3350.000000 1.49930000e+09
3370.000000 1.46935000e+09
3390.000000 1.44675000e+09
3410.000000 1.42037000e+09
3430.000000 1.38893000e+09
3450.000000 1.35863000e+09
3470.000000 1.33469000e+09
3490.000000 1.30840000e+09
3510.000000 1.28833000e+09
3530.000000 1.27072000e+09
3550.000000 1.24667000e+09
3570.000000 1.22768000e+09
3590.000000 1.19329000e+09
3610.000000 1.17238000e+09
3630.000000 1.15547000e+09
3640.000000 1.15320000e+09
3650.000000 1.12650000e+09
3670.000000 1.11347000e+09
3690.000000 1.08525000e+09
3710.000000 1.05154000e+09
3730.000000 1.02370000e+09
3750.000000 1.08444000e+09
3770.000000 1.07557000e+09
3790.000000 1.10309000e+09
3810.000000 1.13327000e+09
3830.000000 1.01830000e+09
3850.000000 1.13048000e+09
3870.000000 1.10459000e+09
3890.000000 9.71170000e+08
3910.000000 1.09583000e+09
3930.000000 1.05826000e+09
3950.000000 1.04910000e+09
3970.000000 8.99868000e+08
3990.000000 1.01600000e+09
4010.000000 1.00395000e+09
4030.000000 9.62207000e+08
4050.000000 9.70275000e+08
4070.000000 9.30492000e+08
4090.000000 8.89412000e+08
4110.000000 8.14406000e+08
4130.000000 8.87971000e+08
4150.000000 8.80767000e+08
4170.000000 8.74527000e+08
4190.000000 8.63387000e+08
4210.000000 8.54736000e+08
4230.000000 8.36608000e+08
4250.000000 8.15362000e+08
4270.000000 7.94415000e+08
4290.000000 7.84467000e+08
4310.000000 7.63210000e+08
4330.000000 7.23584000e+08
4350.000000 6.71891000e+08
4370.000000 7.27324000e+08
4390.000000 7.21768000e+08
4410.000000 7.14577000e+08
4430.000000 7.07583000e+08
4450.000000 6.96005000e+08
4470.000000 6.71615000e+08
4490.000000 6.75531000e+08
4510.000000 6.68367000e+08
4530.000000 6.57981000e+08
4550.000000 6.48333000e+08
4570.000000 6.37350000e+08
4590.000000 6.26836000e+08
4610.000000 6.13237000e+08
4630.000000 6.04594000e+08
4650.000000 5.84368000e+08
4670.000000 5.86560000e+08
4690.000000 5.81551000e+08
4710.000000 5.61423000e+08
4730.000000 5.62125000e+08
4750.000000 5.52859000e+08
4770.000000 5.51710000e+08
4790.000000 5.42334000e+08
4810.000000 5.32037000e+08
4830.000000 5.22989000e+08
4850.000000 5.01772000e+08
4870.000000 4.56900000e+08
4890.000000 5.01710000e+08
4910.000000 4.95631000e+08
4930.000000 4.80768000e+08
4950.000000 4.79259000e+08
4970.000000 4.76156000e+08
4990.000000 4.68519000e+08
5010.000000 4.50783000e+08
5030.000000 4.54576000e+08
5050.000000 4.45073000e+08
5070.000000 4.42595000e+08
5090.000000 4.35706000e+08
5110.000000 4.29013000e+08
5130.000000 4.20335000e+08
5150.000000 4.15613000e+08
5170.000000 4.11756000e+08
5190.000000 4.06588000e+08
5210.000000 4.00419000e+08
5230.000000 3.95187000e+08
5250.000000 3.89981000e+08
5270.000000 3.83852000e+08
5290.000000 3.79474000e+08
5310.000000 3.74016000e+08
5330.000000 3.69344000e+08
5350.000000 3.64074000e+08
5370.000000 3.59695000e+08
5390.000000 3.54502000e+08
5410.000000 3.50238000e+08
5430.000000 3.45350000e+08
5450.000000 3.40588000e+08
5470.000000 3.36138000e+08
5490.000000 3.31718000e+08
5510.000000 3.27950000e+08
5530.000000 3.23044000e+08
5550.000000 3.19595000e+08
5570.000000 3.15191000e+08
5590.000000 3.11384000e+08
5610.000000 3.07241000e+08
5630.000000 3.03505000e+08
5650.000000 2.98634000e+08
5670.000000 2.93625000e+08
5690.000000 2.88876000e+08
5710.000000 2.87261000e+08
5730.000000 2.83974000e+08
5750.000000 2.79518000e+08
5770.000000 2.77425000e+08
5790.000000 2.73713000e+08
5810.000000 2.70404000e+08
5830.000000 2.66401000e+08
5850.000000 2.63581000e+08
5870.000000 2.54419000e+08
5890.000000 2.55279000e+08
5910.000000 2.53317000e+08
5930.000000 2.49747000e+08
5950.000000 2.46602000e+08
5970.000000 2.45100000e+08
5990.000000 2.41010000e+08
6010.000000 2.38835000e+08
6030.000000 2.35492000e+08
6050.000000 2.32908000e+08
6070.000000 2.30547000e+08
6090.000000 2.27817000e+08
6110.000000 2.25097000e+08
6130.000000 2.22567000e+08
6150.000000 2.19021000e+08
6170.000000 2.16742000e+08
6190.000000 2.14567000e+08
6210.000000 2.12249000e+08
6230.000000 2.09840000e+08
6250.000000 2.07034000e+08
6270.000000 2.04766000e+08
6290.000000 2.02552000e+08
6310.000000 2.00068000e+08
6330.000000 1.97969000e+08
6350.000000 1.95248000e+08
6370.000000 1.93383000e+08
6390.000000 1.91123000e+08
6410.000000 1.88988000e+08
6430.000000 1.86957000e+08
6450.000000 1.84786000e+08
6470.000000 1.82169000e+08
6490.000000 1.80171000e+08
6510.000000 1.78515000e+08
6530.000000 1.76160000e+08
6550.000000 1.71529000e+08
6570.000000 1.54515000e+08
6590.000000 1.68985000e+08
6610.000000 1.68550000e+08
6630.000000 1.66918000e+08
6650.000000 1.65012000e+08
6670.000000 1.62127000e+08
6690.000000 1.60402000e+08
6710.000000 1.59832000e+08
6730.000000 1.57702000e+08
6750.000000 1.56422000e+08
6770.000000 1.54743000e+08
6790.000000 1.52035000e+08
6810.000000 1.51216000e+08
6830.000000 1.49573000e+08
6850.000000 1.48139000e+08
6870.000000 1.46543000e+08
6890.000000 1.44821000e+08
6910.000000 1.43147000e+08
6930.000000 1.41922000e+08
6950.000000 1.40451000e+08
6970.000000 1.38979000e+08
6990.000000 1.37484000e+08
7010.000000 1.36049000e+08
7030.000000 1.34597000e+08
7050.000000 1.33205000e+08
7070.000000 1.29883000e+08
7090.000000 1.30470000e+08
7110.000000 1.28329000e+08
7130.000000 1.27091000e+08
7150.000000 1.26447000e+08
7170.000000 1.25149000e+08
7190.000000 1.23893000e+08
7210.000000 1.22627000e+08
7230.000000 1.19780000e+08
7250.000000 1.19908000e+08
7270.000000 1.18900000e+08
7290.000000 1.16824000e+08
7310.000000 1.16482000e+08
7330.000000 1.15286000e+08
7350.000000 1.14178000e+08
7370.000000 1.13046000e+08
7390.000000 1.11911000e+08
7410.000000 1.10793000e+08
7430.000000 1.09665000e+08
7450.000000 1.08595000e+08
7470.000000 1.07103000e+08
7490.000000 1.06411000e+08
7510.000000 1.05357000e+08
7530.000000 1.04293000e+08
7550.000000 1.03358000e+08
7570.000000 1.02353000e+08
7590.000000 1.01336000e+08
7610.000000 1.00232000e+08
7630.000000 9.93578000e+07
7650.000000 9.84077000e+07
7670.000000 9.74661000e+07
7690.000000 9.65202000e+07
7710.000000 9.55638000e+07
7730.000000 9.46349000e+07
7750.000000 9.37770000e+07
7770.000000 9.26209000e+07
7790.000000 9.20032000e+07
7810.000000 9.10694000e+07
7830.000000 9.02606000e+07
7850.000000 8.94406000e+07
7870.000000 8.84939000e+07
7890.000000 8.75072000e+07
7910.000000 8.68485000e+07
7930.000000 8.59916000e+07
7950.000000 8.51422000e+07
7970.000000 8.43062000e+07
7990.000000 8.35425000e+07
8010.000000 8.27735000e+07
8030.000000 8.20170000e+07
8050.000000 8.13251000e+07
8070.000000 8.06101000e+07
8090.000000 7.97573000e+07
8110.000000 7.87458000e+07
8130.000000 7.84443000e+07
8150.000000 7.76061000e+07
8170.000000 7.70516000e+07
8190.000000 7.60579000e+07
8210.000000 7.52072000e+07
8230.000000 7.44861000e+07
8250.000000 7.41309000e+07
8270.000000 7.28199000e+07
8290.000000 7.26937000e+07
8310.000000 7.20933000e+07
8330.000000 7.14543000e+07
8350.000000 7.05073000e+07
8370.000000 6.99933000e+07
8390.000000 6.94994000e+07
8410.000000 6.88177000e+07
8430.000000 6.81682000e+07
8450.000000 6.71230000e+07
8470.000000 6.67329000e+07
8490.000000 6.64084000e+07
8510.000000 6.52383000e+07
8530.000000 6.54557000e+07
8550.000000 6.33306000e+07
8570.000000 6.50820000e+07
8590.000000 6.23491000e+07
8610.000000 6.19276000e+07
8630.000000 6.39374000e+07
8650.000000 6.23078000e+07
8670.000000 5.81015000e+07
8690.000000 6.23940000e+07
8710.000000 6.23909000e+07
8730.000000 6.08102000e+07
8750.000000 5.54103000e+07
8770.000000 5.92968000e+07
8790.000000 6.04217000e+07
8810.000000 5.99778000e+07
8830.000000 5.93247000e+07
8850.000000 5.65701000e+07
8870.000000 5.26044000e+07
8890.000000 5.75828000e+07
8910.000000 5.74859000e+07
8930.000000 5.70303000e+07
8950.000000 5.67193000e+07
8970.000000 5.61763000e+07
8990.000000 5.49618000e+07
9010.000000 4.98546000e+07
9030.000000 5.22490000e+07
9050.000000 5.41296000e+07
9070.000000 5.34744000e+07
9090.000000 5.33169000e+07
9110.000000 5.30467000e+07
9130.000000 5.26338000e+07
9150.000000 5.21970000e+07
9170.000000 5.16425000e+07
9190.000000 5.11949000e+07
9210.000000 4.95294000e+07
9230.000000 4.45259000e+07
9250.000000 4.88598000e+07
9270.000000 4.93287000e+07
9290.000000 4.92562000e+07
9310.000000 4.86667000e+07
9330.000000 4.83284000e+07
9350.000000 4.80486000e+07
9370.000000 4.76936000e+07
9390.000000 4.73197000e+07
9410.000000 4.68933000e+07
9430.000000 4.65463000e+07
9450.000000 4.61681000e+07
9470.000000 4.55910000e+07
9490.000000 4.54074000e+07
9510.000000 4.45835000e+07
9530.000000 4.32683000e+07
9550.000000 3.92184000e+07
9570.000000 4.33228000e+07
9590.000000 4.35642000e+07
9610.000000 4.31587000e+07
9630.000000 4.27278000e+07
9650.000000 4.26682000e+07
9670.000000 4.23307000e+07
9690.000000 4.19595000e+07
9710.000000 4.14952000e+07
9730.000000 4.13407000e+07
9750.000000 4.10167000e+07
9770.000000 4.07108000e+07
9790.000000 4.03874000e+07
9810.000000 4.00389000e+07
9830.000000 3.97670000e+07
9850.000000 3.94542000e+07
9870.000000 3.91282000e+07
9890.000000 3.87852000e+07
9910.000000 3.83530000e+07
9930.000000 3.82633000e+07
9950.000000 3.79684000e+07
9970.000000 3.76502000e+07
9990.000000 3.73871000e+07
10025.000000 3.58505000e+07
10075.000000 3.46976000e+07
10125.000000 3.54230000e+07
10175.000000 3.48792000e+07
10225.000000 3.42200000e+07
10275.000000 3.36023000e+07
10325.000000 3.28773000e+07
10375.000000 3.23872000e+07
10425.000000 3.17993000e+07
10475.000000 3.12242000e+07
10525.000000 3.06524000e+07
10575.000000 3.01112000e+07
10625.000000 2.95742000e+07
10675.000000 2.89993000e+07
10725.000000 2.85360000e+07
10775.000000 2.80316000e+07
10825.000000 2.72483000e+07
10875.000000 2.70352000e+07
10925.000000 2.49706000e+07
10975.000000 2.58154000e+07
11025.000000 2.55480000e+07
11075.000000 2.52331000e+07
11125.000000 2.48062000e+07
11175.000000 2.43862000e+07
11225.000000 2.39623000e+07
11275.000000 2.35537000e+07
11325.000000 2.31400000e+07
11375.000000 2.27813000e+07
11425.000000 2.23921000e+07
11475.000000 2.20329000e+07
11525.000000 2.16708000e+07
11575.000000 2.13021000e+07
11625.000000 2.09595000e+07
11675.000000 2.06065000e+07
11725.000000 2.02873000e+07
11775.000000 1.99539000e+07
11825.000000 1.96349000e+07
11875.000000 1.93219000e+07
11925.000000 1.90132000e+07
11975.000000 1.85726000e+07
12025.000000 1.84120000e+07
12075.000000 1.81224000e+07
12125.000000 1.78353000e+07
12175.000000 1.75560000e+07
12225.000000 1.72821000e+07
12275.000000 1.70138000e+07
12325.000000 1.67486000e+07
12375.000000 1.64898000e+07
12425.000000 1.62380000e+07
12475.000000 1.59781000e+07
12525.000000 1.57069000e+07
12575.000000 1.54960000e+07
12625.000000 1.52636000e+07
12675.000000 1.50400000e+07
12725.000000 1.48139000e+07
12775.000000 1.44038000e+07
12825.000000 1.35199000e+07
12875.000000 1.41228000e+07
12925.000000 1.39497000e+07
12975.000000 1.36647000e+07
13025.000000 1.35367000e+07
13075.000000 1.33445000e+07
