Wavelength,Transmission
1648.0,3.00705e-05
1650.0,3.75902e-05
1660.0,7.56645e-05
1670.0,0.000114867
1680.0,0.000155764
1690.0,0.00019885
1700.0,0.000244545
1710.0,0.000342677
1720.0,0.000447098
1730.0,0.000558436
1740.0,0.000688842
1750.0,0.000827952
1760.0,0.000967514
1770.0,0.0010918
1780.0,0.00122216
1790.0,0.00135885
1800.0,0.00144158
1810.0,0.00152791
1820.0,0.00161809
1830.0,0.00167843
1840.0,0.00174105
1850.0,0.00180595
1860.0,0.00183921
1870.0,0.00187308
1879.0,0.00190407
1880.0,0.00190671
1890.0,0.0019337
1900.0,0.00196086
1910.0,0.00198827
1920.0,0.00199459
1930.0,0.00199995
1940.0,0.00200438
1950.0,0.00200138
1960.0,0.00199703
1970.0,0.00199101
1980.0,0.00197649
1990.0,0.00195988
2000.0,0.00194109
2010.0,0.00190562
2020.0,0.00186659
2030.0,0.00182365
2040.0,0.00175657
2050.0,0.00168438
2060.0,0.00160694
2070.0,0.00151173
2080.0,0.00141055
2090.0,0.00130329
2100.0,0.00119913
2110.0,0.0010893
2120.0,0.00097383
2130.0,0.000880663
2138.0,0.000802889
2140.0,0.000783318
2150.0,0.000682416
2160.0,0.000625075
2170.0,0.000565003
2180.0,0.000502289
2190.0,0.00043713
2200.0,0.000391857
2210.0,0.00035472
2220.0,0.000327215
2230.0,0.000296586
2240.0,0.000273773
2250.0,0.000248641
2260.0,0.000229684
2270.0,0.000209412
2280.0,0.000193733
2290.0,0.00017679
2296.0,0.000169156
2300.0,0.000163996
2310.0,0.000150167
2320.0,0.000139752
2330.0,0.000128569
2340.0,0.0001198
2350.0,0.000110429
2360.0,0.000103016
2370.0,9.51229e-05
2380.0,8.88957e-05
2390.0,8.22916e-05
2400.0,7.72657e-05
2410.0,7.13802e-05
2420.0,6.69313e-05
2430.0,6.22504e-05
2440.0,5.85453e-05
2450.0,5.43591e-05
2460.0,5.12317e-05
2470.0,4.79662e-05
2480.0,4.52073e-05
2490.0,4.26621e-05
2500.0,4.03495e-05
2510.0,3.79478e-05
2520.0,3.58005e-05
2530.0,3.39205e-05
2537.0,3.28103e-05
2540.0,3.22471e-05
2550.0,2.99976e-05
2560.0,2.87805e-05
2570.0,2.68284e-05
2580.0,2.5569e-05
2590.0,2.4292e-05
2600.0,2.29969e-05
2610.0,2.16839e-05
2620.0,2.10932e-05
2630.0,1.97485e-05
2640.0,1.91352e-05
2650.0,1.81339e-05
2660.0,1.74984e-05
2670.0,1.68527e-05
2680.0,1.6196e-05
2690.0,1.55291e-05
2700.0,1.48509e-05
2710.0,1.46487e-05
2720.0,1.40364e-05
2730.0,1.38111e-05
2740.0,1.3576e-05
2750.0,1.29149e-05
2760.0,1.25364e-05
2770.0,1.21547e-05
2780.0,1.17703e-05
2790.0,1.13826e-05
2800.0,1.09915e-05
2810.0,1.05973e-05
2820.0,1.06249e-05
2830.0,1.02255e-05
2840.0,9.82341e-06
2850.0,9.41821e-06
2860.0,9.43971e-06
2870.0,9.03054e-06
2880.0,8.61867e-06
2890.0,8.6366e-06
2900.0,8.22111e-06
2910.0,8.17991e-06
2920.0,7.70958e-06
2930.0,7.66927e-06
2940.0,7.20446e-06
2950.0,7.16558e-06
2960.0,6.70672e-06
2970.0,6.66927e-06
2980.0,6.21692e-06
2990.0,6.18098e-06
3000.0,6.14488e-06
3010.0,5.7012e-06
3020.0,5.66706e-06
3030.0,5.63261e-06
3040.0,5.19801e-06
3050.0,5.16562e-06
3060.0,5.13297e-06
3070.0,4.70787e-06
3080.0,4.67753e-06
3090.0,4.64694e-06
3100.0,4.61624e-06
3110.0,4.25448e-06
3120.0,4.27747e-06
3130.0,4.30052e-06
3140.0,3.93046e-06
3150.0,3.95154e-06
3160.0,3.97256e-06
3170.0,3.99365e-06
3180.0,3.61319e-06
3190.0,3.63229e-06
3200.0,3.65133e-06
3210.0,3.67042e-06
3220.0,3.27973e-06
3230.0,3.29681e-06
3240.0,3.31396e-06
3250.0,3.33126e-06
3260.0,3.34852e-06
3270.0,3.36584e-06
3280.0,2.96042e-06
3290.0,2.97568e-06
3300.0,2.9911e-06
3310.0,3.00657e-06
3320.0,3.0221e-06
3330.0,2.60374e-06
3340.0,2.61724e-06
3350.0,2.63079e-06
3360.0,2.64441e-06
3370.0,2.65808e-06
3380.0,2.67189e-06
3390.0,2.23814e-06
3400.0,2.24982e-06
3410.0,2.26156e-06
3420.0,2.27335e-06
3430.0,2.28528e-06
3440.0,2.29733e-06
3450.0,2.30945e-06
3460.0,2.3217e-06
3470.0,1.8672e-06
3480.0,1.87717e-06
3490.0,1.88724e-06
3500.0,1.89738e-06
3510.0,1.90763e-06
3520.0,1.918e-06
3530.0,1.92843e-06
3540.0,1.93903e-06
3550.0,1.94963e-06
3560.0,1.96035e-06
3570.0,1.97118e-06
3580.0,1.48655e-06
3590.0,1.49481e-06
3600.0,1.50311e-06
3610.0,1.51149e-06
3620.0,1.51987e-06
3630.0,1.52838e-06
3640.0,1.53688e-06
3650.0,1.54542e-06
3660.0,1.55404e-06
3670.0,1.5627e-06
3680.0,1.57141e-06
3690.0,1.58014e-06
3700.0,1.58891e-06
3710.0,1.59772e-06
3720.0,1.07104e-06
3730.0,1.07696e-06
3740.0,1.08289e-06
3750.0,1.08885e-06
3760.0,1.09483e-06
3770.0,1.1008e-06
3780.0,1.10682e-06
3790.0,1.11282e-06
3800.0,4.37313e-07
3810.0,4.39675e-07
3820.0,4.4203e-07
3830.0,4.44376e-07
3840.0,4.4673e-07
3850.0,4.49089e-07
3860.0,4.5144e-07
3870.0,4.53782e-07
3880.0,4.56128e-07
3890.0,4.58467e-07
3900.0,4.60808e-07
3910.0,4.63139e-07
3920.0,4.6546e-07
3930.0,4.67769e-07
3940.0,4.7008e-07
3950.0,4.72365e-07
3960.0,4.74652e-07
3970.0,4.7691e-07
3980.0,4.7917e-07
3990.0,4.81414e-07
4000.0,4.8363e-07
4010.0,4.83437e-07
4020.0,4.83221e-07
4030.0,4.82982e-07
4040.0,4.82721e-07
4050.0,4.82438e-07
4060.0,4.82132e-07
4070.0,4.81805e-07
4080.0,4.81456e-07
4090.0,4.81086e-07
4100.0,4.8071e-07
4110.0,4.80297e-07
4120.0,4.7988e-07
4130.0,4.79427e-07
4140.0,4.78968e-07
4150.0,4.78504e-07
4160.0,4.78005e-07
4170.0,4.77502e-07
4180.0,4.76978e-07
4190.0,4.7645e-07
4200.0,4.75903e-07
4210.0,4.7707e-07
4220.0,4.78236e-07
4230.0,4.79384e-07
4240.0,4.80532e-07
4250.0,4.81664e-07
4260.0,4.82794e-07
4270.0,4.83907e-07
4280.0,4.8502e-07
4290.0,4.86116e-07
4300.0,4.87211e-07
4310.0,4.8829e-07
4320.0,4.89367e-07
4330.0,4.90444e-07
4340.0,4.91519e-07
4350.0,4.92578e-07
4360.0,4.93621e-07
4370.0,4.94678e-07
4380.0,4.95719e-07
4390.0,4.96759e-07
4400.0,4.97783e-07
4410.0,4.98821e-07
4420.0,4.99843e-07
4430.0,5.00865e-07
4440.0,5.0187e-07
4450.0,5.0289e-07
4460.0,5.03893e-07
4470.0,5.04896e-07
4480.0,5.05899e-07
4490.0,5.06901e-07
4500.0,5.07902e-07
4510.0,5.12991e-07
4520.0,5.18069e-07
4530.0,5.23163e-07
4540.0,5.28244e-07
4550.0,5.33327e-07
4560.0,5.38428e-07
4570.0,5.43516e-07
4580.0,5.48606e-07
4590.0,5.53698e-07
4600.0,5.58792e-07
