Wavelength,Transmission
2920.0,1.2442e-05
2930.0,4.60824e-05
2940.0,0.000127241
2942.0,0.00010437
2944.0,0.000122253
2946.0,0.000147659
2948.0,0.000173778
2950.0,0.000204268
2952.0,0.000234732
2954.0,0.000269681
2956.0,0.000307208
2958.0,0.00034744
2960.0,0.000391086
2962.0,0.000438045
2964.0,0.000491443
2966.0,0.00054463
2968.0,0.000604899
2970.0,0.000666728
2972.0,0.00073189
2974.0,0.000802385
2976.0,0.0008753
2978.0,0.000952626
2980.0,0.00103506
2982.0,0.00112173
2984.0,0.0012117
2986.0,0.00130499
2988.0,0.00140253
2990.0,0.00150254
2992.0,0.00160768
2994.0,0.00171055
2996.0,0.00181687
2998.0,0.00192465
3000.0,0.00203748
3002.0,0.00215174
3004.0,0.00226475
3006.0,0.00238011
3008.0,0.00249964
3010.0,0.00262072
3012.0,0.00274581
3014.0,0.00286768
3016.0,0.00299089
3018.0,0.00312196
3020.0,0.00325978
3022.0,0.00339784
3024.0,0.00354075
3026.0,0.00369562
3028.0,0.00385514
3030.0,0.00401668
3032.0,0.0041826
3034.0,0.00436552
3036.0,0.00456572
3038.0,0.00477832
3040.0,0.00500045
3042.0,0.00523531
3044.0,0.0054768
3046.0,0.00574008
3048.0,0.00602882
3050.0,0.00634049
3052.0,0.00667447
3054.0,0.00702864
3056.0,0.00740192
3058.0,0.00780147
3060.0,0.0082359
3062.0,0.00869625
3064.0,0.00918877
3066.0,0.00971226
3068.0,0.010263
3070.0,0.010846
3072.0,0.0114604
3074.0,0.0120946
3076.0,0.0127483
3078.0,0.0134189
3080.0,0.0141034
3082.0,0.0148039
3084.0,0.0155135
3086.0,0.0162101
3088.0,0.0168889
3090.0,0.0175554
3092.0,0.0181926
3094.0,0.0188016
3096.0,0.0193758
3098.0,0.0199104
3100.0,0.0203964
3102.0,0.0208896
3104.0,0.0213347
3106.0,0.0217292
3108.0,0.0220816
3110.0,0.0223917
3112.0,0.0226623
3114.0,0.022903
3116.0,0.0231176
3118.0,0.0233158
3120.0,0.0234862
3122.0,0.0236248
3124.0,0.02374
3126.0,0.0238513
3128.0,0.0239725
3130.0,0.0241025
3132.0,0.0242301
3134.0,0.024351
3136.0,0.0244557
3138.0,0.0245682
3140.0,0.0247065
3142.0,0.024846
3144.0,0.0249795
3146.0,0.0251158
3148.0,0.0252868
3150.0,0.0254614
3152.0,0.0256134
3154.0,0.0257717
3156.0,0.0259442
3158.0,0.0261247
3160.0,0.0263238
3162.0,0.0265223
3164.0,0.0267212
3166.0,0.0269258
3168.0,0.0271167
3170.0,0.0272898
3172.0,0.0274702
3174.0,0.0276651
3176.0,0.0278499
3178.0,0.0279974
3180.0,0.028155
3182.0,0.0283161
3184.0,0.0284686
3186.0,0.0286198
3188.0,0.0287465
3190.0,0.028857
3192.0,0.0289782
3194.0,0.0291024
3196.0,0.0292128
3198.0,0.0293092
3200.0,0.0294085
3202.0,0.0295155
3204.0,0.0296156
3206.0,0.0296979
3208.0,0.029775
3210.0,0.0298505
3212.0,0.0299238
3214.0,0.0299892
3216.0,0.0300619
3218.0,0.0301311
3220.0,0.030197
3222.0,0.0302583
3224.0,0.0303242
3226.0,0.0304037
3228.0,0.0304653
3230.0,0.0305052
3232.0,0.0305706
3234.0,0.0306523
3236.0,0.0307315
3238.0,0.0307962
3240.0,0.0308511
3242.0,0.0309071
3244.0,0.0309831
3246.0,0.0310654
3248.0,0.0311298
3250.0,0.0311881
3252.0,0.0312516
3254.0,0.0313344
3256.0,0.0314037
3258.0,0.0314333
3260.0,0.0314619
3262.0,0.0314968
3264.0,0.0315337
3266.0,0.0315727
3268.0,0.0315924
3270.0,0.0316323
3272.0,0.0316836
3274.0,0.0317266
3276.0,0.0317522
3278.0,0.0317632
3280.0,0.0317816
3282.0,0.031809
3284.0,0.0318383
3286.0,0.0318574
3288.0,0.031858
3290.0,0.0318771
3292.0,0.0319003
3294.0,0.0319198
3296.0,0.0319327
3298.0,0.0319299
3300.0,0.0319103
3302.0,0.0318933
3304.0,0.0318932
3306.0,0.031909
3308.0,0.0319135
3310.0,0.031918
3312.0,0.031914
3314.0,0.0319148
3316.0,0.0319194
3318.0,0.0319097
3320.0,0.0319008
3322.0,0.0318956
3324.0,0.0318893
3326.0,0.0318819
3328.0,0.0318745
3330.0,0.0318758
3332.0,0.0318867
3334.0,0.0318984
3336.0,0.0319015
3338.0,0.0319037
3340.0,0.0319105
3342.0,0.0319097
3344.0,0.0319192
3346.0,0.0319479
3348.0,0.0319604
3350.0,0.0319631
3352.0,0.0319821
3354.0,0.0320096
3356.0,0.0320332
3358.0,0.032051
3360.0,0.0320728
3362.0,0.0320897
3364.0,0.0321181
3366.0,0.0321589
3368.0,0.0322018
3370.0,0.0322379
3372.0,0.0322674
3374.0,0.0322998
3376.0,0.0323468
3378.0,0.0323966
3380.0,0.0324357
3382.0,0.0324952
3384.0,0.0325586
3386.0,0.0325977
3388.0,0.0326505
3390.0,0.032715
3392.0,0.0327905
3394.0,0.0328737
3396.0,0.0329524
3398.0,0.0330003
3400.0,0.033027
3402.0,0.0330911
3404.0,0.0331679
3406.0,0.0332628
3408.0,0.0333457
3410.0,0.033426
3412.0,0.0335173
3414.0,0.0336116
3416.0,0.0337009
3418.0,0.0337805
3420.0,0.0338664
3422.0,0.0339526
3424.0,0.0340301
3426.0,0.0341077
3428.0,0.0341874
3430.0,0.0342692
3432.0,0.0343516
3434.0,0.0344271
3436.0,0.0344948
3438.0,0.0345556
3440.0,0.0346147
3442.0,0.034669
3444.0,0.0347246
3446.0,0.0347662
3448.0,0.0348039
3450.0,0.0348246
3452.0,0.0348417
3454.0,0.0348509
3456.0,0.0348482
3458.0,0.0348384
3460.0,0.0348176
3462.0,0.0347766
3464.0,0.0347346
3466.0,0.0346907
3468.0,0.0346347
3470.0,0.0345613
3472.0,0.0344813
3474.0,0.0343787
3476.0,0.0342535
3478.0,0.0341242
3480.0,0.0339866
3482.0,0.033837
3484.0,0.0336666
3486.0,0.0334805
3488.0,0.0332913
3490.0,0.0330823
3492.0,0.0328597
3494.0,0.0326255
3496.0,0.0323764
3498.0,0.0321125
3500.0,0.0318357
3502.0,0.0315474
3504.0,0.0312545
3506.0,0.0309432
3508.0,0.0306202
3510.0,0.0302943
3512.0,0.0299609
3514.0,0.0296163
3516.0,0.029268
3518.0,0.0289116
3520.0,0.0285565
3522.0,0.0281996
3524.0,0.0278223
3526.0,0.0274388
3528.0,0.0270628
3530.0,0.026684
3532.0,0.0263025
3534.0,0.0259213
3536.0,0.0255349
3538.0,0.0251435
3540.0,0.0247554
3542.0,0.0244025
3544.0,0.0240283
3546.0,0.0236353
3548.0,0.0232393
3550.0,0.0228614
3552.0,0.022487
3554.0,0.0221117
3556.0,0.021726
3558.0,0.0213426
3560.0,0.0209625
3562.0,0.0205808
3564.0,0.0202044
3566.0,0.0198313
3568.0,0.0194521
3570.0,0.0190774
3572.0,0.0187146
3574.0,0.0183573
3576.0,0.0179853
3578.0,0.0176221
3580.0,0.0172623
3582.0,0.016905
3584.0,0.0165469
3586.0,0.0161889
3588.0,0.0158302
3590.0,0.0154802
3592.0,0.0151317
3594.0,0.0147834
3596.0,0.0144354
3598.0,0.0140973
3600.0,0.0137617
3602.0,0.0134254
3604.0,0.0130894
3606.0,0.0127516
3608.0,0.0124162
3610.0,0.0120855
3612.0,0.0117572
3614.0,0.0114313
3616.0,0.0111048
3618.0,0.0107905
3620.0,0.0104788
3622.0,0.0101686
3624.0,0.00986649
3626.0,0.00956699
3628.0,0.0092722
3630.0,0.0089811
3632.0,0.00870023
3634.0,0.00842529
3636.0,0.0081574
3638.0,0.00789328
3640.0,0.00763625
3642.0,0.00738415
3644.0,0.00714028
3646.0,0.00690356
3648.0,0.00667183
3650.0,0.00644288
3652.0,0.00622342
3654.0,0.0060123
3656.0,0.00580293
3658.0,0.00559862
3660.0,0.00540051
3662.0,0.00520974
3664.0,0.00502298
3666.0,0.00484249
3668.0,0.00466605
3670.0,0.00449814
3672.0,0.00433656
3674.0,0.00417686
3676.0,0.00402239
3678.0,0.00387431
3680.0,0.00373263
3682.0,0.003594
3684.0,0.00347194
3686.0,0.00334622
3688.0,0.00322247
3690.0,0.00310183
3692.0,0.00298996
3694.0,0.00287898
3696.0,0.00277567
3698.0,0.00267553
3700.0,0.00257976
3702.0,0.002486
3704.0,0.00239316
3706.0,0.00230803
3708.0,0.00222282
3710.0,0.00214078
3712.0,0.00206194
3714.0,0.00198755
3716.0,0.00191529
3718.0,0.0018463
3720.0,0.0017783
3722.0,0.00171475
3724.0,0.00165342
3726.0,0.00159189
3728.0,0.00153253
3730.0,0.00147528
3732.0,0.00142149
3734.0,0.00136636
3736.0,0.0013169
3738.0,0.00126849
3740.0,0.00122183
3750.0,0.000997283
3760.0,0.000829481
3770.0,0.000664912
3780.0,0.000542017
3790.0,0.00042245
3800.0,0.000334358
3810.0,0.000250314
3820.0,0.000190499
3830.0,0.000135696
3840.0,9.80694e-05
3850.0,6.53964e-05
3860.0,4.45067e-05
3870.0,2.75021e-05
3880.0,1.73246e-05
3890.0,9.74398e-06
