Wavelength,Transmission
1160.0,2.19418e-05
1170.0,3.67022e-05
1180.0,5.2638e-05
1190.0,6.53911e-05
1200.0,7.77575e-05
1210.0,8.86968e-05
1216.0,9.41187e-05
1220.0,9.84285e-05
1230.0,0.000107366
1240.0,0.00011473
1250.0,0.000120763
1260.0,0.000125786
1270.0,0.000129935
1280.0,0.000133317
1290.0,0.000136077
1300.0,0.000138374
1310.0,0.000140366
1320.0,0.000142109
1330.0,0.000143642
1340.0,0.000144975
1350.0,0.000146159
1354.0,0.000146588
1360.0,0.000147074
1370.0,0.000147806
1380.0,0.000148494
1390.0,0.000149169
1400.0,0.000149877
1410.0,0.000150644
1420.0,0.000151424
1430.0,0.000152147
1440.0,0.00015276
1450.0,0.000153192
1460.0,0.000153364
1470.0,0.000153224
1480.0,0.000152688
1487.0,0.000152
1490.0,0.000152247
1500.0,0.000152527
1510.0,0.000151433
1520.0,0.00014979
1530.0,0.000147737
1540.0,0.000145391
1545.0,0.000144164
1550.0,0.000141855
1560.0,0.000137364
1570.0,0.00013311
1580.0,0.000129185
1590.0,0.000125699
1600.0,0.00012273
1610.0,0.000120354
1620.0,0.000118602
1630.0,0.000117493
1640.0,0.000117044
1648.0,0.00011724
1650.0,0.000117397
1660.0,0.000118909
1670.0,0.000121111
1680.0,0.000123951
1690.0,0.000127385
1700.0,0.000131363
1710.0,0.000135844
1720.0,0.000140798
1730.0,0.000146173
1740.0,0.000151939
1750.0,0.000158055
1760.0,0.000163026
1770.0,0.000168202
1780.0,0.000173585
1790.0,0.000179173
1800.0,0.00018498
1810.0,0.000190992
1820.0,0.000197226
1830.0,0.000203682
1840.0,0.000210366
1850.0,0.000217278
1860.0,0.000224427
1870.0,0.00023182
1879.0,0.000238688
1880.0,0.000239359
1890.0,0.000246227
1900.0,0.000253276
1910.0,0.000260523
1920.0,0.000305151
1930.0,0.000326504
1940.0,0.000378769
1950.0,0.000384305
1960.0,0.000407117
1970.0,0.000419582
1980.0,0.000434225
1990.0,0.000453518
2000.0,0.000459222
2010.0,0.000471739
2020.0,0.000478601
2030.0,0.000507052
2040.0,0.000538809
2050.0,0.00056559
2060.0,0.000609742
2070.0,0.000617845
2080.0,0.000676052
2090.0,0.000722139
2100.0,0.000764541
2110.0,0.000807134
2120.0,0.000864366
2130.0,0.000906351
2138.0,0.00093812
2140.0,0.00094645
2150.0,0.0010101
2160.0,0.0010603
2170.0,0.00109937
2180.0,0.00115106
2190.0,0.00118889
2200.0,0.00123812
2210.0,0.00132462
2220.0,0.00141676
2230.0,0.00151684
2240.0,0.00160942
2250.0,0.00170746
2260.0,0.00181786
2270.0,0.00193397
2280.0,0.00205083
2290.0,0.00217204
2296.0,0.00224657
2300.0,0.00229853
2310.0,0.00244229
2320.0,0.00258166
2330.0,0.00273713
2340.0,0.00288553
2350.0,0.00304858
2360.0,0.00320048
2370.0,0.00337143
2380.0,0.00354785
2390.0,0.00371441
2400.0,0.00389563
2410.0,0.00405977
2420.0,0.00423081
2430.0,0.00440702
2440.0,0.00458269
2450.0,0.00476209
2460.0,0.00492619
2470.0,0.00510019
2480.0,0.00528723
2490.0,0.00546207
2500.0,0.00562708
2510.0,0.00581834
2520.0,0.00598882
2530.0,0.00617323
2537.0,0.00630499
2540.0,0.00634653
2550.0,0.0064808
2560.0,0.00660529
2570.0,0.00674436
2580.0,0.0068796
2590.0,0.00701686
2600.0,0.0071563
2610.0,0.00728687
2620.0,0.00743442
2630.0,0.00757259
2640.0,0.00772153
2650.0,0.00786936
2660.0,0.00800625
2670.0,0.00815495
2680.0,0.00831383
2690.0,0.00845166
2700.0,0.00858439
2710.0,0.0087926
2720.0,0.00900451
2730.0,0.00918975
2740.0,0.00939719
2750.0,0.00960011
2760.0,0.00971989
2770.0,0.00981698
2780.0,0.00993037
2790.0,0.0100202
2800.0,0.010159
2810.0,0.0102308
2820.0,0.0103177
2830.0,0.0104046
2840.0,0.0104918
2850.0,0.0105792
2860.0,0.0106621
2870.0,0.0107334
2880.0,0.0108085
2890.0,0.010879
2900.0,0.0109513
2910.0,0.0109308
2920.0,0.0109221
2930.0,0.0109128
2940.0,0.0108858
2950.0,0.0108719
2960.0,0.0108514
2970.0,0.010816
2980.0,0.0107822
2990.0,0.0107449
3000.0,0.0107098
3010.0,0.0106692
3020.0,0.0106371
3030.0,0.0106057
3040.0,0.0105507
3050.0,0.010515
3060.0,0.0104806
3070.0,0.0104377
3080.0,0.0104048
3090.0,0.0103489
3100.0,0.0103202
3110.0,0.0104073
3120.0,0.0104895
3130.0,0.0105688
3140.0,0.010666
3150.0,0.0107661
3160.0,0.0108605
3170.0,0.0109634
3180.0,0.0110779
3190.0,0.011171
3200.0,0.011293
3210.0,0.0113996
3220.0,0.0115326
3230.0,0.0116609
3240.0,0.0117793
3250.0,0.0119045
3260.0,0.0120316
3270.0,0.0121699
3280.0,0.0123048
3290.0,0.012436
3300.0,0.0125804
3310.0,0.0127197
3320.0,0.012848
3330.0,0.0129857
3340.0,0.0131251
3350.0,0.0132828
3360.0,0.0134113
3370.0,0.0135418
3380.0,0.0136854
3390.0,0.0138057
3400.0,0.013991
3410.0,0.0141148
3420.0,0.0142505
3430.0,0.0143787
3440.0,0.0145105
3450.0,0.0146264
3460.0,0.0147661
3470.0,0.0148935
3480.0,0.0150198
3490.0,0.0151365
3500.0,0.0152627
3510.0,0.0153794
3520.0,0.0155088
3530.0,0.0156329
3540.0,0.0157519
3550.0,0.0158683
3560.0,0.0159957
3570.0,0.0161127
3580.0,0.0162378
3590.0,0.0163501
3600.0,0.0164649
3610.0,0.0165864
3620.0,0.0166947
3630.0,0.0168127
3640.0,0.016929
3650.0,0.0170376
3660.0,0.0171485
3670.0,0.0172585
3680.0,0.0173664
3690.0,0.0174626
3700.0,0.017574
3710.0,0.0176783
3720.0,0.0177865
3730.0,0.0178769
3740.0,0.0179694
3750.0,0.0180659
3760.0,0.0181603
3770.0,0.018258
3780.0,0.0183362
3790.0,0.018424
3800.0,0.0185099
3810.0,0.0185933
3820.0,0.0186766
3830.0,0.0187507
3840.0,0.0188307
3850.0,0.0188973
3860.0,0.0189782
3870.0,0.0190482
3880.0,0.0191096
3890.0,0.019173
3900.0,0.0192381
3910.0,0.0193099
3920.0,0.0193755
3930.0,0.0194376
3940.0,0.0194899
3950.0,0.0195407
3960.0,0.0195928
3970.0,0.0196439
3980.0,0.019699
3990.0,0.0197522
4000.0,0.0198057
4010.0,0.0197607
4020.0,0.0197217
4030.0,0.0196611
4040.0,0.0196077
4050.0,0.0195586
4060.0,0.0195
4070.0,0.0194664
4080.0,0.0194045
4090.0,0.0193458
4100.0,0.0192858
4110.0,0.0192441
4120.0,0.0191808
4130.0,0.0191257
4140.0,0.0190752
4150.0,0.019016
4160.0,0.018968
4170.0,0.0189151
4180.0,0.0188645
4190.0,0.018802
4200.0,0.0187582
4210.0,0.0187731
4220.0,0.0187948
4230.0,0.0188058
4240.0,0.0188251
4250.0,0.0188446
4260.0,0.0188693
4270.0,0.0188836
4280.0,0.0189126
4290.0,0.0189234
4300.0,0.0189469
4310.0,0.0189683
4320.0,0.0189937
4330.0,0.0190143
4340.0,0.0190452
4350.0,0.0190643
4360.0,0.0190992
4370.0,0.0191205
4380.0,0.019144
4390.0,0.0191881
4400.0,0.0192114
4410.0,0.0192459
4420.0,0.0192677
4430.0,0.0193074
4440.0,0.0193435
4450.0,0.0193719
4460.0,0.0194133
4470.0,0.0194529
4480.0,0.0194904
4490.0,0.019524
4500.0,0.0195687
4510.0,0.0197636
4520.0,0.0199592
4530.0,0.0201664
4540.0,0.0203568
4550.0,0.0205591
4560.0,0.0207671
4570.0,0.0209664
4580.0,0.0211749
4590.0,0.0213763
4600.0,0.0215871
4610.0,0.0217913
4620.0,0.0220018
4630.0,0.0222184
4640.0,0.0224235
4650.0,0.0226309
4660.0,0.0228333
4670.0,0.0230662
4680.0,0.0232643
4690.0,0.0234878
4700.0,0.023699
4710.0,0.0239235
4720.0,0.0241295
4730.0,0.0243649
4740.0,0.0245756
4750.0,0.0248043
4760.0,0.0250181
4770.0,0.0252466
4780.0,0.0254669
4790.0,0.0256984
4800.0,0.0259192
4810.0,0.0261525
4820.0,0.0263762
4830.0,0.0266007
4840.0,0.0268252
4850.0,0.0270651
4860.0,0.0272906
4870.0,0.0275157
4880.0,0.0277665
4890.0,0.0279914
4900.0,0.0282259
4910.0,0.0284627
4920.0,0.0287132
4930.0,0.0289438
4940.0,0.0292009
4950.0,0.0294388
4960.0,0.0296847
4970.0,0.0299196
4980.0,0.0301881
4990.0,0.0304256
5000.0,0.0306826
5010.0,0.0309851
5020.0,0.0312854
5030.0,0.0315756
5040.0,0.0318925
5050.0,0.0321796
5060.0,0.0324829
5070.0,0.0327806
5080.0,0.0331035
5090.0,0.0334023
5100.0,0.033704
5110.0,0.0340153
5120.0,0.0343142
5130.0,0.0346104
5140.0,0.0349394
5150.0,0.0352367
5160.0,0.035545
5170.0,0.0358412
5180.0,0.0361381
5190.0,0.0364366
5200.0,0.0367253
5210.0,0.0370399
5220.0,0.0373272
5230.0,0.0376343
5240.0,0.0379206
5250.0,0.0382023
5260.0,0.0384878
5270.0,0.0387869
5280.0,0.0390505
5290.0,0.0393322
5300.0,0.0396136
5310.0,0.0398784
5320.0,0.0401434
5330.0,0.0404009
5340.0,0.0406666
5350.0,0.0409249
5360.0,0.0411802
5370.0,0.0414344
5380.0,0.0416849
5390.0,0.0419146
5400.0,0.0421439
5410.0,0.0423885
5420.0,0.042627
5430.0,0.0428621
5440.0,0.0430811
5450.0,0.0433051
5460.0,0.0435262
5470.0,0.0437395
5480.0,0.0439596
5490.0,0.0441769
5500.0,0.0443862
5510.0,0.0445703
5520.0,0.0447767
5530.0,0.0449394
5540.0,0.0451381
5550.0,0.045314
5560.0,0.0455134
5570.0,0.0456831
5580.0,0.0458673
5590.0,0.0460494
5600.0,0.0462234
5610.0,0.0463192
5620.0,0.0464033
5630.0,0.0464842
5640.0,0.0465592
5650.0,0.0466602
5660.0,0.0467288
5670.0,0.0468052
5680.0,0.0468768
5690.0,0.0470037
5700.0,0.0470312
5710.0,0.0471311
5720.0,0.0472287
5730.0,0.0473161
5740.0,0.0474038
5750.0,0.0475023
5760.0,0.0476011
5770.0,0.0476821
5780.0,0.0477858
5790.0,0.0478666
5800.0,0.0479611
5810.0,0.048085
5820.0,0.0481773
5830.0,0.0482808
5840.0,0.0483696
5850.0,0.0485088
5860.0,0.048614
5870.0,0.0487219
5880.0,0.0488222
5890.0,0.0489265
5900.0,0.0490631
5910.0,0.0491958
5920.0,0.049316
5930.0,0.0494278
5940.0,0.0495459
5950.0,0.0496937
5960.0,0.0498201
5970.0,0.0499419
5980.0,0.0500898
5990.0,0.0502192
6000.0,0.0503645
6010.0,0.0504125
6020.0,0.0504581
6030.0,0.0505095
6040.0,0.0505563
6050.0,0.0506147
6060.0,0.0506879
6070.0,0.0507475
6080.0,0.0508152
6090.0,0.0508827
6100.0,0.0509665
6110.0,0.0510144
6120.0,0.0510927
6130.0,0.0511656
6140.0,0.0512355
6150.0,0.0513306
6160.0,0.051433
6170.0,0.0514966
6180.0,0.0515847
6190.0,0.051663
6200.0,0.0517449
6210.0,0.051832
6220.0,0.0519577
6230.0,0.0520192
6240.0,0.0521515
6250.0,0.0522308
6260.0,0.0523218
6270.0,0.0524412
6280.0,0.0525163
6290.0,0.0526064
6300.0,0.052718
6310.0,0.052822
6320.0,0.0529237
6330.0,0.0530261
6340.0,0.0530931
6350.0,0.0532057
6360.0,0.0532575
6370.0,0.053372
6380.0,0.0534371
6390.0,0.053559
6400.0,0.053623
6410.0,0.0536972
6420.0,0.0537827
6430.0,0.0538874
6440.0,0.0539845
6450.0,0.0540904
6460.0,0.0541865
6470.0,0.0542882
6480.0,0.0543935
6490.0,0.0544687
6500.0,0.0546148
6510.0,0.0545463
6520.0,0.0545983
6530.0,0.0545235
6540.0,0.0544809
6550.0,0.0544897
6560.0,0.0544195
6570.0,0.0544219
6580.0,0.0543264
6590.0,0.0543252
6600.0,0.0542519
6610.0,0.0542464
6620.0,0.0541595
6630.0,0.0541776
6640.0,0.0541302
6650.0,0.0541129
6660.0,0.0540702
6670.0,0.0540744
6680.0,0.0540656
6690.0,0.0540398
6700.0,0.0540811
6710.0,0.0540411
6720.0,0.054085
6730.0,0.0540817
6740.0,0.0541298
6750.0,0.0540849
6760.0,0.0541501
6770.0,0.0541369
6780.0,0.0542181
6790.0,0.0541922
6800.0,0.0542449
6810.0,0.0542574
6820.0,0.0543319
6830.0,0.0543134
6840.0,0.0543953
6850.0,0.0543927
6860.0,0.0544764
6870.0,0.0544469
6880.0,0.0545352
6890.0,0.0545359
6900.0,0.0546344
6910.0,0.0546456
6920.0,0.0547106
6930.0,0.0547223
6940.0,0.0547915
6950.0,0.0548125
6960.0,0.054879
6970.0,0.0548946
6980.0,0.0549672
6990.0,0.0549565
7000.0,0.0550366
7010.0,0.0549782
7020.0,0.054942
7030.0,0.0548579
7040.0,0.0548381
7050.0,0.0547774
7060.0,0.0547344
7070.0,0.0546491
7080.0,0.0546109
7090.0,0.0545554
7100.0,0.054503
7110.0,0.0544037
7120.0,0.0543646
7130.0,0.0542893
7140.0,0.0542334
7150.0,0.0541281
7160.0,0.0540986
7170.0,0.053981
7180.0,0.0539227
7190.0,0.0538187
7200.0,0.0537504
7210.0,0.0536357
7220.0,0.0535885
7230.0,0.0534934
7240.0,0.0534316
7250.0,0.0533265
7260.0,0.0532355
7270.0,0.0531377
7280.0,0.0530552
7290.0,0.0529545
7300.0,0.0528789
7310.0,0.0527791
7320.0,0.0527181
7330.0,0.0526175
7340.0,0.0525609
7350.0,0.0524377
7360.0,0.0523773
7370.0,0.0522688
7380.0,0.0522073
7390.0,0.0521218
7400.0,0.0520469
7410.0,0.0519881
7420.0,0.0519032
7430.0,0.0518117
7440.0,0.0517683
7450.0,0.05169
7460.0,0.0516515
7470.0,0.0515814
7480.0,0.0515248
7490.0,0.0514306
7500.0,0.0514101
7510.0,0.0513484
7520.0,0.051327
7530.0,0.051245
7540.0,0.0512326
7550.0,0.0511494
7560.0,0.0511422
7570.0,0.0510841
7580.0,0.0510567
7590.0,0.0510159
7600.0,0.0509927
7610.0,0.050937
7620.0,0.0509221
7630.0,0.0508928
7640.0,0.0508654
7650.0,0.0508261
7660.0,0.05083
7670.0,0.0507805
7680.0,0.0507675
7690.0,0.0507075
7700.0,0.0507167
7710.0,0.0506647
7720.0,0.050661
7730.0,0.0506147
7740.0,0.0506001
7750.0,0.0505656
7760.0,0.050548
7770.0,0.0505344
7780.0,0.0504795
7790.0,0.050443
7800.0,0.0504417
7810.0,0.0503875
7820.0,0.0503564
7830.0,0.0503257
7840.0,0.0502966
7850.0,0.0502529
7860.0,0.0502061
7870.0,0.0501708
7880.0,0.050127
7890.0,0.0500711
7900.0,0.0500332
7910.0,0.0499669
7920.0,0.0499295
7930.0,0.0498746
7940.0,0.049824
7950.0,0.0497384
7960.0,0.049697
7970.0,0.0496261
7980.0,0.0495594
7990.0,0.0494807
8000.0,0.0504841
8010.0,0.0502689
8020.0,0.050089
8030.0,0.0498299
8040.0,0.0496815
8050.0,0.0494246
8060.0,0.049257
8070.0,0.0490552
8080.0,0.0488232
8090.0,0.0485729
8100.0,0.0483834
8110.0,0.0481236
8120.0,0.0479251
8130.0,0.0476719
8140.0,0.0474396
8150.0,0.0472318
8160.0,0.0469614
8170.0,0.0467099
8180.0,0.0465011
8190.0,0.0462241
8200.0,0.0459836
8210.0,0.0457704
8220.0,0.0455192
8230.0,0.0452103
8240.0,0.0449918
8250.0,0.0446931
8260.0,0.0444523
8270.0,0.0441723
8280.0,0.0439688
8290.0,0.0436337
8300.0,0.043399
8310.0,0.0431026
8320.0,0.0428708
8330.0,0.0425158
8340.0,0.0423321
8350.0,0.0420158
8360.0,0.0420038
8370.0,0.0418656
8380.0,0.0417951
8390.0,0.0417557
8400.0,0.0416788
8410.0,0.0416176
8420.0,0.0415388
8430.0,0.0414309
8440.0,0.0413122
8450.0,0.041242
8460.0,0.0411838
8470.0,0.0410831
8480.0,0.0409514
8490.0,0.0408618
8500.0,0.0407842
8510.0,0.0406281
8520.0,0.0405429
8530.0,0.0404262
8540.0,0.0403027
8550.0,0.0401658
8560.0,0.0400365
8570.0,0.0399263
8580.0,0.039803
8590.0,0.0396458
8600.0,0.0395487
8610.0,0.0394197
8620.0,0.0392481
8630.0,0.0391049
8640.0,0.0389303
8650.0,0.0388152
8660.0,0.038623
8670.0,0.0385129
8680.0,0.0383301
8690.0,0.0381727
8700.0,0.0379831
8710.0,0.0378216
8720.0,0.0376637
8730.0,0.0374531
8740.0,0.0373039
8750.0,0.037139
8760.0,0.0369531
8770.0,0.036796
8780.0,0.0365917
8790.0,0.0363972
8800.0,0.0362096
8810.0,0.0360126
8820.0,0.0358003
8830.0,0.0356289
8840.0,0.0354251
8850.0,0.035232
8860.0,0.0350146
8870.0,0.0348425
8880.0,0.0345889
8890.0,0.0344059
8900.0,0.0341914
8910.0,0.0339893
8920.0,0.0337387
8930.0,0.0335303
8940.0,0.0333386
8950.0,0.0330821
8960.0,0.0328317
8970.0,0.0326337
8980.0,0.032404
8990.0,0.0321585
9000.0,0.0319044
9010.0,0.0316644
9020.0,0.0315004
9030.0,0.0312518
9040.0,0.0310458
9050.0,0.0308059
9060.0,0.0305838
9070.0,0.0303331
9080.0,0.0301218
9090.0,0.0298756
9100.0,0.0296418
9110.0,0.0294176
9120.0,0.0291734
9130.0,0.0289667
9140.0,0.0286704
9150.0,0.0284666
9160.0,0.0281564
9170.0,0.0279383
9180.0,0.0277115
9190.0,0.0274532
9200.0,0.0272276
9210.0,0.0269157
9220.0,0.0266661
9230.0,0.0264185
9240.0,0.0261145
9250.0,0.0259026
9260.0,0.0255884
9270.0,0.0253414
9280.0,0.025046
9290.0,0.0247843
9300.0,0.024499
9310.0,0.0242292
9320.0,0.0239238
9330.0,0.02363
9340.0,0.0233698
9350.0,0.0230656
9360.0,0.022769
9370.0,0.0224661
9380.0,0.0221557
9390.0,0.0218716
9400.0,0.0215653
9410.0,0.0212917
9420.0,0.0209682
9430.0,0.0206532
9440.0,0.0203594
9450.0,0.0200502
9460.0,0.0197392
9470.0,0.0193891
9480.0,0.0191091
9490.0,0.0188147
9500.0,0.0184633
9510.0,0.0182356
9520.0,0.0179895
9530.0,0.0177152
9540.0,0.0174753
9550.0,0.0172303
9560.0,0.0169887
9570.0,0.0167594
9580.0,0.0164916
9590.0,0.0162447
9600.0,0.0160038
9610.0,0.0157428
9620.0,0.0155084
9630.0,0.0152423
9640.0,0.0150249
9650.0,0.0147609
9660.0,0.0145168
9670.0,0.0142917
9680.0,0.0140268
9690.0,0.0137862
9700.0,0.0135486
9710.0,0.0133054
9720.0,0.0130571
9730.0,0.0127986
9740.0,0.0125713
9750.0,0.012326
9760.0,0.0120691
9770.0,0.0118156
9780.0,0.0115672
9790.0,0.0113167
9800.0,0.0110691
9810.0,0.0108445
9820.0,0.01058
9830.0,0.0103278
9840.0,0.0100845
9850.0,0.00983338
9860.0,0.00960128
9870.0,0.00935941
9880.0,0.00911052
9890.0,0.00886947
9900.0,0.00862721
9910.0,0.00837982
9920.0,0.00814583
9930.0,0.00790508
9940.0,0.00766249
9950.0,0.00743237
9960.0,0.00719173
9970.0,0.00694551
9980.0,0.00671105
9990.0,0.00647608
10000.0,0.00623855
10010.0,0.00611034
10020.0,0.00597053
10030.0,0.00583708
10040.0,0.00570006
10050.0,0.00557907
10060.0,0.00545108
10070.0,0.00531661
10080.0,0.00519354
10090.0,0.00507156
10100.0,0.00494275
10110.0,0.004818
10120.0,0.004698
10130.0,0.00457395
10140.0,0.00445013
10150.0,0.00432489
10160.0,0.00421097
10170.0,0.00409291
10180.0,0.0039732
10190.0,0.00385523
10200.0,0.003739
10210.0,0.0036276
10220.0,0.00350905
10230.0,0.00339518
10240.0,0.00328764
10250.0,0.00317966
10260.0,0.0030672
10270.0,0.00295619
10280.0,0.00285015
10290.0,0.00273843
10300.0,0.0026355
10310.0,0.002536
10320.0,0.00243041
10330.0,0.00232833
10340.0,0.00222454
10350.0,0.00212605
10360.0,0.00202462
10370.0,0.00192621
10380.0,0.00183136
10390.0,0.00173511
10400.0,0.00164006
10410.0,0.00154623
10420.0,0.00145154
10430.0,0.00136038
10440.0,0.0012685
10450.0,0.00117921
10460.0,0.00109124
10470.0,0.00100362
10480.0,0.000917148
10490.0,0.00083098
10500.0,0.000747542
10510.0,0.000730748
10520.0,0.000713992
10530.0,0.000697361
10540.0,0.000680858
10550.0,0.000664754
10560.0,0.000648664
10570.0,0.000631661
10580.0,0.00061599
10590.0,0.000600149
10600.0,0.000584818
10610.0,0.00056956
10620.0,0.000554831
10630.0,0.00053863
10640.0,0.00052393
10650.0,0.000509753
10660.0,0.000495301
10670.0,0.000480978
10680.0,0.000466405
10690.0,0.000451766
10700.0,0.000437909
10710.0,0.000424519
10720.0,0.000411442
10730.0,0.000397812
10740.0,0.000384083
10750.0,0.000371491
10760.0,0.000358739
10770.0,0.000345744
10780.0,0.00033374
10790.0,0.000321359
10800.0,0.000308993
10810.0,0.000296606
10820.0,0.000285121
10830.0,0.000273145
10840.0,0.000261783
10850.0,0.000250215
10860.0,0.000239478
10870.0,0.000228527
10880.0,0.000217746
10890.0,0.000206973
10900.0,0.000196507
10910.0,0.000186191
10920.0,0.000176237
10930.0,0.000166381
10940.0,0.000156638
10950.0,0.000147109
10960.0,0.000137662
10970.0,0.000128422
10980.0,0.000119504
10990.0,0.000110863
11000.0,0.000102118
11010.0,0.000100757
11020.0,9.94531e-05
11030.0,9.76159e-05
11040.0,9.57921e-05
11050.0,9.39816e-05
11060.0,9.21845e-05
11070.0,9.04008e-05
11080.0,8.86304e-05
11090.0,8.68734e-05
11100.0,8.51298e-05
11110.0,8.33997e-05
11120.0,8.16829e-05
11130.0,7.99794e-05
11140.0,7.82894e-05
11150.0,7.66128e-05
11160.0,7.49495e-05
11170.0,7.32996e-05
11180.0,7.16633e-05
11190.0,7.00402e-05
11200.0,6.84306e-05
11210.0,6.68344e-05
11220.0,6.52517e-05
11230.0,6.36823e-05
11240.0,6.21264e-05
11250.0,6.05839e-05
11260.0,5.90548e-05
11270.0,5.75391e-05
11280.0,5.60369e-05
11290.0,5.45482e-05
11300.0,5.30728e-05
11310.0,5.16109e-05
11320.0,5.01624e-05
11330.0,4.87274e-05
11340.0,4.73059e-05
11350.0,4.58978e-05
11360.0,4.45032e-05
11370.0,4.3122e-05
11380.0,4.17543e-05
11390.0,4.04e-05
11400.0,3.90592e-05
11410.0,3.77319e-05
11420.0,3.64181e-05
11430.0,3.51177e-05
11440.0,3.38308e-05
11450.0,3.25574e-05
11460.0,3.12975e-05
11470.0,3.00511e-05
11480.0,2.88182e-05
11490.0,2.75987e-05
11500.0,2.63928e-05
11510.0,2.52003e-05
11520.0,2.40214e-05
11530.0,2.2856e-05
11540.0,2.1704e-05
11550.0,2.05656e-05
11560.0,1.94407e-05
11570.0,1.83293e-05
11580.0,1.72315e-05
11590.0,1.61471e-05
11600.0,1.50763e-05
11610.0,1.4019e-05
11620.0,1.29753e-05
11630.0,1.19451e-05
