Wavelength,Transmission
1150.0,0.000646129
1160.0,0.00128892
1170.0,0.00189951
1180.0,0.00271039
1190.0,0.00344224
1200.0,0.00422177
1210.0,0.00516729
1220.0,0.00608603
1230.0,0.00617551
1240.0,0.00623134
1250.0,0.00625648
1260.0,0.00625194
1270.0,0.00621455
1280.0,0.00616045
1290.0,0.00609446
1300.0,0.00602372
1310.0,0.00596431
1320.0,0.0059067
1330.0,0.00584313
1340.0,0.00578079
1350.0,0.00571754
1360.0,0.00565486
1370.0,0.00559644
1380.0,0.00553837
1390.0,0.00547433
1400.0,0.00541035
1410.0,0.00539331
1420.0,0.00541626
1430.0,0.00542635
1440.0,0.00543468
1450.0,0.0054211
1460.0,0.00540513
1470.0,0.00538136
1480.0,0.00535461
1490.0,0.00532833
1500.0,0.00529822
1510.0,0.00533054
1520.0,0.00535966
1530.0,0.00541996
1540.0,0.00547905
1550.0,0.00532796
1560.0,0.00561004
1570.0,0.00567957
1580.0,0.00575209
1590.0,0.0055844
1600.0,0.0054257
1610.0,0.00546645
1620.0,0.00553546
1630.0,0.00563658
1640.0,0.00574881
1650.0,0.00587379
1660.0,0.0060138
1670.0,0.00616854
1680.0,0.00633765
1690.0,0.0065202
1700.0,0.00671609
1710.0,0.0069217
1720.0,0.00713946
1730.0,0.00736854
1740.0,0.00760805
1750.0,0.00785726
1760.0,0.00807009
1770.0,0.00828896
1780.0,0.0085139
1790.0,0.00874523
1800.0,0.0089831
1810.0,0.00920913
1820.0,0.00944089
1830.0,0.00964793
1840.0,0.00984603
1850.0,0.010048
1860.0,0.0102555
1870.0,0.010467
1880.0,0.0106824
1890.0,0.0109018
1900.0,0.0111251
1910.0,0.0113516
1920.0,0.011582
1930.0,0.0118164
1940.0,0.0120546
1950.0,0.0122968
1960.0,0.0126109
1970.0,0.0129319
1980.0,0.01326
1990.0,0.0135952
2000.0,0.0139377
2010.0,0.014241
2020.0,0.0145494
2030.0,0.0148628
2040.0,0.0151809
2050.0,0.0155037
2060.0,0.015714
2070.0,0.0159247
2080.0,0.0161355
2090.0,0.0163463
2100.0,0.0165568
2110.0,0.0167704
2120.0,0.0169833
2130.0,0.0171955
2140.0,0.0174064
2150.0,0.0176159
2160.0,0.0178193
2170.0,0.0180207
2180.0,0.0182197
2190.0,0.0184161
2200.0,0.0186097
2210.0,0.0187394
2220.0,0.0188647
2230.0,0.0189849
2240.0,0.0191001
2250.0,0.0192098
2260.0,0.0193186
2270.0,0.0194219
2280.0,0.01952
2290.0,0.0196131
2300.0,0.0197017
2310.0,0.0197805
2320.0,0.019855
2330.0,0.0199256
2340.0,0.0199924
2350.0,0.0200559
2360.0,0.0201161
2370.0,0.0201732
2380.0,0.0202277
2390.0,0.0202797
2400.0,0.0203295
2410.0,0.0203535
2420.0,0.0203757
2430.0,0.0203965
2440.0,0.020416
2450.0,0.0204346
2460.0,0.0204472
2470.0,0.0204594
2480.0,0.0204713
2490.0,0.0204833
2500.0,0.0204956
2510.0,0.0204826
2520.0,0.0204701
2530.0,0.0204582
2540.0,0.0204469
2550.0,0.020436
2560.0,0.0203998
2570.0,0.0203641
2580.0,0.0203288
2590.0,0.0202941
2600.0,0.0202598
2610.0,0.0201655
2620.0,0.0200719
2630.0,0.0199791
2640.0,0.0198871
2650.0,0.0197958
2660.0,0.0197054
2670.0,0.0196156
2680.0,0.0195265
2690.0,0.0194381
2700.0,0.0193502
2710.0,0.0192671
2720.0,0.0191846
2730.0,0.0191025
2740.0,0.0190209
2750.0,0.0189398
2760.0,0.0188545
2770.0,0.0187697
2780.0,0.0186855
2790.0,0.0186016
2800.0,0.0185182
2810.0,0.0181021
2820.0,0.0176953
2830.0,0.0172977
2840.0,0.0169092
2850.0,0.0165294
2860.0,0.0161615
2870.0,0.0158018
2880.0,0.0154501
2890.0,0.0151062
2900.0,0.0147699
2910.0,0.0144376
2920.0,0.0141127
2930.0,0.013795
2940.0,0.0134845
2950.0,0.0131808
2960.0,0.0128844
2970.0,0.0125945
2980.0,0.0123111
2990.0,0.0120339
3000.0,0.0117629
3010.0,0.0108385
3020.0,0.00998658
3030.0,0.00920157
3040.0,0.00847818
3050.0,0.0078116
3060.0,0.00719564
3070.0,0.00662822
3080.0,0.00610552
3090.0,0.005624
3100.0,0.00518043
3110.0,0.00477513
3120.0,0.00440152
3130.0,0.00405713
3140.0,0.00373968
3150.0,0.00344706
3160.0,0.00317608
3170.0,0.00292638
3180.0,0.0026963
3190.0,0.00248431
3200.0,0.00228898
3210.0,0.00210899
3220.0,0.00194316
3230.0,0.00179037
3240.0,0.00164959
3250.0,0.00151988
3260.0,0.00140037
3270.0,0.00129026
3280.0,0.0011888
3290.0,0.00109533
3300.0,0.00100921
3310.0,0.000929857
3320.0,0.000856751
3330.0,0.000789394
3340.0,0.000727333
3350.0,0.000670152
3360.0,0.000617468
3370.0,0.000568928
3380.0,0.000524207
3390.0,0.000483006
3400.0,0.000445044
3410.0,0.000410066
3420.0,0.000377839
3430.0,0.000348147
3440.0,0.000320792
3450.0,0.000295589
3460.0,0.000272367
3470.0,0.000250971
3480.0,0.000231258
3490.0,0.000213094
3500.0,0.00019636
3510.0,0.000193685
3520.0,0.000191048
3530.0,0.000188449
3540.0,0.000185887
3550.0,0.000183361
3560.0,0.00018087
3570.0,0.000178414
3580.0,0.000175993
3590.0,0.000173606
3600.0,0.000171252
3610.0,0.000168931
3620.0,0.000166641
3630.0,0.000164383
3640.0,0.000162156
3650.0,0.000159959
3660.0,0.000157792
3670.0,0.000155655
3680.0,0.000153547
3690.0,0.000151468
3700.0,0.000149417
3710.0,0.000147393
3720.0,0.000145397
3730.0,0.000143427
3740.0,0.000141485
3750.0,0.000139568
3760.0,0.000137677
3770.0,0.000135811
3780.0,0.000133971
3790.0,0.000132155
3800.0,0.000130362
3810.0,0.000128594
3820.0,0.000126849
3830.0,0.000125127
3840.0,0.000123427
3850.0,0.000121749
3860.0,0.000120093
3870.0,0.000118459
3880.0,0.000116847
3890.0,0.000115256
3900.0,0.000113685
3910.0,0.000112135
3920.0,0.000110604
3930.0,0.000109094
3940.0,0.000107603
3950.0,0.000106131
3960.0,0.000104678
3970.0,0.000103244
3980.0,0.000101828
3990.0,0.00010043
4000.0,9.905e-05
4010.0,9.84103e-05
4020.0,9.77734e-05
4030.0,9.71392e-05
4040.0,9.65081e-05
4050.0,9.588e-05
4060.0,9.52546e-05
4070.0,9.46321e-05
4080.0,9.40127e-05
4090.0,9.33964e-05
4100.0,9.27833e-05
4110.0,9.21731e-05
4120.0,9.15657e-05
4130.0,9.09614e-05
4140.0,9.03602e-05
4150.0,8.97623e-05
4160.0,8.90268e-05
4170.0,8.82899e-05
4180.0,8.75583e-05
4190.0,8.68319e-05
4200.0,8.61109e-05
4210.0,8.5395e-05
4220.0,8.46845e-05
4230.0,8.39795e-05
4240.0,8.32798e-05
4250.0,8.25853e-05
4260.0,8.18962e-05
4270.0,8.12124e-05
4280.0,8.05339e-05
4290.0,7.98606e-05
4300.0,7.91922e-05
4310.0,7.85035e-05
4320.0,7.78203e-05
4330.0,7.71431e-05
4340.0,7.64716e-05
4350.0,7.58056e-05
4360.0,7.5145e-05
4370.0,7.44896e-05
4380.0,7.38395e-05
4390.0,7.31951e-05
4400.0,7.25559e-05
4410.0,7.18899e-05
4420.0,7.12299e-05
4430.0,7.05756e-05
4440.0,6.99271e-05
4450.0,6.92841e-05
4460.0,6.8647e-05
4470.0,6.80155e-05
4480.0,6.73898e-05
4490.0,6.67701e-05
4500.0,6.6156e-05
4510.0,6.52149e-05
4520.0,6.42868e-05
4530.0,6.33719e-05
4540.0,6.24699e-05
4550.0,6.15809e-05
4560.0,6.07043e-05
4570.0,5.98402e-05
4580.0,5.89882e-05
4590.0,5.81484e-05
4600.0,5.73206e-05
4610.0,5.65045e-05
4620.0,5.57e-05
4630.0,5.49067e-05
4640.0,5.41247e-05
4650.0,5.33539e-05
4660.0,5.25941e-05
4670.0,5.18453e-05
4680.0,5.1107e-05
4690.0,5.03793e-05
4700.0,4.96617e-05
4710.0,4.89543e-05
4720.0,4.8257e-05
4730.0,4.75697e-05
4740.0,4.68922e-05
4750.0,4.62245e-05
4760.0,4.55662e-05
4770.0,4.49173e-05
4780.0,4.42776e-05
4790.0,4.3647e-05
4800.0,4.30253e-05
4810.0,4.24125e-05
4820.0,4.18085e-05
4830.0,4.12132e-05
4840.0,4.06265e-05
4850.0,4.00481e-05
4860.0,3.94778e-05
4870.0,3.89156e-05
4880.0,3.83614e-05
4890.0,3.78153e-05
4900.0,3.72771e-05
4910.0,3.67465e-05
4920.0,3.62233e-05
4930.0,3.57077e-05
4940.0,3.51996e-05
4950.0,3.46988e-05
4960.0,3.42051e-05
4970.0,3.37184e-05
4980.0,3.32386e-05
4990.0,3.27657e-05
5000.0,3.22996e-05
5010.0,3.1747e-05
5020.0,3.12039e-05
5030.0,3.06702e-05
5040.0,3.01456e-05
5050.0,2.963e-05
5060.0,2.91232e-05
5070.0,2.86251e-05
5080.0,2.81355e-05
5090.0,2.76544e-05
5100.0,2.71815e-05
5110.0,2.67168e-05
5120.0,2.626e-05
5130.0,2.58108e-05
5140.0,2.53694e-05
5150.0,2.49356e-05
5160.0,2.45093e-05
5170.0,2.40903e-05
5180.0,2.36783e-05
5190.0,2.32733e-05
5200.0,2.28753e-05
5210.0,2.24841e-05
5220.0,2.20995e-05
5230.0,2.17214e-05
5240.0,2.13498e-05
5250.0,2.09845e-05
5260.0,2.06254e-05
5270.0,2.02725e-05
5280.0,1.99256e-05
5290.0,1.95846e-05
5300.0,1.92494e-05
5310.0,1.89199e-05
5320.0,1.8596e-05
5330.0,1.82776e-05
5340.0,1.79646e-05
5350.0,1.7657e-05
5360.0,1.73545e-05
5370.0,1.70571e-05
5380.0,1.67647e-05
5390.0,1.64773e-05
5400.0,1.61949e-05
5410.0,1.59135e-05
5420.0,1.56368e-05
5430.0,1.5365e-05
5440.0,1.50978e-05
5450.0,1.48352e-05
5460.0,1.4577e-05
5470.0,1.43233e-05
5480.0,1.40739e-05
5490.0,1.38288e-05
5500.0,1.35879e-05
5510.0,1.32682e-05
5520.0,1.29559e-05
5530.0,1.26509e-05
5540.0,1.23531e-05
5550.0,1.20621e-05
5560.0,1.1778e-05
5570.0,1.15004e-05
5580.0,1.12294e-05
5590.0,1.09648e-05
5600.0,1.07063e-05
5610.0,1.04539e-05
5620.0,1.02075e-05
5630.0,9.96674e-06
5640.0,9.73166e-06
5650.0,9.50214e-06
5660.0,9.27803e-06
5670.0,9.05919e-06
5680.0,8.84545e-06
5690.0,8.63671e-06
5700.0,8.43289e-06
5710.0,8.23389e-06
5720.0,8.03959e-06
5730.0,7.84985e-06
5740.0,7.66457e-06
5750.0,7.48367e-06
5760.0,7.30703e-06
5770.0,7.13458e-06
5780.0,6.96619e-06
5790.0,6.80176e-06
5800.0,6.6412e-06
5810.0,6.48474e-06
5820.0,6.33196e-06
5830.0,6.18278e-06
5840.0,6.0371e-06
5850.0,5.89484e-06
5860.0,5.75596e-06
5870.0,5.62035e-06
5880.0,5.48796e-06
5890.0,5.35868e-06
5900.0,5.23244e-06
5910.0,5.1099e-06
5920.0,4.99025e-06
5930.0,4.87341e-06
5940.0,4.75932e-06
5950.0,4.64791e-06
5960.0,4.53912e-06
5970.0,4.43289e-06
5980.0,4.32915e-06
5990.0,4.22784e-06
6000.0,4.12892e-06
