Wavelength,Transmission
1150.0,0.000519676
1150.210815,0.000527111
1150.486084,0.000538018
1150.762085,0.000548954
1151.037598,0.00055987
1151.31311,0.000570787
1151.588745,0.000581708
1151.865112,0.000592659
1152.140747,0.00060358
1152.417847,0.00061456
1152.693726,0.000625491
1152.969727,0.000636427
1153.246338,0.000647387
1153.523071,0.000658352
1153.799194,0.000669293
1154.075317,0.000680234
1154.352295,0.000691208
1154.62854,0.000702154
1154.905029,0.000713109
1155.182129,0.000724089
1155.459229,0.000735068
1155.73584,0.000746028
1156.013184,0.000757018
1156.289917,0.000767983
1156.567261,0.000778972
1156.844116,0.000789942
1157.121704,0.00080094
1157.399414,0.000811944
1157.677002,0.000822943
1157.954224,0.000833927
1158.230713,0.000844883
1158.508667,0.000855896
1158.786621,0.000866909
1159.063965,0.000877898
1159.341431,0.000888892
1159.619629,0.000899916
1159.897827,0.000910938
1160.0,0.000915276
1160.176147,0.000922512
1160.453857,0.000934375
1160.7323,0.000946269
1161.010132,0.000958138
1161.288696,0.000970037
1161.566772,0.000981916
1161.845459,0.000993821
1162.122925,0.00100567
1162.401733,0.00101758
1162.680664,0.0010295
1162.959595,0.00104141
1163.238037,0.00105331
1163.516479,0.0010652
1163.795654,0.00107713
1164.074829,0.00108906
1164.353516,0.00110096
1164.632202,0.00111287
1164.911743,0.00112481
1165.191162,0.00113674
1165.470093,0.00114866
1165.749146,0.00116058
1166.028809,0.00117253
1166.307983,0.00118445
1166.587769,0.0011964
1166.867065,0.00120833
1167.146973,0.00122029
1167.427002,0.00123225
1167.706543,0.0012442
1167.986694,0.00125616
1168.266968,0.00126814
1168.546631,0.00128008
1168.826294,0.00129203
1169.106079,0.00130398
1169.386597,0.00131596
1169.666504,0.00132792
1169.946533,0.00133988
1170.0,0.00134275
1170.227295,0.00135436
1170.508057,0.00136943
1170.788818,0.0013845
1171.069092,0.00139954
1171.350098,0.00141462
1171.630493,0.00142967
1171.911621,0.00144475
1172.192139,0.00145981
1172.473389,0.0014749
1172.754761,0.00149
1173.03479,0.00150503
1173.316284,0.00152014
1173.597778,0.00153524
1173.878784,0.00155032
1174.15979,0.0015654
1174.441406,0.00158052
1174.723267,0.00159564
1175.004395,0.00161073
1175.285767,0.00162583
1175.568359,0.00164099
1175.849121,0.00165606
1176.131836,0.00167123
1176.412842,0.00168631
1176.695068,0.00170146
1176.976685,0.00171657
1177.259155,0.00173173
1177.540894,0.00174685
1177.824097,0.00176205
1178.106079,0.00177718
1178.388062,0.00179231
1178.670776,0.00180749
1178.953613,0.00182266
1179.235229,0.00183778
1179.517456,0.00185292
1179.800537,0.00186811
1180.0,0.00187889
1180.083618,0.00188304
1180.366089,0.00189732
1180.649292,0.00191163
1180.932495,0.00192594
1181.21521,0.00194023
1181.498657,0.00195455
1181.781494,0.00196885
1182.065063,0.00198318
1182.348022,0.00199748
1182.631714,0.00201181
1182.915405,0.00202615
1183.198608,0.00204046
1183.481812,0.00205478
1183.765137,0.00206909
1184.049194,0.00208345
1184.333252,0.0020978
1184.616821,0.00211213
1184.900391,0.00212646
1185.184692,0.00214083
1185.468994,0.0021552
1185.753418,0.00216957
1186.037354,0.00218392
1186.321899,0.0021983
1186.605835,0.00221265
1186.889893,0.00222701
1187.174072,0.00224137
1187.458862,0.00225576
1187.743164,0.00227013
1188.028076,0.00228453
1188.31311,0.00229893
1188.598267,0.00231334
1188.882812,0.00232772
1189.167358,0.0023421
1189.452759,0.00235652
1189.738159,0.00237095
1190.0,0.00238437
1190.022949,0.00238537
1190.307739,0.00240014
1190.592773,0.00241492
1190.878418,0.00242973
1191.164062,0.00244454
1191.449219,0.00245932
1191.735107,0.00247415
1192.020386,0.00248894
1192.306396,0.00250377
1192.591797,0.00251857
1192.87793,0.0025334
1193.164185,0.00254825
1193.449829,0.00256306
1193.735474,0.00257787
1194.021973,0.00259272
1194.307739,0.00260754
1194.593628,0.00262237
1194.880249,0.00263723
1195.166992,0.0026521
1195.453125,0.00266693
1195.739258,0.00268177
1196.026733,0.00269668
1196.31311,0.00271152
1196.600098,0.0027264
1196.886597,0.00274126
1197.173096,0.00275612
1197.460327,0.00277101
1197.747681,0.00278591
1198.033691,0.00280074
1198.321777,0.00281568
1198.608643,0.00283055
1198.89563,0.00284543
1199.183228,0.00286035
1199.470947,0.00287526
1199.758057,0.00289015
1200.0,0.00290223
1200.045288,0.00290444
1200.333252,0.00291552
1200.621216,0.0029266
1200.908691,0.00293767
1201.196777,0.00294875
1201.484375,0.00295982
1201.771973,0.00297089
1202.060303,0.00298198
1202.348022,0.00299305
1202.636475,0.00300415
1202.924438,0.00301524
1203.213013,0.00302634
1203.501709,0.00303745
1203.790527,0.00304857
1204.078613,0.00305965
1204.366943,0.00307075
1204.655884,0.00308187
1204.944214,0.00309296
1205.232666,0.00310406
1205.52124,0.00311517
1205.810425,0.0031263
1206.099731,0.00313743
1206.38916,0.00314857
1206.677979,0.00315968
1206.967407,0.00317082
1207.256348,0.00318194
1207.546021,0.00319309
1207.835083,0.00320421
1208.124878,0.00321536
1208.414062,0.00322649
1208.703369,0.00323763
1208.993408,0.00324879
1209.283447,0.00325995
1209.572998,0.00327109
1209.862549,0.00328223
1210.0,0.00328761
1210.152832,0.00329364
1210.443115,0.00330527
1210.73291,0.00331687
1211.022705,0.00332847
1211.313232,0.00334011
1211.603882,0.00335174
1211.893921,0.00336336
1212.184082,0.00337498
1212.475586,0.00338665
1212.765137,0.00339824
1213.056152,0.00340989
1213.346558,0.00342152
1213.637695,0.00343318
1213.928833,0.00344484
1214.219482,0.00345648
1214.510742,0.00346814
1214.802124,0.00347981
1215.093018,0.00349145
1215.383789,0.0035031
1215.674805,0.00351475
1215.967163,0.00352645
1216.257568,0.00353808
1216.548706,0.00354974
1216.841309,0.00356146
1217.132568,0.00357312
1217.424561,0.00358481
1217.716064,0.00359648
1218.008179,0.00360818
1218.299805,0.00361986
1218.592041,0.00363156
1218.883789,0.00364324
1219.17688,0.00365498
1219.46875,0.00366666
1219.76001,0.00367832
1220.0,0.00368798
1220.052612,0.00369006
1220.345337,0.00370189
1220.637573,0.0037137
1220.929688,0.0037255
1221.222656,0.00373734
1221.515625,0.00374918
1221.808105,0.003761
1222.101196,0.00377284
1222.394409,0.00378469
1222.687134,0.00379652
1222.980469,0.00380837
1223.273193,0.0038202
1223.56604,0.00383204
1223.858887,0.00384387
1224.152588,0.00385574
1224.446289,0.00386761
1224.740112,0.00387948
1225.033203,0.00389132
1225.326538,0.00390318
1225.620483,0.00391505
1225.914551,0.00392694
1226.208008,0.0039388
1226.501587,0.00395066
1226.795898,0.00396255
1227.089478,0.00397442
1227.383911,0.00398631
1227.677734,0.00399819
1227.97229,0.00401009
1228.266235,0.00402197
1228.560913,0.00403387
1228.855103,0.00404576
1229.149902,0.00405768
1229.444092,0.00406956
1229.739136,0.00408149
1230.0,0.00409205
1230.03418,0.00409336
1230.329346,0.00410492
1230.623169,0.00411642
1230.917725,0.00412795
1231.213135,0.00413951
1231.508545,0.00415107
1231.803345,0.00416261
1232.098145,0.00417414
1232.393799,0.00418572
1232.689453,0.00419729
1232.985229,0.00420886
1233.280396,0.00422041
1233.576294,0.004232
1233.871582,0.00424355
1234.166992,0.00425511
1234.462402,0.00426668
1234.758545,0.00427827
1235.05481,0.00428986
1235.350464,0.00430143
1235.646973,0.00431304
1235.943359,0.00432464
1236.239258,0.00433622
1236.535156,0.0043478
1236.831909,0.00435941
1237.128662,0.00437103
1237.424805,0.00438262
1237.720947,0.00439421
1238.017944,0.00440583
1238.315063,0.00441746
1238.61145,0.00442906
1238.907959,0.00444066
1239.2052,0.0044523
1239.501831,0.00446391
1239.799194,0.00447555
1240.0,0.00448344
1240.096069,0.00448697
1240.394287,0.00449805
1240.691162,0.00450908
1240.988159,0.00452011
1241.285889,0.00453116
1241.58374,0.00454223
1241.880981,0.00455327
1242.177612,0.00456428
1242.475586,0.00457535
1242.773682,0.00458642
1243.071167,0.00459747
1243.368774,0.00460853
1243.667847,0.00461963
1243.965454,0.00463069
1244.264038,0.00464178
1244.56189,0.00465284
1244.860474,0.00466393
1245.158447,0.004675
1245.457153,0.00468609
1245.755371,0.00469717
1246.054199,0.00470826
1246.352539,0.00471935
1246.650879,0.00473043
1246.949951,0.00474153
1247.249146,0.00475265
1247.547729,0.00476374
1247.846436,0.00477483
1248.145752,0.00478595
1248.445312,0.00479707
1248.744141,0.00480817
1249.043701,0.0048193
1249.342773,0.00483041
1249.641846,0.00484151
1249.94165,0.00485265
1250.0,0.00485482
1250.240845,0.00486325
1250.540771,0.00487376
1250.84021,0.00488425
1251.140259,0.00489476
1251.44043,0.00490527
1251.740723,0.00491579
1252.040405,0.00492629
1252.340088,0.00493679
1252.640625,0.00494731
1252.94043,0.00495782
1253.240356,0.00496832
1253.540405,0.00497883
1253.841187,0.00498937
1254.141968,0.0049999
1254.442871,0.00501044
1254.743164,0.00502096
1255.044312,0.00503151
1255.344727,0.00504203
1255.645874,0.00505258
1255.946411,0.00506311
1256.247803,0.00507367
1256.548584,0.0050842
1256.849365,0.00509474
1257.151611,0.00510533
1257.452515,0.00511587
1257.75354,0.00512641
1258.054565,0.00513696
1258.356445,0.00514753
1258.658447,0.00515811
1258.959717,0.00516866
1259.261108,0.00517922
1259.563232,0.0051898
1259.865356,0.00520039
1260.0,0.00520509
1260.167725,0.00521063
1260.468628,0.00522054
1260.771729,0.00523053
1261.072876,0.00524045
1261.375488,0.00525042
1261.677368,0.00526037
1261.980103,0.00527035
1262.282959,0.00528033
1262.585083,0.00529028
1262.888062,0.00530026
1263.19104,0.00531025
1263.493408,0.00532021
1263.795898,0.00533018
1264.099121,0.00534017
1264.402466,0.00535016
1264.705078,0.00536013
1265.007202,0.00537009
1265.311401,0.00538011
1265.614258,0.00539009
1265.917969,0.0054001
1266.220947,0.00541008
1266.52478,0.00542009
1266.828003,0.00543009
1267.131958,0.0054401
1267.435181,0.00545009
1267.73999,0.00546013
1268.043457,0.00547013
1268.347046,0.00548014
1268.650635,0.00549014
1268.955078,0.00550017
1269.258789,0.00551018
1269.562622,0.00552019
1269.86731,0.00553023
1270.0,0.00553458
1270.171997,0.00553995
1270.476074,0.00554941
1270.780884,0.00555889
1271.085815,0.00556838
1271.390015,0.00557784
1271.695068,0.00558733
1271.999512,0.0055968
1272.303955,0.00560626
1272.608521,0.00561574
1272.91394,0.00562524
1273.21936,0.00563474
1273.52478,0.00564424
1273.829712,0.00565372
1274.134644,0.00566321
1274.440308,0.00567271
1274.746094,0.00568223
1275.05127,0.00569172
1275.356445,0.00570121
1275.662476,0.00571073
1275.967896,0.00572023
1276.274658,0.00572977
1276.579468,0.00573925
1276.885742,0.00574878
1277.191406,0.00575829
1277.497925,0.00576782
1277.803711,0.00577733
1278.110352,0.00578687
1278.41626,0.00579638
1278.723022,0.00580593
1279.029785,0.00581547
1279.33667,0.00582501
1279.642212,0.00583452
1279.949219,0.00584407
1280.0,0.00584563
1280.256348,0.00585324
1280.562866,0.00586233
1280.869385,0.00587141
1281.176025,0.0058805
1281.483398,0.00588961
1281.790894,0.00589872
1282.098389,0.00590784
1282.405273,0.00591693
1282.713013,0.00592605
1283.02002,0.00593515
1283.327881,0.00594428
1283.635132,0.00595338
1283.943115,0.00596251
1284.250488,0.00597162
1284.557861,0.00598073
1284.866089,0.00598986
1285.174438,0.005999
1285.482056,0.00600812
1285.789795,0.00601724
1286.098267,0.00602638
1286.40686,0.00603553
1286.714722,0.00604465
1287.022827,0.00605378
1287.332275,0.00606295
1287.640503,0.00607209
1287.94873,0.00608123
1288.25708,0.00609036
1288.566162,0.00609952
1288.874634,0.00610867
1289.183838,0.00611783
1289.492432,0.00612698
1289.80249,0.00613617
1290.0,0.00614198
1290.111328,0.0061452
1290.420166,0.00615401
1290.729736,0.00616285
1291.039429,0.00617168
1291.348511,0.00618051
1291.657593,0.00618933
1291.966797,0.00619815
1292.276733,0.006207
1292.586182,0.00621583
1292.89624,0.00622468
1293.206421,0.00623353
1293.515991,0.00624236
1293.826416,0.00625122
1294.136108,0.00626006
1294.446655,0.00626893
1294.75647,0.00627777
1295.067139,0.00628663
1295.377197,0.00629548
1295.687988,0.00630435
1295.998901,0.00631322
1296.30835,0.00632206
1296.619385,0.00633093
1296.930542,0.00633981
1297.240967,0.00634867
1297.551514,0.00635754
1297.862793,0.00636642
1298.174194,0.00637531
1298.485718,0.0063842
1298.796509,0.00639307
1299.108154,0.00640196
1299.418457,0.00641082
1299.730957,0.00641974
1300.0,0.00642739
1300.041382,0.00642856
1300.353271,0.00643722
1300.664551,0.00644587
1300.976685,0.00645454
1301.288818,0.0064632
1301.600952,0.00647187
1301.912598,0.00648053
1302.224243,0.00648918
1302.536621,0.00649785
1302.849243,0.00650653
1303.1604,0.00651518
1303.47229,0.00652384
1303.785034,0.00653252
1304.0979,0.00654121
1304.410767,0.0065499
1304.723022,0.00655857
1305.036133,0.00656726
1305.348511,0.00657594
1305.661743,0.00658464
1305.974243,0.00659331
1306.287598,0.00660202
1306.600952,0.00661072
1306.913818,0.00661941
1307.227295,0.00662811
1307.540283,0.0066368
1307.853271,0.00664549
1308.166382,0.00665419
1308.480225,0.0066629
1308.794189,0.00667162
1309.107544,0.00668032
1309.420898,0.00668902
1309.734985,0.00669775
1310.0,0.00670508
1310.049316,0.00670645
1310.363647,0.00671505
1310.677246,0.00672362
1310.991821,0.00673222
1311.305542,0.0067408
1311.619507,0.00674938
1311.933472,0.00675796
1312.248291,0.00676657
1312.56311,0.00677518
1312.877319,0.00678377
1313.192261,0.00679238
1313.507446,0.00680099
1313.821777,0.00680959
1314.136353,0.00681819
1314.45166,0.00682681
1314.766968,0.00683543
1315.081787,0.00684403
1315.396606,0.00685264
1315.712891,0.00686129
1316.0271,0.00686988
1316.342896,0.00687851
1316.657959,0.00688713
1316.973877,0.00689576
1317.289185,0.00690438
1317.605225,0.00691302
1317.920654,0.00692165
1318.237549,0.00693031
1318.553101,0.00693894
1318.868774,0.00694757
1319.184448,0.0069562
1319.501709,0.00696487
1319.816895,0.00697349
1320.0,0.00697845
1320.132812,0.00698207
1320.449585,0.00699061
1320.766357,0.00699915
1321.08252,0.00700768
1321.399536,0.00701622
1321.716553,0.00702477
1322.032959,0.0070333
1322.35022,0.00704185
1322.666748,0.00705038
1322.983398,0.00705892
1323.300781,0.00706748
1323.618286,0.00707604
1323.935181,0.00708458
1324.252808,0.00709314
1324.569824,0.00710169
1324.886841,0.00711023
1325.204712,0.0071188
1325.522705,0.00712737
1325.839966,0.00713593
1326.157349,0.00714448
1326.475586,0.00715306
1326.793823,0.00716164
1327.112183,0.00717022
1327.429932,0.00717879
1327.747681,0.00718736
1328.06543,0.00719592
1328.384155,0.00720451
1328.702148,0.00721309
1329.020874,0.00722168
1329.339111,0.00723026
1329.658081,0.00723886
1329.977051,0.00724745
1330.0,0.00724806
1330.296143,0.00725592
1330.614624,0.00726435
1330.933105,0.00727279
1331.252441,0.00728125
1331.571167,0.00728969
1331.889893,0.00729814
1332.20874,0.00730658
1332.52832,0.00731505
1332.848145,0.00732352
1333.167847,0.00733199
1333.487061,0.00734045
1333.807007,0.00734892
1334.126221,0.00735738
1334.446411,0.00736586
1334.765869,0.00737432
1335.08606,0.0073828
1335.40564,0.00739127
1335.725342,0.00739974
1336.045776,0.00740822
1336.366333,0.00741672
1336.686279,0.00742519
1337.006226,0.00743367
1337.327026,0.00744217
1337.647949,0.00745067
1337.96814,0.00745915
1338.288452,0.00746763
1338.610229,0.00747616
1338.930664,0.00748465
1339.251221,0.00749314
1339.571777,0.00750163
1339.893921,0.00751016
1340.0,0.00751294
1340.213989,0.00751853
1340.535522,0.00752687
1340.856445,0.0075352
1341.178833,0.00754357
1341.499878,0.0075519
1341.821045,0.00756024
1342.143066,0.0075686
1342.465088,0.00757696
1342.786377,0.0075853
1343.107788,0.00759364
1343.429321,0.00760199
1343.752441,0.00761037
1344.073364,0.0076187
1344.395874,0.00762707
1344.718384,0.00763544
1345.040283,0.0076438
1345.363037,0.00765218
1345.685059,0.00766053
1346.007935,0.00766892
1346.3302,0.00767728
1346.653198,0.00768566
1346.976318,0.00769405
1347.299561,0.00770244
1347.62207,0.00771081
1347.94458,0.00771918
1348.267334,0.00772756
1348.59082,0.00773596
1348.913574,0.00774433
1349.236572,0.00775272
1349.560303,0.00776112
1349.884033,0.00776952
1350.0,0.00777249
1350.207153,0.0077778
1350.531128,0.00778603
1350.855225,0.00779427
1351.177856,0.00780247
1351.502808,0.00781072
1351.826294,0.00781895
1352.149902,0.00782717
1352.473633,0.0078354
1352.798096,0.00784364
1353.122681,0.00785189
1353.447266,0.00786014
1353.771362,0.00786838
1354.095337,0.00787661
1354.420288,0.00788487
1354.745239,0.00789313
1355.06958,0.00790137
1355.393921,0.00790961
1355.719116,0.00791787
1356.043701,0.00792612
1356.369019,0.00793439
1356.693726,0.00794264
1357.019287,0.00795092
1357.344116,0.00795917
1357.6698,0.00796745
1357.994751,0.00797571
1358.320557,0.00798399
1358.646484,0.00799227
1358.97168,0.00800053
1359.297729,0.00800882
1359.623901,0.00801711
1359.948608,0.00802536
1360.0,0.00802664
1360.27417,0.00803348
1360.600586,0.0080416
1360.927002,0.00804972
1361.252808,0.00805782
1361.578613,0.00806593
1361.905396,0.00807406
1362.232178,0.00808218
1362.55896,0.00809031
1362.885132,0.00809842
1363.212158,0.00810656
1363.538452,0.00811467
1363.864868,0.00812279
1364.191406,0.00813091
1364.519409,0.00813907
1364.846069,0.00814719
1365.172852,0.00815532
1365.500366,0.00816347
1365.828003,0.00817161
1366.154907,0.00817975
1366.481934,0.00818788
1366.809814,0.00819603
1367.137817,0.00820419
1367.465088,0.00821233
1367.792358,0.00822047
1368.121338,0.00822865
1368.448853,0.0082368
1368.776367,0.00824494
1369.104126,0.0082531
1369.432617,0.00826127
1369.760376,0.00826942
1370.0,0.00827534
1370.088989,0.00827754
1370.417725,0.00828553
1370.746582,0.00829353
1371.074707,0.00830151
1371.402954,0.00830949
1371.731201,0.00831747
1372.061035,0.00832549
1372.389526,0.00833348
1372.718018,0.00834146
1373.046631,0.00834945
1373.376099,0.00835747
1373.704834,0.00836546
1374.034424,0.00837347
1374.364136,0.00838149
1374.693115,0.00838949
1375.022949,0.00839751
1375.352173,0.00840551
1375.682129,0.00841354
1376.011475,0.00842154
1376.341553,0.00842957
1376.671021,0.00843758
1377.001343,0.00844561
1377.331055,0.00845363
1377.660767,0.00846164
1377.991211,0.00846968
1378.321899,0.00847772
1378.651855,0.00848574
1378.981812,0.00849377
1379.312744,0.00850181
1379.643677,0.00850986
1379.974731,0.00851791
1380.0,0.00851851
1380.305054,0.00852576
1380.635498,0.0085336
1380.965942,0.00854144
1381.298096,0.00854932
1381.62793,0.00855715
1381.959473,0.00856501
1382.291016,0.00857288
1382.621948,0.00858073
1382.953613,0.0085886
1383.285522,0.00859648
1383.616577,0.00860433
1383.947876,0.00861219
1384.279907,0.00862007
1384.611206,0.00862793
1384.942749,0.0086358
1385.274292,0.00864366
1385.607422,0.00865157
1385.939087,0.00865943
1386.271606,0.00866732
1386.603394,0.0086752
1386.936157,0.00868309
1387.268188,0.00869097
1387.600952,0.00869886
1387.933228,0.00870675
1388.266968,0.00871467
1388.599243,0.00872255
1388.930908,0.00873042
1389.264893,0.00873834
1389.597534,0.00874624
1389.930176,0.00875413
1390.0,0.00875576
1390.262817,0.00876186
1390.596436,0.00876956
1390.930054,0.00877727
1391.263062,0.00878496
1391.596069,0.00879265
1391.930786,0.00880038
1392.263916,0.00880808
1392.598022,0.0088158
1392.930664,0.00882348
1393.265625,0.00883122
1393.599121,0.00883892
1393.932739,0.00884663
1394.267212,0.00885435
1394.601685,0.00886208
1394.935547,0.00886979
1395.269409,0.0088775
1395.604248,0.00888524
1395.939087,0.00889297
1396.273193,0.00890069
1396.607544,0.00890841
1396.942627,0.00891615
1397.27771,0.00892389
1397.612183,0.00893162
1397.946777,0.00893935
1398.282227,0.00894709
1398.616943,0.00895483
1398.952515,0.00896258
1399.287354,0.00897031
1399.623169,0.00897807
1399.95813,0.00898581
1400.0,0.00898676
1400.294067,0.00899337
1400.630005,0.0090009
1400.966064,0.00900844
1401.301514,0.00901596
1401.636963,0.00902349
1401.972412,0.00903101
1402.30957,0.00903857
1402.644531,0.00904608
1402.980347,0.00905361
1403.316895,0.00906116
1403.653564,0.00906871
1403.990356,0.00907626
1404.326538,0.0090838
1404.663452,0.00909136
1404.999634,0.0090989
1405.336792,0.00910646
1405.673218,0.009114
1406.009766,0.00912155
1406.347046,0.00912912
1406.683716,0.00913667
1407.02124,0.00914424
1407.358765,0.00915181
1407.695679,0.00915936
1408.032715,0.00916692
1408.370483,0.00917449
1408.708496,0.00918208
1409.045654,0.00918964
1409.382202,0.00919718
1409.721069,0.00920478
1410.0,0.00921101
1410.059326,0.00921233
1410.397705,0.00921967
