Wavelength,Transmission
1199.183228,1.04819e-05
1199.470947,2.7082e-05
1199.758057,4.3818e-05
1200.0,5.80446e-05
1200.045288,5.80997e-05
1200.333252,5.83913e-05
1200.621216,5.86835e-05
1200.908691,5.89757e-05
1201.0,5.90686e-05
1201.196777,5.92691e-05
1201.484375,5.95625e-05
1201.771973,5.98565e-05
1202.0,6.00899e-05
1202.060303,6.01517e-05
1202.348022,6.04468e-05
1202.636475,6.07432e-05
1202.924438,6.10396e-05
1203.0,6.11174e-05
1203.213013,6.13371e-05
1203.501709,6.16353e-05
1203.790527,6.19342e-05
1204.0,6.21513e-05
1204.078613,6.22329e-05
1204.366943,6.25324e-05
1204.655884,6.28331e-05
1204.944214,6.31337e-05
1205.0,6.31919e-05
1205.232666,6.34349e-05
1205.52124,6.37367e-05
1205.810425,6.40397e-05
1206.0,6.42386e-05
1206.099731,6.43434e-05
1206.38916,6.46477e-05
1206.677979,6.49519e-05
1206.967407,6.52573e-05
1207.0,6.52918e-05
1207.256348,6.55629e-05
1207.546021,6.58697e-05
1207.835083,6.61764e-05
1208.0,6.63516e-05
1208.124878,6.64844e-05
1208.414062,6.67922e-05
1208.703369,6.71007e-05
1208.993408,6.74105e-05
1209.0,6.74176e-05
1209.283447,6.77209e-05
1209.572998,6.80313e-05
1209.862549,6.83422e-05
1210.0,6.84917e-05
1210.152832,6.86594e-05
1210.443115,6.89817e-05
1210.73291,6.93041e-05
1211.0,6.96017e-05
1211.022705,6.9627e-05
1211.313232,6.99512e-05
1211.603882,7.0276e-05
1211.893921,7.06008e-05
1212.0,7.07197e-05
1212.184082,7.09262e-05
1212.475586,7.12538e-05
1212.765137,7.15797e-05
1213.0,7.18444e-05
1213.056152,7.19078e-05
1213.346558,7.22359e-05
1213.637695,7.25654e-05
1213.928833,7.28954e-05
1214.0,7.29762e-05
1214.219482,7.32254e-05
1214.510742,7.35566e-05
1214.802124,7.38885e-05
1215.0,7.41142e-05
1215.093018,7.42204e-05
1215.383789,7.45528e-05
1215.674805,7.4886e-05
1215.967163,7.52213e-05
1216.0,7.5259e-05
1216.257568,7.5555e-05
1216.548706,7.58901e-05
1216.841309,7.62275e-05
1217.0,7.64107e-05
1217.132568,7.65639e-05
1217.424561,7.69016e-05
1217.716064,7.72393e-05
1218.0,7.75688e-05
1218.008179,7.75783e-05
1218.299805,7.79173e-05
1218.592041,7.82576e-05
1218.883789,7.85979e-05
1219.0,7.87335e-05
1219.17688,7.89404e-05
1219.46875,7.9282e-05
1219.76001,7.96235e-05
1220.0,7.99064e-05
1220.052612,7.99676e-05
1220.345337,8.03142e-05
1220.637573,8.06608e-05
1220.929688,8.10078e-05
1221.0,8.10914e-05
1221.222656,8.13565e-05
1221.515625,8.17057e-05
1221.808105,8.20549e-05
1222.0,8.22843e-05
1222.101196,8.24054e-05
1222.394409,8.27568e-05
1222.687134,8.31081e-05
1222.980469,8.34608e-05
1223.0,8.34843e-05
1223.273193,8.38132e-05
1223.56604,8.41663e-05
1223.858887,8.45199e-05
1224.0,8.46905e-05
1224.152588,8.48752e-05
1224.446289,8.52311e-05
1224.740112,8.55877e-05
1225.0,8.59036e-05
1225.033203,8.5944e-05
1225.326538,8.63013e-05
1225.620483,8.66599e-05
1225.914551,8.70193e-05
1226.0,8.71238e-05
1226.208008,8.73784e-05
1226.501587,8.77381e-05
1226.795898,8.80994e-05
1227.0,8.83503e-05
1227.089478,8.84604e-05
1227.383911,8.8823e-05
1227.677734,8.91854e-05
1227.97229,8.95493e-05
1228.0,8.95835e-05
1228.266235,8.99131e-05
1228.560913,9.02784e-05
1228.855103,9.06438e-05
1229.0,9.08239e-05
1229.149902,9.10104e-05
1229.444092,9.13767e-05
1229.739136,9.17447e-05
1230.0,9.20712e-05
1230.03418,9.21124e-05
1230.329346,9.24733e-05
1230.623169,9.28331e-05
1230.917725,9.31943e-05
1231.0,9.32953e-05
1231.213135,9.35573e-05
1231.508545,9.39209e-05
1231.803345,9.42843e-05
1232.0,9.4527e-05
1232.098145,9.46482e-05
1232.393799,9.50137e-05
1232.689453,9.53797e-05
1232.985229,9.57464e-05
1233.0,9.57648e-05
1233.280396,9.6113e-05
1233.576294,9.64811e-05
1233.871582,9.68489e-05
1234.0,9.7009e-05
1234.166992,9.72176e-05
1234.462402,9.75868e-05
1234.758545,9.79576e-05
1235.0,9.82603e-05
1235.05481,9.83291e-05
1235.350464,9.87002e-05
1235.646973,9.9073e-05
1235.943359,9.94463e-05
1236.0,9.95176e-05
1236.239258,9.98194e-05
1236.535156,0.000100193
1236.831909,0.000100569
1237.0,0.000100781
1237.128662,0.000100945
1237.424805,0.000101321
1237.720947,0.000101697
1238.0,0.000102052
1238.017944,0.000102075
1238.315063,0.000102454
1238.61145,0.000102832
1238.907959,0.000103211
1239.0,0.000103329
1239.2052,0.000103592
1239.501831,0.000103972
1239.799194,0.000104354
1240.0,0.000104613
1240.096069,0.000104732
1240.394287,0.000105102
1240.691162,0.000105472
1240.988159,0.000105842
1241.0,0.000105856
1241.285889,0.000106213
1241.58374,0.000106585
1241.880981,0.000106957
1242.0,0.000107106
1242.177612,0.000107328
1242.475586,0.000107702
1242.773682,0.000108077
1243.0,0.000108361
1243.071167,0.000108451
1243.368774,0.000108826
1243.667847,0.000109203
1243.965454,0.00010958
1244.0,0.000109623
1244.264038,0.000109958
1244.56189,0.000110335
1244.860474,0.000110714
1245.0,0.000110891
1245.158447,0.000111093
1245.457153,0.000111473
1245.755371,0.000111853
1246.0,0.000112166
1246.054199,0.000112235
1246.352539,0.000112616
1246.650879,0.000112998
1246.949951,0.000113382
1247.0,0.000113446
1247.249146,0.000113766
1247.547729,0.00011415
1247.846436,0.000114535
1248.0,0.000114733
1248.145752,0.000114921
1248.445312,0.000115308
1248.744141,0.000115694
1249.0,0.000116026
1249.043701,0.000116082
1249.342773,0.00011647
1249.641846,0.000116859
1249.94165,0.000117249
1250.0,0.000117325
1250.240845,0.000117626
1250.540771,0.000118002
1250.84021,0.000118378
1251.0,0.000118579
1251.140259,0.000118755
1251.44043,0.000119133
1251.740723,0.000119511
1252.0,0.000119838
1252.040405,0.000119889
1252.340088,0.000120268
1252.640625,0.000120649
1252.94043,0.000121029
1253.0,0.000121104
1253.240356,0.000121409
1253.540405,0.000121791
1253.841187,0.000122174
1254.0,0.000122376
1254.141968,0.000122557
1254.442871,0.000122941
1254.743164,0.000123324
1255.0,0.000123653
1255.044312,0.00012371
1255.344727,0.000124095
1255.645874,0.000124481
1255.946411,0.000124868
1256.0,0.000124937
1256.247803,0.000125255
1256.548584,0.000125643
1256.849365,0.000126031
1257.0,0.000126225
1257.151611,0.000126421
1257.452515,0.000126811
1257.75354,0.0001272
1258.0,0.00012752
1258.054565,0.000127591
1258.356445,0.000127983
1258.658447,0.000128376
1258.959717,0.000128769
1259.0,0.000128821
1259.261108,0.000129162
1259.563232,0.000129556
1259.865356,0.000129951
1260.0,0.000130127
1260.167725,0.000130339
1260.468628,0.000130717
1260.771729,0.0001311
1261.0,0.000131388
1261.072876,0.00013148
1261.375488,0.000131862
1261.677368,0.000132245
1261.980103,0.000132628
1262.0,0.000132654
1262.282959,0.000133013
1262.585083,0.000133397
1262.888062,0.000133782
1263.0,0.000133925
1263.19104,0.000134168
1263.493408,0.000134554
1263.795898,0.00013494
1264.0,0.000135201
1264.099121,0.000135328
1264.402466,0.000135717
1264.705078,0.000136105
1265.0,0.000136484
1265.007202,0.000136493
1265.311401,0.000136884
1265.614258,0.000137274
1265.917969,0.000137666
1266.0,0.000137771
1266.220947,0.000138057
1266.52478,0.000138449
1266.828003,0.000138842
1267.0,0.000139064
1267.131958,0.000139236
1267.435181,0.000139629
1267.73999,0.000140025
1268.0,0.000140364
1268.043457,0.00014042
1268.347046,0.000140815
1268.650635,0.000141211
1268.955078,0.000141609
1269.0,0.000141668
1269.258789,0.000142006
1269.562622,0.000142404
1269.86731,0.000142803
1270.0,0.000142976
1270.171997,0.000143195
1270.476074,0.00014358
1270.780884,0.000143967
1271.0,0.000144245
1271.085815,0.000144354
1271.390015,0.00014474
1271.695068,0.000145129
1271.999512,0.000145516
1272.0,0.000145517
1272.303955,0.000145905
1272.608521,0.000146294
1272.91394,0.000146684
1273.0,0.000146795
1273.21936,0.000147076
1273.52478,0.000147467
1273.829712,0.000147859
1274.0,0.000148078
1274.134644,0.000148251
1274.440308,0.000148644
1274.746094,0.000149038
1275.0,0.000149366
1275.05127,0.000149432
1275.356445,0.000149826
1275.662476,0.000150222
1275.967896,0.000150617
1276.0,0.000150659
1276.274658,0.000151015
1276.579468,0.000151411
1276.885742,0.000151809
1277.0,0.000151958
1277.191406,0.000152207
1277.497925,0.000152606
1277.803711,0.000153005
1278.0,0.000153261
1278.110352,0.000153405
1278.41626,0.000153805
1278.723022,0.000154207
1279.0,0.00015457
1279.029785,0.000154609
1279.33667,0.000155012
1279.642212,0.000155413
1279.949219,0.000155817
1280.0,0.000155884
1280.256348,0.000156212
1280.562866,0.000156604
1280.869385,0.000156996
1281.0,0.000157164
1281.176025,0.00015739
1281.483398,0.000157784
1281.790894,0.000158179
1282.0,0.000158449
1282.098389,0.000158575
1282.405273,0.000158971
1282.713013,0.000159368
1283.0,0.000159739
1283.02002,0.000159765
1283.327881,0.000160163
1283.635132,0.00016056
1283.943115,0.00016096
1284.0,0.000161033
1284.250488,0.000161358
1284.557861,0.000161758
1284.866089,0.000162158
1285.0,0.000162333
1285.174438,0.00016256
1285.482056,0.000162961
1285.789795,0.000163363
1286.0,0.000163638
1286.098267,0.000163766
1286.40686,0.00016417
1286.714722,0.000164573
1287.0,0.000164947
1287.022827,0.000164977
1287.332275,0.000165383
1287.640503,0.000165788
1287.94873,0.000166194
1288.0,0.000166262
1288.25708,0.0001666
1288.566162,0.000167008
1288.874634,0.000167416
1289.0,0.000167581
1289.183838,0.000167824
1289.492432,0.000168233
1289.80249,0.000168644
1290.0,0.000168904
1290.111328,0.00016905
1290.420166,0.000169451
1290.729736,0.000169853
1291.0,0.000170204
1291.039429,0.000170256
1291.348511,0.000170658
1291.657593,0.000171061
1291.966797,0.000171465
1292.0,0.000171509
1292.276733,0.00017187
1292.586182,0.000172275
1292.89624,0.000172681
1293.0,0.000172817
1293.206421,0.000173088
1293.515991,0.000173494
1293.826416,0.000173902
1294.0,0.00017413
1294.136108,0.000174309
1294.446655,0.000174718
1294.75647,0.000175127
1295.0,0.000175449
1295.067139,0.000175537
1295.377197,0.000175947
1295.687988,0.000176358
1295.998901,0.00017677
1296.0,0.000176771
1296.30835,0.00017718
1296.619385,0.000177593
1296.930542,0.000178006
1297.0,0.000178099
1297.240967,0.000178419
1297.551514,0.000178833
1297.862793,0.000179248
1298.0,0.000179431
1298.174194,0.000179664
1298.485718,0.00018008
1298.796509,0.000180496
1299.0,0.000180768
1299.108154,0.000180913
1299.418457,0.000181329
1299.730957,0.000181748
1300.0,0.000182109
1300.041382,0.000182165
1300.353271,0.000182577
1300.664551,0.00018299
1300.976685,0.000183404
1301.0,0.000183435
1301.288818,0.000183818
1301.600952,0.000184233
1301.912598,0.000184648
1302.0,0.000184764
1302.224243,0.000185063
1302.536621,0.000185479
1302.849243,0.000185897
1303.0,0.000186098
1303.1604,0.000186312
1303.47229,0.00018673
1303.785034,0.000187149
1304.0,0.000187437
1304.0979,0.000187568
1304.410767,0.000187988
1304.723022,0.000188408
1305.0,0.00018878
1305.036133,0.000188829
1305.348511,0.000189249
1305.661743,0.000189671
1305.974243,0.000190093
1306.0,0.000190128
1306.287598,0.000190516
1306.600952,0.00019094
1306.913818,0.000191364
1307.0,0.000191481
1307.227295,0.000191789
1307.540283,0.000192213
1307.853271,0.000192638
1308.0,0.000192837
1308.166382,0.000193064
1308.480225,0.000193491
1308.794189,0.000193918
1309.0,0.000194199
1309.107544,0.000194346
1309.420898,0.000194774
1309.734985,0.000195203
1310.0,0.000195565
1310.049316,0.000195633
1310.363647,0.000196059
1310.677246,0.000196485
1310.991821,0.000196913
1311.0,0.000196924
1311.305542,0.00019734
1311.619507,0.000197768
1311.933472,0.000198196
1312.0,0.000198287
1312.248291,0.000198626
1312.56311,0.000199057
1312.877319,0.000199487
1313.0,0.000199655
1313.192261,0.000199918
1313.507446,0.00020035
1313.821777,0.000200782
1314.0,0.000201027
1314.136353,0.000201214
1314.45166,0.000201648
1314.766968,0.000202082
1315.0,0.000202403
1315.081787,0.000202516
1315.396606,0.00020295
1315.712891,0.000203388
1316.0,0.000203785
1316.0271,0.000203822
1316.342896,0.000204259
1316.657959,0.000204696
1316.973877,0.000205134
1317.0,0.00020517
1317.289185,0.000205572
1317.605225,0.000206011
1317.920654,0.00020645
1318.0,0.00020656
1318.237549,0.000206891
1318.553101,0.000207331
1318.868774,0.000207772
1319.0,0.000207956
1319.184448,0.000208213
1319.501709,0.000208657
1319.816895,0.000209098
1320.0,0.000209354
1320.132812,0.000209617
1320.449585,0.000210242
1320.766357,0.000210869
1321.0,0.000211331
1321.08252,0.000211495
1321.399536,0.000212123
1321.716553,0.000212753
1322.0,0.000213316
1322.032959,0.000213382
1322.35022,0.000214014
1322.666748,0.000214645
1322.983398,0.000215278
1323.0,0.000215311
1323.300781,0.000215912
1323.618286,0.000216548
1323.935181,0.000217184
1324.0,0.000217314
1324.252808,0.000217822
1324.569824,0.000218459
1324.886841,0.000219098
1325.0,0.000219326
1325.204712,0.000219739
1325.522705,0.000220382
1325.839966,0.000221023
1326.0,0.000221347
1326.157349,0.000221666
1326.475586,0.000222312
1326.793823,0.000222959
1327.0,0.000223378
1327.112183,0.000223606
1327.429932,0.000224253
1327.747681,0.000224901
1328.0,0.000225417
1328.06543,0.00022555
1328.384155,0.000226203
1328.702148,0.000226854
1329.0,0.000227465
1329.020874,0.000227508
1329.339111,0.000228162
1329.658081,0.000228818
1329.977051,0.000229475
1330.0,0.000229522
1330.296143,0.000230129
1330.614624,0.000230782
1330.933105,0.000231436
1331.0,0.000231573
1331.252441,0.000232093
1331.571167,0.000232749
1331.889893,0.000233406
1332.0,0.000233634
1332.20874,0.000234065
1332.52832,0.000234726
1332.848145,0.000235388
1333.0,0.000235703
1333.167847,0.000236051
1333.487061,0.000236714
1333.807007,0.000237379
1334.0,0.00023778
1334.126221,0.000238043
1334.446411,0.000238711
1334.765869,0.000239378
1335.0,0.000239867
1335.08606,0.000240047
1335.40564,0.000240716
1335.725342,0.000241386
1336.0,0.000241963
1336.045776,0.000242059
1336.366333,0.000242732
1336.686279,0.000243405
1337.0,0.000244066
1337.006226,0.00024408
1337.327026,0.000244757
1337.647949,0.000245435
1337.96814,0.000246112
1338.0,0.00024618
1338.288452,0.000246791
1338.610229,0.000247474
1338.930664,0.000248154
1339.0,0.000248302
1339.251221,0.000248836
1339.571777,0.000249519
1339.893921,0.000250206
1340.0,0.000250431
1340.213989,0.000250886
1340.535522,0.000251567
1340.856445,0.000252249
1341.0,0.000252554
1341.178833,0.000252935
1341.499878,0.000253618
1341.821045,0.000254303
1342.0,0.000254685
1342.143066,0.00025499
1342.465088,0.000255678
1342.786377,0.000256366
1343.0,0.000256823
1343.107788,0.000257054
1343.429321,0.000257744
1343.752441,0.000258439
1344.0,0.000258971
1344.073364,0.000259129
1344.395874,0.000259824
1344.718384,0.000260519
1345.0,0.000261128
1345.040283,0.000261215
1345.363037,0.000261912
1345.685059,0.000262609
1346.0,0.000263292
1346.007935,0.000263309
1346.3302,0.000264009
1346.653198,0.000264711
1346.976318,0.000265414
1347.0,0.000265466
1347.299561,0.000266119
1347.62207,0.000266823
1347.94458,0.000267527
1348.0,0.000267648
1348.267334,0.000268233
1348.59082,0.000268942
1348.913574,0.000269649
1349.0,0.000269839
1349.236572,0.000270358
1349.560303,0.00027107
1349.884033,0.000271783
1350.0,0.000272037
1350.207153,0.000272492
1350.531128,0.0002732
1350.855225,0.000273911
1351.0,0.000274228
1351.177856,0.000274618
1351.502808,0.000275332
1351.826294,0.000276043
1352.0,0.000276425
1352.149902,0.000276755
1352.473633,0.000277469
1352.798096,0.000278185
1353.0,0.000278631
1353.122681,0.000278903
1353.447266,0.000279621
1353.771362,0.000280339
1354.0,0.000280846
1354.095337,0.000281058
1354.420288,0.000281779
1354.745239,0.000282502
1355.0,0.000283069
1355.06958,0.000283224
1355.393921,0.000283947
1355.719116,0.000284673
1356.0,0.0002853
1356.043701,0.000285398
1356.369019,0.000286126
1356.693726,0.000286854
1357.0,0.000287541
1357.019287,0.000287584
1357.344116,0.000288313
1357.6698,0.000289045
1357.994751,0.000289777
1358.0,0.000289789
1358.320557,0.000290511
1358.646484,0.000291247
1358.97168,0.000291982
1359.0,0.000292046
1359.297729,0.000292719
1359.623901,0.000293458
1359.948608,0.000294195
1360.0,0.000294311
1360.27417,0.000294928
1360.600586,0.000295664
1360.927002,0.0002964
1361.0,0.000296565
1361.252808,0.000297136
1361.578613,0.000297873
1361.905396,0.000298613
1362.0,0.000298827
1362.232178,0.000299354
1362.55896,0.000300095
1362.885132,0.000300837
1363.0,0.000301098
1363.212158,0.00030158
1363.538452,0.000302323
1363.864868,0.000303068
1364.0,0.000303376
1364.191406,0.000303813
1364.519409,0.000304563
1364.846069,0.000305311
1365.0,0.000305663
1365.172852,0.00030606
1365.500366,0.000306811
1365.828003,0.000307563
1366.0,0.000307959
1366.154907,0.000308315
1366.481934,0.000309068
1366.809814,0.000309823
1367.0,0.000310262
1367.137817,0.00031058
1367.465088,0.000311336
1367.792358,0.000312093
1368.0,0.000312574
1368.121338,0.000312855
1368.448853,0.000313615
1368.776367,0.000314375
1369.0,0.000314895
1369.104126,0.000315137
1369.432617,0.000315901
1369.760376,0.000316664
1370.0,0.000317221
1370.088989,0.000317428
1370.417725,0.000318189
1370.746582,0.000318951
1371.0,0.000319538
1371.074707,0.000319711
1371.402954,0.000320473
1371.731201,0.000321236
1372.0,0.000321862
1372.061035,0.000322004
1372.389526,0.000322769
1372.718018,0.000323535
1373.0,0.000324193
1373.046631,0.000324302
1373.376099,0.000325072
1373.704834,0.000325841
1374.0,0.000326533
1374.034424,0.000326613
1374.364136,0.000327387
1374.693115,0.000328159
1375.0,0.000328881
1375.022949,0.000328935
1375.352173,0.000329709
1375.682129,0.000330487
1376.0,0.000331236
1376.011475,0.000331263
1376.341553,0.000332043
1376.671021,0.000332822
1377.0,0.0003336
1377.001343,0.000333604
1377.331055,0.000334385
1377.660767,0.000335167
1377.991211,0.000335952
1378.0,0.000335973
1378.321899,0.000336738
1378.651855,0.000337523
1378.981812,0.000338309
1379.0,0.000338352
1379.312744,0.000339098
1379.643677,0.000339889
1379.974731,0.00034068
1380.0,0.00034074
1380.305054,0.000341464
1380.635498,0.000342248
1380.965942,0.000343033
1381.0,0.000343114
1381.298096,0.000343823
1381.62793,0.000344608
1381.959473,0.000345397
1382.0,0.000345494
1382.291016,0.000346188
1382.621948,0.000346979
1382.953613,0.000347772
1383.0,0.000347883
1383.285522,0.000348566
1383.616577,0.00034936
1383.947876,0.000350155
1384.0,0.00035028
1384.279907,0.000350952
1384.611206,0.000351748
1384.942749,0.000352546
1385.0,0.000352684
1385.274292,0.000353344
1385.607422,0.000354148
1385.939087,0.000354949
1386.0,0.000355096
1386.271606,0.000355753
1386.603394,0.000356556
1386.936157,0.000357362
1387.0,0.000357517
1387.268188,0.000358167
1387.600952,0.000358974
1387.933228,0.000359782
1388.0,0.000359944
1388.266968,0.000360594
1388.599243,0.000361403
1388.930908,0.000362212
1389.0,0.00036238
1389.264893,0.000363027
1389.597534,0.00036384
1389.930176,0.000364654
1390.0,0.000364823
1390.262817,0.000365461
1390.596436,0.00036627
1390.930054,0.00036708
1391.0,0.00036725
1391.263062,0.000367889
1391.596069,0.000368699
1391.930786,0.000369515
1392.0,0.000369683
1392.263916,0.000370327
1392.598022,0.000371142
1392.930664,0.000371955
1393.0,0.000372125
1393.265625,0.000372774
1393.599121,0.00037359
1393.932739,0.000374408
1394.0,0.000374573
1394.267212,0.000375228
1394.601685,0.00037605
1394.935547,0.000376871
1395.0,0.000377029
1395.269409,0.000377693
1395.604248,0.000378518
1395.939087,0.000379343
1396.0,0.000379494
1396.273193,0.000380168
1396.607544,0.000380994
1396.942627,0.000381823
1397.0,0.000381965
1397.27771,0.000382653
1397.612183,0.000383482
1397.946777,0.000384313
1398.0,0.000384445
1398.282227,0.000385146
1398.616943,0.000385979
1398.952515,0.000386814
1399.0,0.000386932
1399.287354,0.000387648
1399.623169,0.000388486
1399.95813,0.000389322
1400.0,0.000389426
1400.294067,0.000390153
1400.630005,0.000390984
1400.966064,0.000391816
1401.0,0.0003919
1401.301514,0.000392648
1401.636963,0.00039348
1401.972412,0.000394313
1402.0,0.000394381
1402.30957,0.000395151
1402.644531,0.000395984
1402.980347,0.00039682
1403.0,0.000396869
1403.316895,0.000397659
1403.653564,0.0003985
1403.990356,0.000399341
1404.0,0.000399365
1404.326538,0.000400182
1404.663452,0.000401025
1404.999634,0.000401868
1405.0,0.000401869
1405.336792,0.000402713
1405.673218,0.000403558
1406.0,0.000404379
1406.009766,0.000404403
1406.347046,0.000405252
1406.683716,0.0004061
1407.0,0.000406897
1407.02124,0.000406951
1407.358765,0.000407803
1407.695679,0.000408654
1408.0,0.000409423
1408.032715,0.000409506
1408.370483,0.000410361
1408.708496,0.000411217
