Wavelength,Transmission
1640.0,0.000104442
1640.099976,0.000104591
1640.200073,0.000104986
1640.300049,0.00010538
1640.400146,0.000105776
1640.5,0.00010617
1640.599976,0.000106565
1640.700073,0.000106961
1640.799927,0.000107356
1640.900024,0.000107752
1641.0,0.000108148
1641.099976,0.000108544
1641.200073,0.000108941
1641.299927,0.000109337
1641.400024,0.000109734
1641.5,0.00011013
1641.599976,0.000110527
1641.700073,0.000110925
1641.800049,0.000111322
1641.900146,0.00011172
1642.0,0.000112117
1642.099976,0.000112514
1642.199951,0.000112912
1642.299927,0.00011331
1642.400024,0.000113709
1642.5,0.000114107
1642.599976,0.000114505
1642.700073,0.000114904
1642.800049,0.000115303
1642.900024,0.000115702
1643.0,0.000116101
1643.099976,0.0001165
1643.200073,0.0001169
1643.300049,0.000117299
1643.400024,0.000117699
1643.5,0.000118099
1643.599976,0.000118499
1643.699951,0.000118899
1643.799927,0.000119299
1643.899902,0.000119699
1644.0,0.0001201
1644.099976,0.000120501
1644.200073,0.000120902
1644.300049,0.000121303
1644.400024,0.000121705
1644.5,0.000122106
1644.599976,0.000122508
1644.700073,0.00012291
1644.800049,0.000123312
1644.899902,0.000123713
1645.0,0.000124116
1645.099976,0.000124518
1645.200073,0.000124921
1645.299927,0.000125323
1645.399902,0.000125725
1645.5,0.000126128
1645.599976,0.000126531
1645.700073,0.000126935
1645.800049,0.000127338
1645.900024,0.000127742
1646.0,0.000128145
1646.000122,0.000128146
1646.099976,0.000128549
1646.200073,0.000128953
1646.299927,0.000129356
1646.399902,0.000129761
1646.5,0.000130165
1646.599976,0.00013057
1646.700073,0.000130975
1646.800049,0.000131379
1646.899902,0.000131784
1647.0,0.000132189
1647.099976,0.000132594
1647.200073,0.000133
1647.300049,0.000133406
1647.400024,0.000133811
1647.5,0.000134217
1647.599976,0.000134623
1647.699951,0.000135029
1647.799927,0.000135435
1647.899902,0.000135841
1648.0,0.000136248
1648.099976,0.000136654
1648.200073,0.000137061
1648.300049,0.000137468
1648.400024,0.000137875
1648.5,0.000138282
1648.599976,0.000138689
1648.700073,0.000139097
1648.800049,0.000139504
1648.899902,0.000139911
1649.0,0.00014032
1649.099976,0.000140727
1649.200073,0.000141136
1649.299927,0.000141544
1649.399902,0.000141952
1649.5,0.000142361
1649.599976,0.000142769
1649.700073,0.000143179
1649.800049,0.000143587
1649.900024,0.000143996
1650.0,0.000144406
1650.000122,0.000144406
1650.099976,0.000144815
1650.200073,0.000145225
1650.300049,0.000145634
1650.399902,0.000146043
1650.5,0.000146453
1650.599976,0.000146863
1650.700073,0.000147274
1650.800049,0.000147684
1650.899902,0.000148094
1651.0,0.000148505
1651.099976,0.000148915
1651.199951,0.000149326
1651.300049,0.000149737
1651.400024,0.000150147
1651.500122,0.000150559
1651.599976,0.000150969
1651.699951,0.000151381
1651.799927,0.000151792
1651.899902,0.000152203
1652.0,0.000152616
1652.099976,0.000153027
1652.199951,0.000153439
1652.300049,0.000153852
1652.400024,0.000154264
1652.5,0.000154676
1652.599976,0.000155088
1652.699951,0.000155501
1652.800049,0.000155914
1652.900024,0.000156327
1653.0,0.000156739
1653.099976,0.000157152
1653.199951,0.000157565
1653.299927,0.000157979
1653.399902,0.000158392
1653.5,0.000158806
1653.599976,0.00015922
1653.699951,0.000159633
1653.800049,0.000160048
1653.900024,0.000160462
1654.0,0.000160876
1654.000122,0.000160877
1654.099976,0.00016129
1654.199951,0.000161704
1654.300049,0.000162119
1654.400024,0.000162534
1654.5,0.000162949
1654.599976,0.000163363
1654.699951,0.000163778
1654.800049,0.000164194
1654.899902,0.000164608
1655.0,0.000165024
1655.099976,0.00016544
1655.199951,0.000165855
1655.300049,0.000166271
1655.400024,0.000166687
1655.500122,0.000167103
1655.600098,0.000167519
1655.699951,0.000167934
1655.800049,0.000168351
1655.899902,0.000168767
1656.0,0.000169184
1656.099976,0.0001696
1656.199951,0.000170017
1656.300049,0.000170434
1656.400024,0.000170851
1656.5,0.000171268
1656.599976,0.000171685
1656.699951,0.000172102
1656.800049,0.00017252
1656.900024,0.000172937
1657.0,0.000173355
1657.000122,0.000173355
1657.099976,0.000173772
1657.199951,0.00017419
1657.299927,0.000174607
1657.399902,0.000175025
1657.5,0.000175444
1657.599976,0.000175862
1657.699951,0.00017628
1657.800049,0.000176699
1657.900024,0.000177117
1658.0,0.000177536
1658.099976,0.000177955
1658.199951,0.000178373
1658.300049,0.000178793
1658.400024,0.000179212
1658.5,0.000179631
1658.599976,0.00018005
1658.699951,0.000180469
1658.800049,0.000180889
1658.899902,0.000181309
1659.0,0.000181729
1659.099976,0.000182148
1659.199951,0.000182568
1659.300049,0.000182989
1659.400024,0.000183409
1659.5,0.000183829
1659.600098,0.00018425
1659.699951,0.000184669
1659.800049,0.00018509
1659.900024,0.000185511
1659.999878,0.000185931
1660.0,0.000185932
1660.099976,0.000186352
1660.199951,0.000186773
1660.300049,0.000187195
1660.400024,0.000187616
1660.5,0.000188037
1660.599976,0.000188458
1660.699951,0.000188879
1660.800049,0.000189301
1660.900024,0.000189723
1661.0,0.000190145
1661.100098,0.000190567
1661.199951,0.000190988
1661.300049,0.000191411
1661.399902,0.000191832
1661.499878,0.000192254
1661.599976,0.000192677
1661.699951,0.000193099
1661.800049,0.000193522
1661.900024,0.000193945
1662.0,0.000194367
1662.100098,0.00019479
1662.199951,0.000195213
1662.300049,0.000195636
1662.400024,0.000196059
1662.5,0.000196482
1662.600098,0.000196906
1662.699951,0.000197328
1662.800049,0.000197752
1662.900024,0.000198176
1662.999878,0.000198599
1663.0,0.000198599
1663.099976,0.000199023
1663.199951,0.000199446
1663.300049,0.000199871
1663.400024,0.000200295
1663.5,0.000200719
1663.600098,0.000201143
1663.700073,0.000201567
1663.800049,0.000201992
1663.900024,0.000202416
1664.0,0.00020284
1664.099976,0.000203265
1664.199951,0.000203689
1664.300049,0.000204115
1664.400024,0.000204539
1664.5,0.000204964
1664.599976,0.000205389
1664.699951,0.000205814
1664.800049,0.00020624
1664.900024,0.000206665
1665.0,0.00020709
1665.100098,0.000207516
1665.200073,0.000207942
1665.300049,0.000208367
1665.400024,0.000208793
1665.499878,0.000209218
1665.599976,0.000209644
1665.699951,0.00021007
1665.800049,0.000210497
1665.900024,0.000210923
1666.0,0.000211349
1666.100098,0.000211776
1666.199951,0.000212201
1666.300049,0.000212628
1666.400024,0.000213055
1666.5,0.000213481
1666.600098,0.000213908
1666.700073,0.000214335
1666.799927,0.000214761
1666.900024,0.000215189
1666.999878,0.000215616
1667.0,0.000215616
1667.099976,0.000216043
1667.199951,0.00021647
1667.299927,0.000216897
1667.400024,0.000217325
1667.5,0.000217752
1667.600098,0.00021818
1667.700073,0.000218608
1667.799927,0.000219035
1667.900024,0.000219463
1668.0,0.000219891
1668.100098,0.000220319
1668.199951,0.000220747
1668.299927,0.000221175
1668.400024,0.000221603
1668.5,0.000222031
1668.599976,0.00022246
1668.699951,0.000222888
1668.799927,0.000223316
1668.900024,0.000223745
1669.0,0.000224174
1669.100098,0.000224603
1669.200073,0.000225032
1669.300049,0.000225461
1669.400024,0.000225889
1669.5,0.000226318
1669.599976,0.000226747
1669.699951,0.000227176
1669.799927,0.000227606
1669.900024,0.000228035
1670.0,0.000228465
1670.100098,0.000228895
1670.199951,0.000229323
1670.299927,0.000229753
1670.400024,0.000230183
1670.5,0.000230613
1670.600098,0.000231043
1670.700073,0.000231473
1670.799927,0.000231902
1670.900024,0.000232333
1670.999878,0.000232762
1671.0,0.000232763
1671.099976,0.000233193
1671.199951,0.000233623
1671.299927,0.000234053
1671.400024,0.000234484
1671.5,0.000234914
1671.600098,0.000235345
1671.700073,0.000235775
1671.799927,0.000236205
1671.900024,0.000236636
1672.0,0.000237067
1672.100098,0.000237498
1672.200073,0.000237929
1672.299927,0.000238359
1672.400024,0.000238791
1672.5,0.000239222
1672.599854,0.000239653
1672.699951,0.000240084
1672.799927,0.000240516
1672.900024,0.000240948
1673.0,0.000241379
1673.100098,0.000241811
1673.200073,0.000242242
1673.300049,0.000242674
1673.400024,0.000243105
1673.5,0.000243537
1673.599976,0.000243969
1673.699951,0.000244401
1673.799927,0.000244833
1673.900024,0.000245265
1674.0,0.000245697
1674.099976,0.000246129
1674.199951,0.000246561
1674.299927,0.000246993
1674.400024,0.000247426
1674.5,0.000247858
1674.599976,0.000248291
1674.700073,0.000248724
1674.800049,0.000249156
1674.900024,0.000249589
1675.0,0.000250021
1675.099854,0.000250454
1675.199951,0.000250887
1675.299927,0.00025132
1675.400024,0.000251753
1675.5,0.000252186
1675.599976,0.000252619
1675.700073,0.000253052
1675.799927,0.000253485
1675.900024,0.000253919
1676.0,0.000254352
1676.099976,0.000254785
1676.200073,0.000255219
1676.300049,0.000255653
1676.400024,0.000256086
1676.5,0.00025652
1676.599854,0.000256953
1676.699951,0.000257387
1676.799927,0.000257821
1676.900024,0.000258255
1677.0,0.000258689
1677.099976,0.000259123
1677.200073,0.000259557
1677.300049,0.000259991
1677.400024,0.000260424
1677.5,0.000260858
1677.599976,0.000261292
1677.700073,0.000261727
1677.799927,0.00026216
1677.900024,0.000262595
1678.0,0.00026303
1678.099976,0.000263464
1678.199951,0.000263898
1678.299927,0.000264333
1678.399902,0.000264768
1678.5,0.000265203
1678.599976,0.000265638
1678.700073,0.000266073
1678.800049,0.000266508
1678.900146,0.000266943
1679.0,0.000267378
1679.099976,0.000267813
1679.199951,0.000268247
1679.299927,0.000268682
1679.399902,0.000269117
1679.5,0.000269553
1679.599976,0.000269988
1679.700073,0.000270424
1679.799927,0.000270858
1679.899902,0.000271294
1680.0,0.00027173
1680.099976,0.000272165
1680.200073,0.000272601
1680.300049,0.000273036
1680.400146,0.000273472
1680.5,0.000273907
1680.599976,0.000274343
1680.699951,0.000274778
1680.799927,0.000275214
1680.899902,0.00027565
1681.0,0.000276087
1681.099976,0.000276522
1681.200073,0.000276959
1681.300049,0.000277395
1681.399902,0.00027783
1681.5,0.000278267
1681.599976,0.000278703
1681.700073,0.00027914
1681.800049,0.000279576
1681.899902,0.000280012
1682.0,0.000280449
1682.099976,0.000280885
1682.200073,0.000281322
1682.299927,0.000281757
1682.399902,0.000282194
1682.5,0.000282631
1682.599976,0.000283067
1682.700073,0.000283504
1682.800049,0.000283941
1682.900024,0.000284378
1683.0,0.000284814
1683.099976,0.000285251
1683.200073,0.000285688
1683.299927,0.000286125
1683.399902,0.000286561
1683.5,0.000286999
1683.599976,0.000287436
1683.700073,0.000287873
1683.800049,0.000288311
1683.899902,0.000288747
1684.0,0.000289185
1684.099976,0.000289622
1684.200073,0.00029006
1684.300049,0.000290497
1684.400024,0.000290934
1684.5,0.000291371
1684.599976,0.000291808
1684.700073,0.000292246
1684.799927,0.000292683
1684.899902,0.000293121
1685.0,0.000293559
1685.099976,0.000293996
1685.200073,0.000294434
1685.300049,0.000294872
1685.400024,0.000295309
1685.5,0.000295747
1685.599976,0.000296184
1685.699951,0.000296622
1685.800049,0.00029706
1685.900024,0.000297498
1686.0,0.000297936
1686.099976,0.000298374
1686.199951,0.000298811
1686.299927,0.000299249
1686.399902,0.000299687
1686.5,0.000300125
1686.599976,0.000300563
1686.699951,0.000301001
1686.800049,0.00030144
1686.900024,0.000301878
1687.0,0.000302316
1687.000122,0.000302317
1687.099976,0.000302754
1687.199951,0.000303192
1687.300049,0.000303631
1687.399902,0.000304069
1687.5,0.000304508
1687.599976,0.000304946
1687.699951,0.000305384
1687.800049,0.000305823
1687.899902,0.000306261
1688.0,0.0003067
1688.099976,0.000307138
1688.199951,0.000307577
1688.300049,0.000308015
1688.400024,0.000308453
1688.500122,0.000308892
1688.599976,0.00030933
1688.699951,0.000309768
1688.799927,0.000310207
1688.899902,0.000310645
1689.0,0.000311085
1689.099976,0.000311523
1689.199951,0.000311962
1689.300049,0.000312401
1689.400024,0.000312839
1689.5,0.000313278
1689.599976,0.000313717
1689.699951,0.000314155
1689.800049,0.000314595
1689.900024,0.000315034
1690.0,0.000315473
1690.000122,0.000315473
1690.099976,0.000315911
1690.199951,0.00031635
1690.299927,0.000316789
1690.399902,0.000317228
1690.5,0.000317667
1690.599976,0.000318106
1690.699951,0.000318545
1690.800049,0.000318985
1690.900024,0.000319424
1691.0,0.000319863
1691.000122,0.000319863
1691.099976,0.000320301
1691.199951,0.00032074
1691.300049,0.000321179
1691.400024,0.000321618
1691.5,0.000322057
1691.599976,0.000322496
1691.699951,0.000322935
1691.800049,0.000323374
1691.899902,0.000323813
1692.0,0.000324253
1692.099976,0.000324692
1692.199951,0.00032513
1692.300049,0.00032557
1692.400024,0.000326009
1692.500122,0.000326449
1692.600098,0.000326888
1692.699951,0.000327327
1692.800049,0.000327767
1692.899902,0.000328206
1693.0,0.000328646
1693.099976,0.000329084
1693.199951,0.000329523
1693.300049,0.000329963
1693.400024,0.000330402
1693.5,0.000330841
1693.599976,0.000331281
1693.699951,0.00033172
1693.800049,0.00033216
1693.900024,0.000332599
1694.0,0.000333039
1694.000122,0.000333039
1694.100098,0.000333478
1694.199951,0.000333917
1694.300049,0.000334356
1694.399902,0.000334795
1694.5,0.000335234
1694.599976,0.000335673
1694.699951,0.000336113
1694.800049,0.000336552
1694.900024,0.000336992
1695.0,0.000337431
1695.000122,0.000337432
1695.099976,0.00033787
1695.199951,0.000338309
1695.300049,0.000338749
1695.400024,0.000339188
1695.5,0.000339628
1695.599976,0.000340067
1695.699951,0.000340507
1695.800049,0.000340947
1695.900024,0.000341386
1695.999878,0.000341826
1696.0,0.000341826
1696.099976,0.000342265
1696.199951,0.000342704
1696.300049,0.000343144
1696.400024,0.000343583
1696.5,0.000344022
1696.600098,0.000344462
1696.699951,0.000344901
1696.800049,0.000345341
1696.900024,0.00034578
1696.999878,0.000346219
1697.0,0.00034622
1697.099976,0.000346659
1697.199951,0.000347098
1697.300049,0.000347537
1697.400024,0.000347976
1697.5,0.000348415
1697.599976,0.000348855
1697.699951,0.000349294
1697.800049,0.000349734
1697.900024,0.000350173
1698.0,0.000350613
1698.100098,0.000351052
1698.200073,0.000351491
1698.300049,0.000351931
1698.400024,0.00035237
1698.499878,0.000352809
1698.599976,0.000353249
1698.699951,0.000353688
1698.800049,0.000354128
1698.900024,0.000354567
1699.0,0.000355007
1699.100098,0.000355446
1699.199951,0.000355884
1699.300049,0.000356324
1699.400024,0.000356763
1699.5,0.000357202
1699.600098,0.000357641
1699.699951,0.00035808
1699.800049,0.000358519
1699.899902,0.000358958
1699.999878,0.000359397
1700.0,0.000359398
1700.099976,0.000359847
1700.199951,0.000360297
1700.300049,0.000360747
1700.400024,0.000361196
1700.5,0.000361646
1700.600098,0.000362097
1700.700073,0.000362547
1700.800049,0.000362997
1700.900024,0.000363447
1701.0,0.000363897
1701.099976,0.000364347
1701.199951,0.000364797
1701.300049,0.000365247
1701.400024,0.000365697
1701.499878,0.000366147
1701.599976,0.000366598
1701.699951,0.000367048
1701.800049,0.000367499
1701.900024,0.00036795
1702.0,0.0003684
1702.100098,0.000368851
1702.200073,0.0003693
1702.300049,0.00036975
1702.400024,0.0003702
1702.5,0.000370649
1702.599976,0.000371099
1702.699951,0.000371549
1702.800049,0.000372
1702.900024,0.00037245
1703.0,0.0003729
1703.099976,0.00037335
1703.199951,0.0003738
1703.300049,0.00037425
1703.400024,0.0003747
1703.5,0.00037515
1703.600098,0.000375601
1703.700073,0.000376051
1703.800049,0.000376502
1703.900024,0.000376952
1703.999878,0.000377402
1704.0,0.000377402
1704.099976,0.000377852
1704.199951,0.000378303
1704.300049,0.000378753
1704.400024,0.000379204
1704.5,0.000379654
1704.600098,0.000380105
1704.699951,0.000380555
1704.800049,0.000381006
1704.900024,0.000381457
1705.0,0.000381907
1705.100098,0.000382358
1705.199951,0.000382807
1705.300049,0.000383257
1705.400024,0.000383706
1705.5,0.000384156
1705.599976,0.000384606
1705.699951,0.000385056
1705.800049,0.000385506
1705.900024,0.000385956
1706.0,0.000386406
1706.100098,0.000386857
1706.200073,0.000387307
1706.300049,0.000387757
1706.400024,0.000388207
1706.5,0.000388657
1706.599854,0.000389107
1706.699951,0.000389557
1706.799927,0.000390008
1706.900024,0.000390459
1707.0,0.000390909
1707.100098,0.000391359
1707.199951,0.000391809
1707.299927,0.000392259
1707.400024,0.000392709
1707.5,0.000393159
1707.600098,0.00039361
1707.700073,0.00039406
1707.800049,0.00039451
1707.900024,0.000394961
1708.0,0.000395411
1708.099854,0.00039586
1708.199951,0.00039631
1708.299927,0.00039676
1708.400024,0.00039721
1708.5,0.000397659
1708.600098,0.00039811
1708.700073,0.00039856
1708.799927,0.000399009
1708.900024,0.000399459
1709.0,0.000399909
1709.100098,0.000400359
1709.200073,0.000400809
1709.299927,0.000401258
1709.400024,0.000401708
1709.5,0.000402158
1709.599854,0.000402607
1709.699951,0.000403058
1709.799927,0.000403508
1709.900024,0.000403958
1710.0,0.000404408
1710.100098,0.000404858
1710.200073,0.000405308
1710.300049,0.000405757
1710.400024,0.000406207
1710.5,0.000406656
1710.600098,0.000407106
1710.699951,0.000407556
1710.799927,0.000408005
1710.900024,0.000408456
1711.0,0.000408906
1711.100098,0.000409355
1711.199951,0.000409804
1711.299927,0.000410253
1711.400024,0.000410703
1711.5,0.000411152
1711.600098,0.000411602
1711.700073,0.000412052
1711.800049,0.000412501
1711.900146,0.000412952
1712.0,0.000413401
1712.099976,0.00041385
1712.199951,0.000414299
1712.299927,0.000414748
1712.400024,0.000415197
1712.5,0.000415647
1712.599976,0.000416096
1712.700073,0.000416546
1712.799927,0.000416995
1712.900024,0.000417445
1713.0,0.000417894
1713.099976,0.000418343
1713.200073,0.000418792
1713.300049,0.000419241
1713.400024,0.00041969
1713.5,0.000420139
1713.599854,0.000420587
1713.699951,0.000421036
1713.799927,0.000421486
1713.900024,0.000421935
1714.0,0.000422384
1714.099976,0.000422833
1714.200073,0.000423281
1714.300049,0.00042373
1714.400024,0.000424178
1714.5,0.000424626
1714.599976,0.000425075
1714.700073,0.000425524
1714.799927,0.000425972
1714.900024,0.000426421
1715.0,0.00042687
1715.099976,0.000427318
1715.199951,0.000427767
1715.299927,0.000428215
1715.400024,0.000428664
1715.5,0.000429113
1715.599976,0.000429561
1715.700073,0.00043001
1715.800049,0.000430459
1715.900146,0.000430909
1716.0,0.000431357
1716.099976,0.000431804
1716.200073,0.000432252
1716.299927,0.000432699
1716.399902,0.000433147
1716.5,0.000433595
1716.599976,0.000434043
1716.700073,0.000434491
1716.799927,0.000434939
1716.899902,0.000435387
1717.0,0.000435835
1717.099976,0.000436283
1717.200073,0.00043673
1717.300049,0.000437178
1717.400146,0.000437626
1717.5,0.000438073
1717.599976,0.00043852
1717.699951,0.000438968
1717.799927,0.000439416
1717.899902,0.000439863
1718.0,0.000440312
1718.099976,0.000440759
1718.200073,0.000441207
1718.300049,0.000441654
1718.399902,0.000442101
1718.5,0.000442549
1718.599976,0.000442996
1718.700073,0.000443445
1718.800049,0.000443892
1718.899902,0.000444339
1719.0,0.000444788
1719.099976,0.000445234
1719.200073,0.000445681
1719.299927,0.000446126
1719.399902,0.000446573
1719.5,0.00044702
1719.599976,0.000447466
1719.700073,0.000447913
1719.800049,0.00044836
1719.900024,0.000448806
1720.0,0.000449253
1720.099976,0.000449699
1720.200073,0.000450146
1720.300049,0.000450592
1720.399902,0.000451038
1720.5,0.000451484
1720.599976,0.000451931
1720.700073,0.000452378
1720.800049,0.000452824
1720.899902,0.00045327
1721.0,0.000453717
1721.099976,0.000454163
1721.200073,0.00045461
1721.300049,0.000455056
1721.400024,0.000455502
1721.500122,0.000455948
1721.599976,0.000456394
1721.700073,0.000456841
1721.799927,0.000457286
1721.899902,0.000457733
1722.0,0.000458179
1722.099976,0.000458624
1722.199951,0.000459069
1722.300049,0.000459514
1722.400024,0.000459959
1722.5,0.000460403
1722.599976,0.000460848
1722.699951,0.000461293
1722.800049,0.000461739
1722.900024,0.000462184
1723.0,0.000462629
1723.099976,0.000463073
1723.199951,0.000463518
1723.299927,0.000463962
1723.399902,0.000464407
1723.5,0.000464852
1723.599976,0.000465297
1723.699951,0.000465742
1723.800049,0.000466187
1723.900024,0.000466632
1724.0,0.000467077
1724.000122,0.000467078
1724.099976,0.000467521
1724.199951,0.000467965
1724.300049,0.00046841
1724.399902,0.000468853
1724.5,0.000469298
1724.599976,0.000469742
1724.699951,0.000470187
1724.799927,0.000470631
1724.899902,0.000471076
1725.0,0.000471521
1725.099976,0.000471964
