Wavelength,Transmission
1150.0,0.000170566
1151.0,0.000192905
1152.0,0.000217186
1153.0,0.000243463
1154.0,0.000271792
1155.0,0.000302231
1156.0,0.000334822
1157.0,0.000369594
1158.0,0.000406579
1159.0,0.000445782
1160.0,0.000487211
1161.0,0.000524855
1162.0,0.000564069
1163.0,0.000604799
1164.0,0.000647006
1165.0,0.000690629
1166.0,0.000735531
1167.0,0.000781665
1168.0,0.000828937
1169.0,0.000877201
1170.0,0.00092639
1171.0,0.000979558
1172.0,0.00103386
1173.0,0.00108925
1174.0,0.00114582
1175.0,0.0012036
1176.0,0.00126262
1177.0,0.00132294
1178.0,0.00138464
1179.0,0.00144778
1180.0,0.00151244
1181.0,0.00156855
1182.0,0.0016259
1183.0,0.00168458
1184.0,0.00174471
1185.0,0.00180631
1186.0,0.00186929
1187.0,0.0019335
1188.0,0.00199885
1189.0,0.0020652
1190.0,0.00213236
1191.0,0.0021979
1192.0,0.00226373
1193.0,0.00232966
1194.0,0.00239538
1195.0,0.00246077
1196.0,0.00252561
1197.0,0.00258953
1198.0,0.00265232
1199.0,0.00271378
1200.0,0.00277357
1201.0,0.00281085
1202.0,0.00284552
1203.0,0.00287744
1204.0,0.00290643
1205.0,0.00293267
1206.0,0.00295625
1207.0,0.00297715
1208.0,0.00299532
1209.0,0.00301099
1210.0,0.00302421
1211.0,0.00303817
1212.0,0.00304977
1213.0,0.00305909
1214.0,0.00306404
1215.0,0.00307344
1216.0,0.00308093
1217.0,0.00308653
1218.0,0.00309023
1219.0,0.00309225
1220.0,0.00309269
1221.0,0.00305955
1222.0,0.00302553
1223.0,0.00299074
1224.0,0.00295521
1225.0,0.00291896
1226.0,0.00288208
1227.0,0.00284462
1228.0,0.00280661
1229.0,0.00276812
1230.0,0.00272921
1231.0,0.00268853
1232.0,0.00264758
1233.0,0.00260642
1234.0,0.00256509
1235.0,0.00252367
1236.0,0.00248219
1237.0,0.00244072
1238.0,0.00239931
1239.0,0.00235805
1240.0,0.00231697
1241.0,0.0022745
1242.0,0.00223242
1243.0,0.00219077
1244.0,0.00214957
1245.0,0.0021089
1246.0,0.00206887
1247.0,0.00202948
1248.0,0.00199074
1249.0,0.00195272
1250.0,0.00191539
1251.0,0.00187722
1252.0,0.00183977
1253.0,0.00180306
1254.0,0.00176705
1255.0,0.0017317
1256.0,0.00169708
1257.0,0.00166313
1258.0,0.00162983
1259.0,0.00159717
1260.0,0.00156462
1261.0,0.00153135
1262.0,0.00149877
1263.0,0.00146692
1264.0,0.00143576
1265.0,0.00140527
1266.0,0.00137543
1267.0,0.00134628
1268.0,0.00131776
1269.0,0.00128985
1270.0,0.0012626
1271.0,0.00123564
1272.0,0.00120928
1273.0,0.00118352
1274.0,0.00115838
1275.0,0.0011338
1276.0,0.00110978
1277.0,0.00108634
1278.0,0.00106345
1279.0,0.00104108
1280.0,0.00101923
1281.0,0.000997733
1282.0,0.000976726
1283.0,0.00095621
1284.0,0.000936208
1285.0,0.000916676
1286.0,0.000897601
1287.0,0.000878992
1288.0,0.000860839
1289.0,0.000843112
1290.0,0.000825797
1291.0,0.000808866
1292.0,0.000792337
1293.0,0.000776193
1294.0,0.000760438
1295.0,0.000745069
1296.0,0.000730055
1297.0,0.000715386
1298.0,0.000701081
1299.0,0.000687102
1300.0,0.00067344
1301.0,0.000659942
1302.0,0.00064676
1303.0,0.000633869
1304.0,0.000621264
1305.0,0.000608947
1306.0,0.000596841
1307.0,0.000584981
1308.0,0.000573379
1309.0,0.000562021
1310.0,0.000550894
1311.0,0.000540014
1312.0,0.000529365
1313.0,0.000518929
1314.0,0.000508702
1315.0,0.000498696
1316.0,0.000488899
1317.0,0.000479301
1318.0,0.000469904
1319.0,0.000460717
1320.0,0.000451721
1321.0,0.000442914
1322.0,0.000434301
1323.0,0.000425876
1324.0,0.000417633
1325.0,0.000409573
1326.0,0.000401695
1327.0,0.000393991
1328.0,0.000386456
1329.0,0.000379097
1330.0,0.00037191
1331.0,0.000364893
1332.0,0.000358035
1333.0,0.000351344
1334.0,0.000344805
1335.0,0.000338417
1336.0,0.000332184
1337.0,0.000326099
1338.0,0.000320156
1339.0,0.000314356
1340.0,0.0003087
1341.0,0.000303119
1342.0,0.00029767
1343.0,0.000292363
1344.0,0.000287185
1345.0,0.000282133
1346.0,0.000277208
1347.0,0.00027241
1348.0,0.00026773
1349.0,0.000263166
1350.0,0.000258724
1351.0,0.000254268
1352.0,0.000249914
1353.0,0.000245671
1354.0,0.000241541
1355.0,0.000237516
1356.0,0.000233593
1357.0,0.000229778
1358.0,0.000226062
1359.0,0.00022244
1360.0,0.000218915
1361.0,0.000215384
1362.0,0.000211944
1363.0,0.000208592
1364.0,0.000205333
1365.0,0.000202157
1366.0,0.000199062
1367.0,0.000196049
1368.0,0.000193116
1369.0,0.000190256
1370.0,0.000187468
1371.0,0.000184764
1372.0,0.000182127
1373.0,0.000179555
1374.0,0.000177047
1375.0,0.000174603
1376.0,0.000172217
1377.0,0.000169887
1378.0,0.000167616
1379.0,0.000165396
1380.0,0.000163227
1381.0,0.000161097
1382.0,0.000159015
1383.0,0.000156978
1384.0,0.000154983
1385.0,0.000153031
1386.0,0.000151118
1387.0,0.000149242
1388.0,0.000147401
1389.0,0.000145595
1390.0,0.00014382
1391.0,0.000142081
1392.0,0.000140371
1393.0,0.000138687
1394.0,0.000137027
1395.0,0.000135391
1396.0,0.000133775
1397.0,0.000132179
1398.0,0.000130602
1399.0,0.000129041
1400.0,0.000127496
1401.0,0.000125884
1402.0,0.00012429
1403.0,0.000122714
1404.0,0.000121157
1405.0,0.000119618
1406.0,0.000118097
1407.0,0.000116594
1408.0,0.000115108
1409.0,0.00011364
1410.0,0.000112189
1411.0,0.000110766
1412.0,0.00010936
1413.0,0.00010797
1414.0,0.000106597
1415.0,0.00010524
1416.0,0.0001039
1417.0,0.000102575
1418.0,0.000101267
1419.0,9.99733e-05
1420.0,9.8696e-05
1421.0,9.74131e-05
1422.0,9.61456e-05
1423.0,9.48942e-05
1424.0,9.36577e-05
1425.0,9.24364e-05
1426.0,9.12301e-05
1427.0,9.00388e-05
1428.0,8.88622e-05
1429.0,8.76999e-05
1430.0,8.65526e-05
1431.0,8.54284e-05
1432.0,8.43182e-05
1433.0,8.3222e-05
1434.0,8.21396e-05
1435.0,8.10705e-05
1436.0,8.00147e-05
1437.0,7.89727e-05
1438.0,7.79434e-05
1439.0,7.69271e-05
1440.0,7.59237e-05
1441.0,7.4926e-05
1442.0,7.39408e-05
1443.0,7.29683e-05
1444.0,7.2011e-05
1445.0,7.10702e-05
1446.0,7.01411e-05
1447.0,6.92241e-05
1448.0,6.83188e-05
1449.0,6.74251e-05
1450.0,6.65429e-05
1451.0,6.56816e-05
1452.0,6.48315e-05
1453.0,6.39919e-05
1454.0,6.31636e-05
1455.0,6.2346e-05
1456.0,6.15389e-05
1457.0,6.0742e-05
1458.0,5.99561e-05
1459.0,5.91801e-05
1460.0,5.8414e-05
1461.0,5.76536e-05
1462.0,5.6903e-05
1463.0,5.61624e-05
1464.0,5.54313e-05
1465.0,5.47104e-05
1466.0,5.39988e-05
1467.0,5.32965e-05
1468.0,5.26035e-05
1469.0,5.192e-05
1470.0,5.12456e-05
1471.0,5.0586e-05
1472.0,4.99353e-05
1473.0,4.92933e-05
1474.0,4.866e-05
1475.0,4.80352e-05
1476.0,4.74187e-05
1477.0,4.68105e-05
1478.0,4.62105e-05
1479.0,4.5619e-05
1480.0,4.5035e-05
1481.0,4.44511e-05
1482.0,4.38752e-05
1483.0,4.33074e-05
1484.0,4.27471e-05
1485.0,4.21945e-05
1486.0,4.16495e-05
1487.0,4.1112e-05
1488.0,4.05817e-05
1489.0,4.00593e-05
1490.0,3.95451e-05
1491.0,3.90402e-05
1492.0,3.85424e-05
1493.0,3.80515e-05
1494.0,3.75675e-05
1495.0,3.70899e-05
1496.0,3.66193e-05
1497.0,3.61549e-05
1498.0,3.5697e-05
1499.0,3.52455e-05
1500.0,3.48003e-05
1501.0,3.43989e-05
1502.0,3.40027e-05
1503.0,3.36118e-05
1504.0,3.3226e-05
1505.0,3.28451e-05
1506.0,3.24693e-05
1507.0,3.20987e-05
1508.0,3.17327e-05
1509.0,3.13716e-05
1510.0,3.10152e-05
1511.0,3.0668e-05
1512.0,3.0325e-05
1513.0,2.99866e-05
1514.0,2.96528e-05
1515.0,2.93235e-05
1516.0,2.89981e-05
1517.0,2.86775e-05
1518.0,2.83608e-05
1519.0,2.80483e-05
1520.0,2.774e-05
1521.0,2.74453e-05
1522.0,2.71546e-05
1523.0,2.68677e-05
1524.0,2.65846e-05
1525.0,2.63052e-05
1526.0,2.60293e-05
1527.0,2.57572e-05
1528.0,2.54885e-05
1529.0,2.52234e-05
1530.0,2.49618e-05
1531.0,2.47072e-05
1532.0,2.44561e-05
1533.0,2.42081e-05
1534.0,2.39635e-05
1535.0,2.37209e-05
1536.0,2.34782e-05
1537.0,2.32382e-05
1538.0,2.30014e-05
1539.0,2.27677e-05
1540.0,2.25369e-05
1541.0,2.23026e-05
1542.0,2.20714e-05
1543.0,2.18431e-05
1544.0,2.16176e-05
1545.0,2.13952e-05
1546.0,2.11755e-05
1547.0,2.09586e-05
1548.0,2.07444e-05
1549.0,2.05329e-05
1550.0,2.0324e-05
1551.0,2.01128e-05
1552.0,1.99043e-05
1553.0,1.96984e-05
1554.0,1.94949e-05
1555.0,1.92942e-05
1556.0,1.90958e-05
1557.0,1.88998e-05
1558.0,1.87063e-05
1559.0,1.85151e-05
1560.0,1.83261e-05
1561.0,1.81347e-05
1562.0,1.79456e-05
1563.0,1.77586e-05
1564.0,1.75738e-05
1565.0,1.73911e-05
1566.0,1.72105e-05
1567.0,1.70318e-05
1568.0,1.68551e-05
1569.0,1.66805e-05
1570.0,1.65076e-05
1571.0,1.63418e-05
1572.0,1.61778e-05
1573.0,1.60155e-05
1574.0,1.58549e-05
1575.0,1.56958e-05
1576.0,1.55385e-05
1577.0,1.53828e-05
1578.0,1.52284e-05
1579.0,1.50757e-05
1580.0,1.49244e-05
1581.0,1.47716e-05
1582.0,1.46214e-05
1583.0,1.44735e-05
1584.0,1.43269e-05
1585.0,1.41814e-05
1586.0,1.40373e-05
1587.0,1.38944e-05
1588.0,1.37527e-05
1589.0,1.36122e-05
1590.0,1.34727e-05
1591.0,1.334e-05
1592.0,1.32083e-05
1593.0,1.30776e-05
1594.0,1.29478e-05
1595.0,1.2819e-05
1596.0,1.26911e-05
1597.0,1.25642e-05
1598.0,1.24381e-05
1599.0,1.23128e-05
1600.0,1.21884e-05
1601.0,1.20783e-05
1602.0,1.19688e-05
1603.0,1.18598e-05
1604.0,1.17515e-05
1605.0,1.16435e-05
1606.0,1.15362e-05
1607.0,1.14293e-05
1608.0,1.1323e-05
1609.0,1.1217e-05
1610.0,1.11116e-05
1611.0,1.10115e-05
1612.0,1.09117e-05
1613.0,1.08123e-05
1614.0,1.07133e-05
1615.0,1.06145e-05
1616.0,1.0516e-05
1617.0,1.04179e-05
1618.0,1.032e-05
1619.0,1.02224e-05
1620.0,1.01251e-05
1621.0,1.00334e-05
1622.0,9.94185e-06
1623.0,9.85048e-06
1624.0,9.75926e-06
1625.0,9.66812e-06
1626.0,9.57723e-06
1627.0,9.48643e-06
1628.0,9.3958e-06
1629.0,9.3052e-06
1630.0,9.21478e-06
1631.0,9.12898e-06
1632.0,9.04341e-06
1633.0,8.95799e-06
1634.0,8.8728e-06
1635.0,8.78785e-06
1636.0,8.70321e-06
1637.0,8.61873e-06
1638.0,8.53457e-06
1639.0,8.45073e-06
1640.0,8.36714e-06
1641.0,8.28173e-06
1642.0,8.19664e-06
1643.0,8.11188e-06
1644.0,8.02745e-06
1645.0,7.94335e-06
1646.0,7.85967e-06
1647.0,7.77632e-06
1648.0,7.69338e-06
1649.0,7.61078e-06
1650.0,7.58085e-06
1651.0,7.55247e-06
1652.0,7.52386e-06
1653.0,7.49502e-06
1654.0,7.46602e-06
1655.0,7.43672e-06
1656.0,7.40719e-06
1657.0,7.37751e-06
1658.0,7.34753e-06
1659.0,7.31732e-06
1660.0,7.28688e-06
1661.0,7.25278e-06
1662.0,7.21836e-06
1663.0,7.18367e-06
1664.0,7.14878e-06
1665.0,7.11356e-06
1666.0,7.07807e-06
1667.0,7.04231e-06
1668.0,7.00636e-06
1669.0,6.97007e-06
1670.0,6.93352e-06
1671.0,6.90177e-06
1672.0,6.86984e-06
1673.0,6.83758e-06
1674.0,6.80506e-06
1675.0,6.77234e-06
1676.0,6.7393e-06
1677.0,6.70601e-06
1678.0,6.67245e-06
1679.0,6.63869e-06
1680.0,6.60461e-06
1681.0,6.52562e-06
1682.0,6.44697e-06
1683.0,6.36868e-06
1684.0,6.29074e-06
1685.0,6.21315e-06
1686.0,6.13592e-06
1687.0,6.05904e-06
1688.0,5.98251e-06
1689.0,5.90634e-06
1690.0,5.83052e-06
1691.0,5.76062e-06
1692.0,5.69102e-06
1693.0,5.62173e-06
1694.0,5.55275e-06
1695.0,5.48407e-06
1696.0,5.4157e-06
1697.0,5.34765e-06
1698.0,5.2799e-06
1699.0,5.21247e-06
1700.0,5.14534e-06
1701.0,5.08691e-06
1702.0,5.02872e-06
1703.0,4.97078e-06
1704.0,4.91308e-06
1705.0,4.85563e-06
1706.0,4.79844e-06
1707.0,4.74149e-06
1708.0,4.68479e-06
1709.0,4.62835e-06
1710.0,4.57215e-06
1711.0,4.5198e-06
1712.0,4.46767e-06
1713.0,4.41576e-06
1714.0,4.36408e-06
1715.0,4.31262e-06
1716.0,4.26138e-06
1717.0,4.21037e-06
1718.0,4.15958e-06
1719.0,4.10902e-06
1720.0,4.05869e-06
1721.0,4.01381e-06
1722.0,3.96911e-06
1723.0,3.92457e-06
1724.0,3.88021e-06
1725.0,3.83602e-06
1726.0,3.792e-06
1727.0,3.74816e-06
1728.0,3.70449e-06
1729.0,3.661e-06
1730.0,3.61768e-06
1731.0,3.57725e-06
1732.0,3.53697e-06
1733.0,3.49684e-06
1734.0,3.45688e-06
1735.0,3.41707e-06
1736.0,3.37743e-06
1737.0,3.33794e-06
1738.0,3.29862e-06
1739.0,3.25946e-06
1740.0,3.22046e-06
1741.0,3.18397e-06
1742.0,3.14764e-06
1743.0,3.11145e-06
1744.0,3.07541e-06
1745.0,3.03951e-06
1746.0,3.00376e-06
1747.0,2.96817e-06
1748.0,2.93272e-06
1749.0,2.89742e-06
1750.0,2.86228e-06
1751.0,2.82831e-06
1752.0,2.79449e-06
1753.0,2.76082e-06
1754.0,2.72728e-06
1755.0,2.6939e-06
1756.0,2.66066e-06
1757.0,2.62757e-06
1758.0,2.59462e-06
1759.0,2.56182e-06
1760.0,2.52918e-06
1761.0,2.50178e-06
1762.0,2.47448e-06
1763.0,2.44726e-06
1764.0,2.42013e-06
1765.0,2.39309e-06
1766.0,2.36614e-06
1767.0,2.33928e-06
1768.0,2.31251e-06
1769.0,2.28584e-06
1770.0,2.25925e-06
1771.0,2.23451e-06
1772.0,2.20985e-06
1773.0,2.18527e-06
1774.0,2.16078e-06
1775.0,2.13638e-06
1776.0,2.11205e-06
1777.0,2.08781e-06
1778.0,2.06366e-06
1779.0,2.03959e-06
1780.0,2.0156e-06
1781.0,1.99327e-06
1782.0,1.97102e-06
1783.0,1.94885e-06
1784.0,1.92675e-06
1785.0,1.90474e-06
1786.0,1.8828e-06
1787.0,1.86094e-06
1788.0,1.83916e-06
1789.0,1.81746e-06
1790.0,1.79584e-06
1791.0,1.7757e-06
1792.0,1.75563e-06
1793.0,1.73564e-06
1794.0,1.71571e-06
1795.0,1.69587e-06
1796.0,1.67609e-06
1797.0,1.65639e-06
1798.0,1.63676e-06
1799.0,1.61721e-06
1800.0,1.59774e-06
1801.0,1.58056e-06
1802.0,1.56344e-06
1803.0,1.54637e-06
1804.0,1.52935e-06
1805.0,1.51239e-06
1806.0,1.49548e-06
1807.0,1.47862e-06
1808.0,1.46181e-06
1809.0,1.44506e-06
1810.0,1.42836e-06
1811.0,1.41285e-06
1812.0,1.39739e-06
1813.0,1.38198e-06
1814.0,1.36662e-06
1815.0,1.35131e-06
1816.0,1.33605e-06
1817.0,1.32083e-06
1818.0,1.30567e-06
1819.0,1.29056e-06
1820.0,1.27549e-06
1821.0,1.24492e-06
1822.0,1.21447e-06
1823.0,1.18416e-06
1824.0,1.15397e-06
1825.0,1.12392e-06
1826.0,1.09399e-06
1827.0,1.0642e-06
1828.0,1.03454e-06
1829.0,1.00501e-06
1830.0,9.75622e-07
1831.0,9.47249e-07
1832.0,9.19005e-07
1833.0,8.90892e-07
1834.0,8.62909e-07
1835.0,8.35057e-07
1836.0,8.07337e-07
1837.0,7.7975e-07
1838.0,7.52295e-07
1839.0,7.24974e-07
1840.0,6.97787e-07
1841.0,6.7825e-07
1842.0,6.58767e-07
1843.0,6.39336e-07
1844.0,6.19959e-07
