Wavelength,Transmission
1640.0,7.53375e-06
1640.099976,7.54011e-06
1640.200073,7.56415e-06
1640.300049,7.58814e-06
1640.400146,7.61215e-06
1640.5,7.63609e-06
1640.599976,7.66004e-06
1640.630005,7.66723e-06
1640.700073,7.68401e-06
1640.799927,7.7079e-06
1640.900024,7.73183e-06
1641.0,7.75573e-06
1641.099976,7.7796e-06
1641.200073,7.80349e-06
1641.299927,7.82731e-06
1641.400024,7.85117e-06
1641.5,7.87498e-06
1641.599976,7.89878e-06
1641.699951,7.92257e-06
1641.700073,7.92259e-06
1641.800049,7.94635e-06
1641.900146,7.97012e-06
1642.0,7.99382e-06
1642.099976,8.01753e-06
1642.199951,8.04122e-06
1642.299927,8.0649e-06
1642.400024,8.0886e-06
1642.5,8.11225e-06
1642.599976,8.13588e-06
1642.700073,8.15953e-06
1642.780029,8.17841e-06
1642.800049,8.18313e-06
1642.900024,8.20672e-06
1643.0,8.2303e-06
1643.099976,8.25386e-06
1643.200073,8.27744e-06
1643.300049,8.30097e-06
1643.400024,8.32448e-06
1643.5,8.34798e-06
1643.599976,8.37147e-06
1643.699951,8.39494e-06
1643.799927,8.41839e-06
1643.849976,8.43013e-06
1643.899902,8.44183e-06
1644.0,8.46527e-06
1644.099976,8.48866e-06
1644.200073,8.51207e-06
1644.300049,8.53544e-06
1644.400024,8.55879e-06
1644.5,8.58213e-06
1644.599976,8.60544e-06
1644.700073,8.62878e-06
1644.800049,8.65207e-06
1644.899902,8.67532e-06
1644.930054,8.68233e-06
1645.0,8.6986e-06
1645.099976,8.72185e-06
1645.200073,8.7451e-06
1645.299927,8.76828e-06
1645.399902,8.79148e-06
1645.5,8.81469e-06
1645.599976,8.83786e-06
1645.700073,8.86104e-06
1645.800049,8.88418e-06
1645.900024,8.9073e-06
1646.0,8.93041e-06
1646.000122,8.93043e-06
1646.099976,8.95349e-06
1646.200073,8.9766e-06
1646.299927,8.99963e-06
1646.399902,9.02268e-06
1646.5,9.04573e-06
1646.599976,9.06875e-06
1646.700073,9.09178e-06
1646.800049,9.11476e-06
1646.899902,9.13771e-06
1647.0,9.16069e-06
1647.079956,9.17904e-06
1647.099976,9.18363e-06
1647.200073,9.20657e-06
1647.300049,9.22947e-06
1647.400024,9.25236e-06
1647.5,9.27523e-06
1647.599976,9.29809e-06
1647.699951,9.32093e-06
1647.799927,9.34376e-06
1647.899902,9.36657e-06
1648.0,9.38939e-06
1648.099976,9.41218e-06
1648.150024,9.42357e-06
1648.200073,9.43497e-06
1648.300049,9.45771e-06
1648.400024,9.48044e-06
1648.5,9.50316e-06
1648.599976,9.52586e-06
1648.700073,9.54857e-06
1648.800049,9.57124e-06
1648.899902,9.59387e-06
1649.0,9.61654e-06
1649.099976,9.63916e-06
1649.200073,9.6618e-06
1649.22998,9.66856e-06
1649.299927,9.68437e-06
1649.399902,9.70695e-06
1649.5,9.72954e-06
1649.599976,9.75208e-06
1649.700073,9.77465e-06
1649.800049,9.79717e-06
1649.900024,9.81967e-06
1650.0,9.84216e-06
1650.000122,9.84219e-06
1650.099976,9.86464e-06
1650.200073,9.88712e-06
1650.300049,9.90957e-06
1650.399902,9.93196e-06
1650.5,9.9544e-06
1650.599976,9.97679e-06
1650.700073,9.9992e-06
1650.800049,1.00216e-05
1650.899902,1.00439e-05
1651.0,1.00662e-05
1651.099976,1.00886e-05
1651.199951,1.01109e-05
1651.300049,1.01332e-05
1651.380005,1.0151e-05
1651.400024,1.01555e-05
1651.500122,1.01777e-05
1651.599976,1.02e-05
1651.699951,1.02222e-05
1651.799927,1.02444e-05
1651.899902,1.02666e-05
1652.0,1.02888e-05
1652.099976,1.0311e-05
1652.199951,1.03331e-05
1652.300049,1.03553e-05
1652.400024,1.03774e-05
1652.449951,1.03885e-05
1652.5,1.03995e-05
1652.599976,1.04216e-05
1652.699951,1.04437e-05
1652.800049,1.04658e-05
1652.900024,1.04878e-05
1653.0,1.05099e-05
1653.099976,1.05319e-05
1653.199951,1.05539e-05
1653.299927,1.05759e-05
1653.399902,1.05978e-05
1653.5,1.06198e-05
1653.530029,1.06264e-05
1653.599976,1.06418e-05
1653.699951,1.06637e-05
1653.800049,1.06856e-05
1653.900024,1.07075e-05
1654.000122,1.07294e-05
1654.099976,1.07513e-05
1654.199951,1.07731e-05
1654.300049,1.0795e-05
1654.400024,1.08168e-05
1654.5,1.08386e-05
1654.599976,1.08604e-05
1654.699951,1.08822e-05
1654.800049,1.0904e-05
1654.899902,1.09257e-05
1655.0,1.09475e-05
1655.099976,1.09692e-05
1655.199951,1.09909e-05
1655.300049,1.10126e-05
1655.400024,1.10343e-05
1655.500122,1.10559e-05
1655.600098,1.10776e-05
1655.680054,1.10949e-05
1655.699951,1.10992e-05
1655.800049,1.11208e-05
1655.899902,1.11424e-05
1656.0,1.1164e-05
1656.099976,1.11855e-05
1656.199951,1.12071e-05
1656.300049,1.12286e-05
1656.400024,1.12502e-05
1656.5,1.12717e-05
1656.599976,1.12932e-05
1656.699951,1.13146e-05
1656.75,1.13254e-05
1656.800049,1.13361e-05
1656.900024,1.13576e-05
1657.000122,1.1379e-05
1657.099976,1.14004e-05
1657.199951,1.14218e-05
1657.299927,1.14432e-05
1657.399902,1.14646e-05
1657.5,1.1486e-05
1657.599976,1.15073e-05
1657.699951,1.15287e-05
1657.800049,1.155e-05
1657.819946,1.15542e-05
1657.900024,1.15713e-05
1658.0,1.15926e-05
1658.099976,1.16138e-05
1658.199951,1.16351e-05
1658.300049,1.16563e-05
1658.400024,1.16775e-05
1658.5,1.16987e-05
1658.599976,1.17199e-05
1658.699951,1.17411e-05
1658.800049,1.17623e-05
1658.899902,1.17834e-05
1658.900024,1.17834e-05
1659.0,1.18046e-05
1659.099976,1.18257e-05
1659.199951,1.18468e-05
1659.300049,1.18679e-05
1659.400024,1.1889e-05
1659.5,1.19101e-05
1659.600098,1.19312e-05
1659.699951,1.19522e-05
1659.800049,1.19732e-05
1659.900024,1.19942e-05
1659.969971,1.20089e-05
1659.999878,1.20152e-05
1660.0,1.20152e-05
1660.099976,1.20362e-05
1660.199951,1.20571e-05
1660.300049,1.20781e-05
1660.400024,1.2099e-05
1660.5,1.21199e-05
1660.599976,1.21408e-05
1660.699951,1.21617e-05
1660.800049,1.21826e-05
1660.900024,1.22035e-05
1661.0,1.22243e-05
1661.050049,1.22347e-05
1661.100098,1.22451e-05
1661.199951,1.22659e-05
1661.300049,1.22867e-05
1661.399902,1.23075e-05
1661.499878,1.23283e-05
1661.599976,1.2349e-05
1661.699951,1.23698e-05
1661.800049,1.23905e-05
1661.900024,1.24112e-05
1662.0,1.24319e-05
1662.100098,1.24526e-05
1662.119995,1.24567e-05
1662.199951,1.24733e-05
1662.300049,1.24939e-05
1662.400024,1.25146e-05
1662.5,1.25352e-05
1662.600098,1.25558e-05
1662.699951,1.25764e-05
1662.800049,1.2597e-05
1662.900024,1.26175e-05
1662.999878,1.26381e-05
1663.099976,1.26586e-05
1663.199951,1.26791e-05
1663.300049,1.26997e-05
1663.400024,1.27201e-05
1663.5,1.27406e-05
1663.600098,1.27611e-05
1663.700073,1.27816e-05
1663.800049,1.2802e-05
1663.900024,1.28224e-05
1664.0,1.28428e-05
1664.099976,1.28632e-05
1664.199951,1.28836e-05
1664.27002,1.28979e-05
1664.300049,1.2904e-05
1664.400024,1.29243e-05
1664.5,1.29446e-05
1664.599976,1.29649e-05
1664.699951,1.29853e-05
1664.800049,1.30056e-05
1664.900024,1.30258e-05
1665.0,1.30461e-05
1665.100098,1.30664e-05
1665.200073,1.30866e-05
1665.300049,1.31068e-05
1665.349976,1.31169e-05
1665.400024,1.3127e-05
1665.499878,1.31472e-05
1665.599976,1.31674e-05
1665.699951,1.31875e-05
1665.800049,1.32077e-05
1665.900024,1.32278e-05
1666.0,1.3248e-05
1666.100098,1.32681e-05
1666.199951,1.32881e-05
1666.300049,1.33082e-05
1666.400024,1.33283e-05
1666.420044,1.33323e-05
1666.5,1.33484e-05
1666.600098,1.33684e-05
1666.700073,1.33884e-05
1666.799927,1.34084e-05
1666.900024,1.34284e-05
1666.999878,1.34484e-05
1667.099976,1.34683e-05
1667.199951,1.34883e-05
1667.299927,1.35082e-05
1667.400024,1.35282e-05
1667.5,1.35481e-05
1667.600098,1.3568e-05
1667.700073,1.35878e-05
1667.799927,1.36077e-05
1667.900024,1.36275e-05
1668.0,1.36474e-05
1668.100098,1.36672e-05
1668.199951,1.3687e-05
1668.299927,1.37068e-05
1668.400024,1.37265e-05
1668.5,1.37463e-05
1668.569946,1.37601e-05
1668.599976,1.3766e-05
1668.699951,1.37858e-05
1668.799927,1.38055e-05
1668.900024,1.38252e-05
1669.0,1.38449e-05
1669.100098,1.38646e-05
1669.200073,1.38843e-05
1669.300049,1.39039e-05
1669.400024,1.39236e-05
1669.5,1.39432e-05
1669.599976,1.39628e-05
1669.650024,1.39726e-05
1669.699951,1.39824e-05
1669.799927,1.4002e-05
1669.900024,1.40215e-05
1670.0,1.40411e-05
1670.100098,1.40606e-05
1670.199951,1.40801e-05
1670.299927,1.40996e-05
1670.400024,1.41191e-05
1670.5,1.41386e-05
1670.600098,1.41581e-05
1670.700073,1.41776e-05
1670.719971,1.41814e-05
1670.799927,1.4197e-05
1670.900024,1.42164e-05
1670.999878,1.42358e-05
1671.099976,1.42552e-05
1671.199951,1.42746e-05
1671.299927,1.42939e-05
1671.400024,1.43133e-05
1671.5,1.43326e-05
1671.600098,1.4352e-05
1671.700073,1.43713e-05
1671.799927,1.43906e-05
1671.800049,1.43906e-05
1671.900024,1.44099e-05
1672.0,1.44291e-05
1672.100098,1.44484e-05
1672.200073,1.44676e-05
1672.299927,1.44868e-05
1672.400024,1.45061e-05
1672.5,1.45253e-05
1672.599854,1.45444e-05
1672.699951,1.45636e-05
1672.799927,1.45828e-05
1672.869995,1.45962e-05
1672.900024,1.46019e-05
1673.0,1.46211e-05
1673.100098,1.46402e-05
1673.200073,1.46593e-05
1673.300049,1.46784e-05
1673.400024,1.46975e-05
1673.5,1.47165e-05
1673.599976,1.47356e-05
1673.699951,1.47546e-05
1673.799927,1.47736e-05
1673.900024,1.47926e-05
1673.949951,1.48021e-05
1674.0,1.48116e-05
1674.099976,1.48306e-05
1674.199951,1.48496e-05
1674.299927,1.48685e-05
1674.400024,1.48875e-05
1674.5,1.49064e-05
1674.599976,1.49253e-05
1674.700073,1.49442e-05
1674.800049,1.49631e-05
1674.900024,1.4982e-05
1675.0,1.50008e-05
1675.02002,1.50046e-05
1675.099854,1.50197e-05
1675.199951,1.50385e-05
1675.299927,1.50573e-05
1675.400024,1.50761e-05
1675.5,1.50949e-05
1675.599976,1.51137e-05
1675.700073,1.51325e-05
1675.799927,1.51512e-05
1675.900024,1.517e-05
1676.0,1.51887e-05
1676.099976,1.52074e-05
1676.200073,1.52261e-05
1676.300049,1.52448e-05
1676.400024,1.52634e-05
1676.5,1.52821e-05
1676.599854,1.53007e-05
1676.699951,1.53193e-05
1676.799927,1.5338e-05
1676.900024,1.53566e-05
1677.0,1.53752e-05
1677.099976,1.53937e-05
1677.170044,1.54068e-05
1677.200073,1.54123e-05
1677.300049,1.54309e-05
1677.400024,1.54494e-05
1677.5,1.54679e-05
1677.599976,1.54864e-05
1677.700073,1.55049e-05
1677.799927,1.55233e-05
1677.900024,1.55418e-05
1678.0,1.55602e-05
1678.099976,1.55787e-05
1678.199951,1.55971e-05
1678.23999,1.56044e-05
1678.299927,1.56155e-05
1678.399902,1.56339e-05
1678.5,1.56523e-05
1678.599976,1.56706e-05
1678.700073,1.5689e-05
1678.800049,1.57074e-05
1678.900146,1.57257e-05
1679.0,1.5744e-05
1679.099976,1.57623e-05
1679.199951,1.57806e-05
1679.299927,1.57989e-05
1679.319946,1.58025e-05
1679.399902,1.58171e-05
1679.5,1.58354e-05
1679.599976,1.58536e-05
1679.700073,1.58719e-05
1679.799927,1.589e-05
1679.899902,1.59082e-05
1680.0,1.59264e-05
1680.099976,1.59446e-05
1680.200073,1.59627e-05
1680.300049,1.59809e-05
1680.390015,1.59972e-05
1680.400146,1.5999e-05
1680.5,1.60171e-05
1680.599976,1.60352e-05
1680.699951,1.60533e-05
1680.799927,1.60713e-05
1680.899902,1.60894e-05
1681.0,1.61075e-05
1681.099976,1.61255e-05
1681.200073,1.61435e-05
1681.300049,1.61615e-05
1681.399902,1.61795e-05
1681.469971,1.61921e-05
1681.5,1.61975e-05
1681.599976,1.62155e-05
1681.700073,1.62334e-05
1681.800049,1.62514e-05
1681.899902,1.62693e-05
1682.0,1.62872e-05
1682.099976,1.63051e-05
1682.200073,1.6323e-05
1682.299927,1.63408e-05
1682.399902,1.63587e-05
1682.5,1.63766e-05
1682.540039,1.63837e-05
1682.599976,1.63944e-05
1682.700073,1.64122e-05
1682.800049,1.643e-05
1682.900024,1.64478e-05
1683.0,1.64656e-05
1683.099976,1.64834e-05
1683.200073,1.65012e-05
1683.299927,1.65189e-05
1683.399902,1.65366e-05
1683.5,1.65544e-05
1683.599976,1.65721e-05
1683.619995,1.65756e-05
1683.700073,1.65898e-05
1683.800049,1.66074e-05
1683.899902,1.6625e-05
1684.0,1.66427e-05
1684.099976,1.66603e-05
1684.200073,1.6678e-05
1684.300049,1.66956e-05
1684.400024,1.67132e-05
1684.5,1.67307e-05
1684.599976,1.67483e-05
1684.689941,1.67641e-05
1684.700073,1.67659e-05
1684.799927,1.67834e-05
1684.899902,1.68009e-05
1685.0,1.68185e-05
1685.099976,1.6836e-05
1685.200073,1.68535e-05
1685.300049,1.6871e-05
1685.400024,1.68884e-05
1685.5,1.69059e-05
1685.599976,1.69233e-05
1685.699951,1.69408e-05
1685.77002,1.6953e-05
1685.800049,1.69582e-05
1685.900024,1.69756e-05
1686.0,1.6993e-05
1686.099976,1.70104e-05
1686.199951,1.70277e-05
1686.299927,1.70451e-05
1686.399902,1.70624e-05
1686.5,1.70797e-05
1686.599976,1.7097e-05
1686.699951,1.71143e-05
1686.800049,1.71316e-05
1686.839966,1.71385e-05
1686.900024,1.71489e-05
1687.000122,1.71662e-05
1687.099976,1.71834e-05
1687.199951,1.72007e-05
1687.300049,1.72179e-05
1687.399902,1.72351e-05
1687.5,1.72523e-05
1687.599976,1.72695e-05
1687.699951,1.72867e-05
1687.800049,1.73039e-05
1687.899902,1.7321e-05
1687.920044,1.73245e-05
1688.0,1.73382e-05
1688.099976,1.73553e-05
1688.199951,1.73724e-05
1688.300049,1.73895e-05
1688.400024,1.74066e-05
1688.500122,1.74237e-05
1688.599976,1.74407e-05
1688.699951,1.74577e-05
1688.799927,1.74748e-05
1688.899902,1.74918e-05
1688.98999,1.75071e-05
1689.0,1.75088e-05
1689.099976,1.75258e-05
1689.199951,1.75427e-05
1689.300049,1.75597e-05
1689.400024,1.75766e-05
1689.5,1.75936e-05
1689.599976,1.76105e-05
1689.699951,1.76274e-05
1689.800049,1.76443e-05
1689.900024,1.76612e-05
1690.0,1.76781e-05
1690.000122,1.76781e-05
1690.069946,1.76899e-05
1690.099976,1.76949e-05
1690.199951,1.77118e-05
1690.299927,1.77286e-05
1690.399902,1.77454e-05
1690.5,1.77623e-05
1690.599976,1.77791e-05
1690.699951,1.77959e-05
1690.800049,1.78127e-05
1690.900024,1.78294e-05
1691.000122,1.78462e-05
1691.099976,1.78629e-05
1691.140015,1.78696e-05
1691.199951,1.78797e-05
1691.300049,1.78964e-05
1691.400024,1.79131e-05
1691.5,1.79298e-05
1691.599976,1.79465e-05
1691.699951,1.79631e-05
1691.800049,1.79798e-05
1691.899902,1.79964e-05
1692.0,1.80131e-05
1692.099976,1.80297e-05
1692.199951,1.80463e-05
1692.219971,1.80496e-05
1692.300049,1.80629e-05
1692.400024,1.80795e-05
1692.500122,1.8096e-05
1692.600098,1.81126e-05
1692.699951,1.81291e-05
1692.800049,1.81456e-05
1692.899902,1.81621e-05
1693.0,1.81786e-05
1693.099976,1.81951e-05
1693.199951,1.82116e-05
1693.290039,1.82264e-05
1693.300049,1.82281e-05
1693.400024,1.82445e-05
1693.5,1.8261e-05
1693.599976,1.82774e-05
1693.699951,1.82938e-05
1693.800049,1.83103e-05
1693.900024,1.83267e-05
1694.000122,1.83431e-05
1694.100098,1.83595e-05
1694.199951,1.83758e-05
1694.300049,1.83922e-05
1694.369995,1.84036e-05
1694.399902,1.84085e-05
1694.5,1.84248e-05
1694.599976,1.84411e-05
1694.699951,1.84574e-05
1694.800049,1.84737e-05
1694.900024,1.849e-05
1695.000122,1.85062e-05
1695.099976,1.85225e-05
1695.199951,1.85387e-05
1695.300049,1.85549e-05
1695.400024,1.85711e-05
1695.439941,1.85776e-05
1695.5,1.85873e-05
1695.599976,1.86035e-05
1695.699951,1.86197e-05
1695.800049,1.86358e-05
1695.900024,1.8652e-05
1695.999878,1.86681e-05
1696.099976,1.86842e-05
1696.199951,1.87004e-05
1696.300049,1.87165e-05
1696.400024,1.87326e-05
1696.5,1.87486e-05
1696.52002,1.87519e-05
1696.600098,1.87647e-05
1696.699951,1.87807e-05
1696.800049,1.87968e-05
1696.900024,1.88128e-05
1696.999878,1.88288e-05
1697.099976,1.88448e-05
1697.199951,1.88607e-05
1697.300049,1.88767e-05
1697.400024,1.88927e-05
1697.5,1.89086e-05
1697.589966,1.8923e-05
1697.599976,1.89246e-05
1697.699951,1.89405e-05
1697.800049,1.89564e-05
1697.900024,1.89723e-05
1698.0,1.89882e-05
1698.100098,1.90041e-05
1698.200073,1.902e-05
1698.300049,1.90358e-05
1698.400024,1.90517e-05
1698.499878,1.90675e-05
1698.599976,1.90834e-05
1698.660034,1.90929e-05
1698.699951,1.90992e-05
1698.800049,1.9115e-05
1698.900024,1.91308e-05
1699.0,1.91465e-05
1699.100098,1.91623e-05
1699.199951,1.9178e-05
1699.300049,1.91938e-05
1699.400024,1.92095e-05
1699.5,1.92252e-05
1699.600098,1.92409e-05
1699.699951,1.92566e-05
1699.73999,1.92629e-05
1699.800049,1.92723e-05
1699.899902,1.92879e-05
1699.999878,1.93035e-05
1700.0,1.93036e-05
1700.099976,1.93198e-05
1700.199951,1.9336e-05
1700.300049,1.93522e-05
1700.400024,1.93684e-05
1700.5,1.93846e-05
1700.600098,1.94007e-05
1700.700073,1.94169e-05
1700.800049,1.9433e-05
1700.810059,1.94347e-05
1700.900024,1.94492e-05
1701.0,1.94653e-05
1701.099976,1.94814e-05
1701.199951,1.94975e-05
1701.300049,1.95136e-05
1701.400024,1.95297e-05
1701.499878,1.95457e-05
1701.599976,1.95618e-05
1701.699951,1.95779e-05
1701.800049,1.95939e-05
1701.890015,1.96083e-05
1701.900024,1.96099e-05
1702.0,1.9626e-05
1702.100098,1.9642e-05
1702.200073,1.9658e-05
1702.300049,1.96739e-05
1702.400024,1.96899e-05
1702.5,1.97059e-05
1702.599976,1.97218e-05
1702.699951,1.97378e-05
1702.800049,1.97537e-05
1702.900024,1.97696e-05
1702.959961,1.97792e-05
1703.0,1.97856e-05
1703.099976,1.98014e-05
1703.199951,1.98173e-05
1703.300049,1.98332e-05
1703.400024,1.98491e-05
1703.5,1.9865e-05
1703.600098,1.98808e-05
1703.700073,1.98967e-05
1703.800049,1.99125e-05
1703.900024,1.99283e-05
1703.999878,1.99441e-05
1704.040039,1.99505e-05
1704.099976,1.99599e-05
1704.199951,1.99757e-05
1704.300049,1.99915e-05
1704.400024,2.00072e-05
1704.5,2.00229e-05
1704.600098,2.00387e-05
1704.699951,2.00544e-05
1704.800049,2.00701e-05
1704.900024,2.00858e-05
1705.0,2.01015e-05
1705.100098,2.01172e-05
1705.109985,2.01188e-05
1705.199951,2.01329e-05
1705.300049,2.01486e-05
1705.400024,2.01642e-05
1705.5,2.01799e-05
1705.599976,2.01955e-05
1705.699951,2.02111e-05
1705.800049,2.02268e-05
1705.900024,2.02424e-05
1706.0,2.0258e-05
1706.100098,2.02736e-05
1706.189941,2.02876e-05
1706.200073,2.02892e-05
1706.300049,2.03047e-05
1706.400024,2.03203e-05
1706.5,2.03358e-05
1706.599854,2.03513e-05
1706.699951,2.03668e-05
1706.799927,2.03823e-05
1706.900024,2.03979e-05
1707.0,2.04133e-05
1707.100098,2.04288e-05
1707.199951,2.04443e-05
1707.26001,2.04536e-05
1707.299927,2.04597e-05
1707.400024,2.04752e-05
1707.5,2.04906e-05
1707.600098,2.05061e-05
1707.700073,2.05215e-05
1707.800049,2.05369e-05
1707.900024,2.05523e-05
1708.0,2.05677e-05
1708.099854,2.0583e-05
1708.199951,2.05984e-05
1708.299927,2.06138e-05
1708.339966,2.06199e-05
1708.400024,2.06291e-05
1708.5,2.06444e-05
1708.600098,2.06597e-05
1708.700073,2.0675e-05
1708.799927,2.06903e-05
1708.900024,2.07056e-05
1709.0,2.07209e-05
1709.100098,2.07362e-05
1709.200073,2.07514e-05
1709.299927,2.07666e-05
1709.400024,2.07819e-05
1709.410034,2.07834e-05
1709.5,2.07971e-05
1709.599854,2.08123e-05
1709.699951,2.08275e-05
1709.799927,2.08427e-05
1709.900024,2.08579e-05
1710.0,2.08731e-05
1710.100098,2.08883e-05
1710.200073,2.09035e-05
1710.300049,2.09186e-05
1710.400024,2.09338e-05
1710.48999,2.09474e-05
1710.5,2.09489e-05
1710.600098,2.09641e-05
1710.699951,2.09791e-05
1710.799927,2.09942e-05
1710.900024,2.10093e-05
1711.0,2.10244e-05
1711.100098,2.10394e-05
1711.199951,2.10545e-05
1711.299927,2.10695e-05
1711.400024,2.10846e-05
1711.5,2.10996e-05
1711.560059,2.11086e-05
1711.600098,2.11146e-05
1711.700073,2.11296e-05
1711.800049,2.11446e-05
1711.900146,2.11596e-05
1712.0,2.11746e-05
1712.099976,2.11895e-05
1712.199951,2.12045e-05
1712.299927,2.12194e-05
1712.400024,2.12344e-05
1712.5,2.12493e-05
1712.599976,2.12642e-05
1712.640015,2.12702e-05
1712.700073,2.12791e-05
1712.799927,2.1294e-05
1712.900024,2.13089e-05
1713.0,2.13238e-05
1713.099976,2.13386e-05
1713.200073,2.13535e-05
1713.300049,2.13684e-05
1713.400024,2.13832e-05
1713.5,2.1398e-05
1713.599854,2.14128e-05
1713.699951,2.14276e-05
1713.709961,2.14291e-05
1713.799927,2.14424e-05
1713.900024,2.14572e-05
1714.0,2.1472e-05
1714.099976,2.14868e-05
1714.200073,2.15016e-05
1714.300049,2.15163e-05
1714.400024,2.15311e-05
1714.5,2.15458e-05
1714.599976,2.15605e-05
1714.700073,2.15752e-05
1714.790039,2.15885e-05
1714.799927,2.15899e-05
1714.900024,2.16046e-05
1715.0,2.16193e-05
1715.099976,2.16339e-05
1715.199951,2.16486e-05
1715.299927,2.16632e-05
1715.400024,2.16779e-05
1715.5,2.16925e-05
1715.599976,2.17071e-05
1715.700073,2.17217e-05
1715.800049,2.17363e-05
1715.859985,2.1745e-05
1715.900146,2.17509e-05
1716.0,2.17654e-05
1716.099976,2.178e-05
1716.200073,2.17946e-05
1716.299927,2.18091e-05
1716.399902,2.18236e-05
1716.5,2.18382e-05
1716.599976,2.18527e-05
1716.700073,2.18672e-05
1716.799927,2.18817e-05
1716.899902,2.18962e-05
1716.939941,2.1902e-05
1717.0,2.19107e-05
1717.099976,2.19252e-05
1717.200073,2.19396e-05
1717.300049,2.19541e-05
1717.400146,2.19685e-05
1717.5,2.19829e-05
1717.599976,2.19974e-05
1717.699951,2.20118e-05
1717.799927,2.20262e-05
1717.899902,2.20406e-05
1718.0,2.2055e-05
1718.01001,2.20564e-05
1718.099976,2.20693e-05
1718.200073,2.20837e-05
1718.300049,2.20981e-05
1718.399902,2.21124e-05
1718.5,2.21267e-05
1718.599976,2.21411e-05
1718.700073,2.21554e-05
1718.800049,2.21697e-05
1718.899902,2.2184e-05
1719.0,2.21983e-05
1719.079956,2.22097e-05
1719.099976,2.22126e-05
