Wavelength,Transmission
1150.0,2.61756e-10
1150.210815,2.66391e-10
1150.486084,2.73089e-10
1150.762085,2.79854e-10
1151.0,2.85721e-10
1151.037598,2.86639e-10
1151.31311,2.93373e-10
1151.588745,3.00153e-10
1151.865112,3.06996e-10
1152.0,3.10347e-10
1152.140747,3.13803e-10
1152.417847,3.20629e-10
1152.693726,3.27464e-10
1152.969727,3.34341e-10
1153.0,3.35096e-10
1153.246338,3.41175e-10
1153.523071,3.48036e-10
1153.799194,3.54917e-10
1154.0,3.59941e-10
1154.075317,3.61806e-10
1154.352295,3.68673e-10
1154.62854,3.75555e-10
1154.905029,3.82476e-10
1155.0,3.84856e-10
1155.182129,3.89374e-10
1155.459229,3.96266e-10
1155.73584,4.03175e-10
1156.0,4.098e-10
1156.013184,4.10128e-10
1156.289917,4.16999e-10
1156.567261,4.23912e-10
1156.844116,4.3084e-10
1157.0,4.34748e-10
1157.121704,4.37772e-10
1157.399414,4.44679e-10
1157.677002,4.51607e-10
1157.954224,4.58551e-10
1158.0,4.59697e-10
1158.230713,4.65426e-10
1158.508667,4.72344e-10
1158.786621,4.79285e-10
1159.0,4.84625e-10
1159.063965,4.86214e-10
1159.341431,4.93107e-10
1159.619629,5.00038e-10
1159.897827,5.06989e-10
1160.0,5.09708e-10
1160.176147,5.14223e-10
1160.453857,5.21612e-10
1160.7323,5.2904e-10
1161.0,5.36199e-10
1161.010132,5.36469e-10
1161.288696,5.43875e-10
1161.566772,5.51286e-10
1161.845459,5.58731e-10
1162.0,5.62864e-10
1162.122925,5.66143e-10
1162.401733,5.73582e-10
1162.680664,5.81042e-10
1162.959595,5.88519e-10
1163.0,5.89602e-10
1163.238037,5.95968e-10
1163.516479,6.03428e-10
1163.795654,6.10924e-10
1164.0,6.16417e-10
1164.074829,6.1843e-10
1164.353516,6.25923e-10
1164.632202,6.33433e-10
1164.911743,6.40981e-10
1165.0,6.43364e-10
1165.191162,6.48534e-10
1165.470093,6.56085e-10
1165.749146,6.63654e-10
1166.0,6.70471e-10
1166.028809,6.71255e-10
1166.307983,6.78843e-10
1166.587769,6.86462e-10
1166.867065,6.94084e-10
1167.0,6.97714e-10
1167.146973,7.01731e-10
1167.427002,7.0939e-10
1167.706543,7.1705e-10
1167.986694,7.24743e-10
1168.0,7.25108e-10
1168.266968,7.3244e-10
1168.546631,7.40135e-10
1168.826294,7.47845e-10
1169.0,7.52637e-10
1169.106079,7.55566e-10
1169.386597,7.6331e-10
1169.666504,7.71052e-10
1169.946533,7.78812e-10
1170.0,7.80637e-10
1170.227295,7.88043e-10
1170.508057,7.97628e-10
1170.788818,8.07232e-10
1171.0,8.14465e-10
1171.069092,8.16834e-10
1171.350098,8.26466e-10
1171.630493,8.36095e-10
1171.911621,8.45767e-10
1172.0,8.48807e-10
1172.192139,8.55424e-10
1172.473389,8.65119e-10
1172.754761,8.74835e-10
1173.0,8.83316e-10
1173.03479,8.84521e-10
1173.316284,8.94259e-10
1173.597778,9.04014e-10
1173.878784,9.1377e-10
1174.0,9.17979e-10
1174.15979,9.2353e-10
1174.441406,9.33318e-10
1174.723267,9.43132e-10
1175.0,9.52783e-10
1175.004395,9.52937e-10
1175.285767,9.62748e-10
1175.568359,9.72619e-10
1175.849121,9.82442e-10
1176.0,9.87723e-10
1176.131836,9.92343e-10
1176.412842,1.00219e-09
1176.695068,1.0121e-09
1176.976685,1.02201e-09
1177.0,1.02282e-09
1177.259155,1.03193e-09
1177.540894,1.04184e-09
1177.824097,1.05182e-09
1178.0,1.05802e-09
1178.106079,1.06176e-09
1178.388062,1.0717e-09
1178.670776,1.08169e-09
1178.953613,1.0917e-09
1179.0,1.09334e-09
1179.235229,1.10166e-09
1179.517456,1.11166e-09
1179.800537,1.12171e-09
1180.0,1.12884e-09
1180.083618,1.1316e-09
1180.366089,1.1411e-09
1180.649292,1.15063e-09
1180.932495,1.16018e-09
1181.0,1.16245e-09
1181.21521,1.16971e-09
1181.498657,1.17928e-09
1181.781494,1.18884e-09
1182.0,1.19623e-09
1182.065063,1.19843e-09
1182.348022,1.20799e-09
1182.631714,1.21759e-09
1182.915405,1.2272e-09
1183.0,1.23007e-09
1183.198608,1.2368e-09
1183.481812,1.2464e-09
1183.765137,1.25602e-09
1184.0,1.264e-09
1184.049194,1.26567e-09
1184.333252,1.27532e-09
1184.616821,1.28496e-09
1184.900391,1.29462e-09
1185.0,1.29802e-09
1185.184692,1.3043e-09
1185.468994,1.31398e-09
1185.753418,1.32367e-09
1186.0,1.33209e-09
1186.037354,1.33336e-09
1186.321899,1.34306e-09
1186.605835,1.35275e-09
1186.889893,1.36246e-09
1187.0,1.36622e-09
1187.174072,1.37217e-09
1187.458862,1.3819e-09
1187.743164,1.39163e-09
1188.0,1.40043e-09
1188.028076,1.40139e-09
1188.31311,1.41114e-09
1188.598267,1.4209e-09
1188.882812,1.43066e-09
1189.0,1.43467e-09
1189.167358,1.44041e-09
1189.452759,1.45019e-09
1189.738159,1.45999e-09
1190.0,1.46911e-09
1190.022949,1.46979e-09
1190.307739,1.47979e-09
1190.592773,1.4898e-09
1190.878418,1.49985e-09
1191.0,1.50413e-09
1191.164062,1.50989e-09
1191.449219,1.51992e-09
1191.735107,1.52999e-09
1192.0,1.53933e-09
1192.020386,1.54004e-09
1192.306396,1.55011e-09
1192.591797,1.56016e-09
1192.87793,1.57025e-09
1193.0,1.57456e-09
1193.164185,1.58034e-09
1193.449829,1.5904e-09
1193.735474,1.60048e-09
1194.0,1.60981e-09
1194.021973,1.61059e-09
1194.307739,1.62066e-09
1194.593628,1.63074e-09
1194.880249,1.64086e-09
1195.0,1.64509e-09
1195.166992,1.65098e-09
1195.453125,1.66108e-09
1195.739258,1.67119e-09
1196.0,1.6804e-09
1196.026733,1.68135e-09
1196.31311,1.69145e-09
1196.600098,1.70159e-09
1196.886597,1.71172e-09
1197.0,1.71573e-09
1197.173096,1.72184e-09
1197.460327,1.73199e-09
1197.747681,1.74215e-09
1198.0,1.75108e-09
1198.033691,1.75227e-09
1198.321777,1.76243e-09
1198.608643,1.77256e-09
1198.89563,1.78271e-09
1199.0,1.78639e-09
1199.183228,1.79286e-09
1199.470947,1.80302e-09
1199.758057,1.81317e-09
1200.0,1.82144e-09
1200.045288,1.82295e-09
1200.333252,1.8307e-09
1200.621216,1.83846e-09
1200.908691,1.84621e-09
1201.0,1.84868e-09
1201.196777,1.85396e-09
1201.484375,1.86168e-09
1201.771973,1.86941e-09
1202.0,1.87555e-09
1202.060303,1.87717e-09
1202.348022,1.88488e-09
1202.636475,1.89263e-09
1202.924438,1.90037e-09
1203.0,1.9024e-09
1203.213013,1.9081e-09
1203.501709,1.91585e-09
1203.790527,1.9236e-09
1204.0,1.92922e-09
1204.078613,1.93132e-09
1204.366943,1.93903e-09
1204.655884,1.94677e-09
1204.944214,1.95449e-09
1205.0,1.95598e-09
1205.232666,1.9622e-09
1205.52124,1.96991e-09
1205.810425,1.97765e-09
1206.0,1.98272e-09
1206.099731,1.98537e-09
1206.38916,1.99309e-09
1206.677979,2.00079e-09
1206.967407,2.00851e-09
1207.0,2.00938e-09
1207.256348,2.0162e-09
1207.546021,2.02391e-09
1207.835083,2.03161e-09
1208.0,2.03601e-09
1208.124878,2.03932e-09
1208.414062,2.04701e-09
1208.703369,2.0547e-09
1208.993408,2.06241e-09
1209.0,2.06259e-09
1209.283447,2.07009e-09
1209.572998,2.07777e-09
1209.862549,2.08544e-09
1210.0,2.08914e-09
1210.152832,2.09328e-09
1210.443115,2.10124e-09
1210.73291,2.1092e-09
1211.0,2.11653e-09
1211.022705,2.11715e-09
1211.313232,2.1251e-09
1211.603882,2.13306e-09
1211.893921,2.14101e-09
1212.0,2.14392e-09
1212.184082,2.14894e-09
1212.475586,2.1569e-09
1212.765137,2.1648e-09
1213.0,2.17122e-09
1213.056152,2.17266e-09
1213.346558,2.18013e-09
1213.637695,2.18762e-09
1213.928833,2.19511e-09
1214.0,2.19693e-09
1214.219482,2.20361e-09
1214.510742,2.21246e-09
1214.802124,2.22134e-09
1215.0,2.22737e-09
1215.093018,2.2302e-09
1215.383789,2.23906e-09
1215.674805,2.24794e-09
1215.967163,2.25687e-09
1216.0,2.25788e-09
1216.257568,2.26573e-09
1216.548706,2.27461e-09
1216.841309,2.28354e-09
1217.0,2.28839e-09
1217.132568,2.29244e-09
1217.424561,2.30135e-09
1217.716064,2.31026e-09
1218.0,2.31895e-09
1218.008179,2.3192e-09
1218.299805,2.3281e-09
1218.592041,2.33702e-09
1218.883789,2.34594e-09
1219.0,2.3495e-09
1219.17688,2.3549e-09
1219.46875,2.36382e-09
1219.76001,2.37273e-09
1220.0,2.38011e-09
1220.052612,2.3817e-09
1220.345337,2.39071e-09
1220.637573,2.39972e-09
1220.929688,2.40873e-09
1221.0,2.4109e-09
1221.222656,2.41775e-09
1221.515625,2.42679e-09
1221.808105,2.43581e-09
1222.0,2.44174e-09
1222.101196,2.44485e-09
1222.394409,2.45388e-09
1222.687134,2.46291e-09
1222.980469,2.47196e-09
1223.0,2.47257e-09
1223.273193,2.48097e-09
1223.56604,2.48999e-09
1223.858887,2.49902e-09
1224.0,2.50338e-09
1224.152588,2.50808e-09
1224.446289,2.51714e-09
1224.740112,2.52621e-09
1225.0,2.53424e-09
1225.033203,2.53527e-09
1225.326538,2.54429e-09
1225.620483,2.55335e-09
1225.914551,2.56242e-09
1226.0,2.56505e-09
1226.208008,2.57146e-09
1226.501587,2.58052e-09
1226.795898,2.5896e-09
1227.0,2.59591e-09
1227.089478,2.59867e-09
1227.383911,2.60774e-09
1227.677734,2.61679e-09
1227.97229,2.62588e-09
1228.0,2.62674e-09
1228.266235,2.63494e-09
1228.560913,2.64403e-09
1228.855103,2.6531e-09
1229.0,2.65758e-09
1229.149902,2.6622e-09
1229.444092,2.67126e-09
1229.739136,2.68037e-09
1230.0,2.68844e-09
1230.03418,2.68944e-09
1230.329346,2.69828e-09
1230.623169,2.70709e-09
1230.917725,2.71592e-09
1231.0,2.71839e-09
1231.213135,2.72477e-09
1231.508545,2.73362e-09
1231.803345,2.74246e-09
1232.0,2.74835e-09
1232.098145,2.75129e-09
1232.393799,2.76014e-09
1232.689453,2.769e-09
1232.985229,2.77787e-09
1233.0,2.77832e-09
1233.280396,2.78669e-09
1233.576294,2.79554e-09
1233.871582,2.80438e-09
1234.0,2.80822e-09
1234.166992,2.81322e-09
1234.462402,2.82206e-09
1234.758545,2.83093e-09
1235.0,2.83817e-09
1235.05481,2.83981e-09
1235.350464,2.84865e-09
1235.646973,2.85752e-09
1235.943359,2.8664e-09
1236.0,2.8681e-09
1236.239258,2.87524e-09
1236.535156,2.88408e-09
1236.831909,2.89294e-09
1237.0,2.89797e-09
1237.128662,2.90181e-09
1237.424805,2.91064e-09
1237.720947,2.91949e-09
1238.0,2.92783e-09
1238.017944,2.92836e-09
1238.315063,2.93722e-09
1238.61145,2.94606e-09
1238.907959,2.95491e-09
1239.0,2.95766e-09
1239.2052,2.96377e-09
1239.501831,2.97261e-09
1239.799194,2.98148e-09
1240.0,2.98749e-09
1240.096069,2.99021e-09
1240.394287,2.9987e-09
1240.691162,3.00716e-09
1240.988159,3.01564e-09
1241.0,3.01597e-09
1241.285889,3.02409e-09
1241.58374,3.03256e-09
1241.880981,3.04101e-09
1242.0,3.0444e-09
1242.177612,3.04944e-09
1242.475586,3.05789e-09
1242.773682,3.06636e-09
1243.0,3.07279e-09
1243.071167,3.07481e-09
1243.368774,3.08326e-09
1243.667847,3.09176e-09
1243.965454,3.10021e-09
1244.0,3.1012e-09
1244.264038,3.10867e-09
1244.56189,3.1171e-09
1244.860474,3.12556e-09
1245.0,3.12952e-09
1245.158447,3.134e-09
1245.457153,3.14246e-09
1245.755371,3.15091e-09
1246.0,3.15785e-09
1246.054199,3.15938e-09
1246.352539,3.16782e-09
1246.650879,3.17625e-09
1246.949951,3.18472e-09
1247.0,3.18614e-09
1247.249146,3.19317e-09
1247.547729,3.2016e-09
1247.846436,3.21004e-09
1248.0,3.21438e-09
1248.145752,3.2185e-09
1248.445312,3.22696e-09
1248.744141,3.2354e-09
1249.0,3.24263e-09
1249.043701,3.24386e-09
1249.342773,3.25228e-09
1249.641846,3.2607e-09
1249.94165,3.26914e-09
1250.0,3.27079e-09
1250.240845,3.27722e-09
1250.540771,3.28524e-09
1250.84021,3.29324e-09
1251.0,3.29752e-09
1251.140259,3.30126e-09
1251.44043,3.30928e-09
1251.740723,3.31731e-09
1252.0,3.32424e-09
1252.040405,3.32532e-09
1252.340088,3.33329e-09
1252.640625,3.34129e-09
1252.94043,3.34927e-09
1253.0,3.35086e-09
1253.240356,3.35725e-09
1253.540405,3.36524e-09
1253.841187,3.37324e-09
1254.0,3.37747e-09
1254.141968,3.38125e-09
1254.442871,3.38925e-09
1254.743164,3.39724e-09
1255.0,3.40408e-09
1255.044312,3.40525e-09
1255.344727,3.41322e-09
1255.645874,3.42121e-09
1255.946411,3.42919e-09
1256.0,3.43062e-09
1256.247803,3.43719e-09
1256.548584,3.44517e-09
1256.849365,3.45315e-09
1257.0,3.45715e-09
1257.151611,3.46116e-09
1257.452515,3.46912e-09
1257.75354,3.47709e-09
1258.0,3.48361e-09
1258.054565,3.48505e-09
1258.356445,3.49302e-09
1258.658447,3.50099e-09
1258.959717,3.50895e-09
1259.0,3.51001e-09
1259.261108,3.51656e-09
1259.563232,3.52414e-09
1259.865356,3.53172e-09
1260.0,3.53509e-09
1260.167725,3.53901e-09
1260.468628,3.54602e-09
1260.771729,3.55309e-09
1261.0,3.55842e-09
1261.072876,3.56011e-09
1261.375488,3.56714e-09
1261.677368,3.57415e-09
1261.980103,3.58118e-09
1262.0,3.58165e-09
1262.282959,3.58821e-09
1262.585083,3.59521e-09
1262.888062,3.60224e-09
1263.0,3.60483e-09
1263.19104,3.60925e-09
1263.493408,3.61625e-09
1263.795898,3.62325e-09
1264.0,3.62797e-09
1264.099121,3.63026e-09
1264.402466,3.63727e-09
1264.705078,3.64426e-09
1265.0,3.65107e-09
1265.007202,3.65124e-09
1265.311401,3.65823e-09
1265.614258,3.6652e-09
1265.917969,3.67218e-09
1266.0,3.67407e-09
1266.220947,3.67914e-09
1266.52478,3.68611e-09
1266.828003,3.69307e-09
1267.0,3.69702e-09
1267.131958,3.70004e-09
1267.435181,3.70698e-09
1267.73999,3.71397e-09
1268.0,3.71992e-09
1268.043457,3.72091e-09
1268.347046,3.72785e-09
1268.650635,3.73479e-09
1268.955078,3.74175e-09
1269.0,3.74277e-09
1269.258789,3.74867e-09
1269.562622,3.7556e-09
1269.86731,3.76255e-09
1270.0,3.76556e-09
1270.171997,3.76926e-09
1270.476074,3.77578e-09
1270.780884,3.78232e-09
1271.0,3.78702e-09
1271.085815,3.78886e-09
1271.390015,3.79538e-09
1271.695068,3.80192e-09
1271.999512,3.80845e-09
1272.0,3.80846e-09
1272.303955,3.81495e-09
1272.608521,3.82144e-09
1272.91394,3.82796e-09
1273.0,3.8298e-09
1273.21936,3.83448e-09
1273.52478,3.84099e-09
1273.829712,3.8475e-09
1274.0,3.85113e-09
1274.134644,3.85399e-09
1274.440308,3.86048e-09
1274.746094,3.86697e-09
1275.0,3.87236e-09
1275.05127,3.87344e-09
1275.356445,3.87992e-09
1275.662476,3.88642e-09
1275.967896,3.8929e-09
1276.0,3.89358e-09
1276.274658,3.8994e-09
1276.579468,3.90585e-09
1276.885742,3.91233e-09
1277.0,3.91475e-09
1277.191406,3.91879e-09
1277.497925,3.92526e-09
1277.803711,3.93172e-09
1278.0,3.93586e-09
1278.110352,3.93818e-09
1278.41626,3.94462e-09
1278.723022,3.95108e-09
1279.0,3.95691e-09
1279.029785,3.95754e-09
1279.33667,3.96398e-09
1279.642212,3.97039e-09
1279.949219,3.97684e-09
1280.0,3.97789e-09
1280.256348,3.98303e-09
1280.562866,3.98916e-09
1280.869385,3.99528e-09
1281.0,3.9979e-09
1281.176025,4.0014e-09
1281.483398,4.00753e-09
1281.790894,4.01366e-09
1282.0,4.01783e-09
1282.098389,4.01978e-09
1282.405273,4.02588e-09
1282.713013,4.03199e-09
1283.0,4.0377e-09
1283.02002,4.03809e-09
1283.327881,4.04421e-09
1283.635132,4.05031e-09
1283.943115,4.05643e-09
1284.0,4.05756e-09
1284.250488,4.06251e-09
1284.557861,4.06858e-09
1284.866089,4.07466e-09
1285.0,4.0773e-09
1285.174438,4.08076e-09
1285.482056,4.08685e-09
1285.789795,4.09294e-09
1286.0,4.0971e-09
1286.098267,4.09904e-09
1286.40686,4.10511e-09
1286.714722,4.11117e-09
1287.0,4.11678e-09
1287.022827,4.11723e-09
1287.332275,4.12332e-09
1287.640503,4.12938e-09
1287.94873,4.13544e-09
1288.0,4.13645e-09
1288.25708,4.14151e-09
1288.566162,4.14758e-09
1288.874634,4.15365e-09
1289.0,4.15611e-09
1289.183838,4.15972e-09
1289.492432,4.16577e-09
1289.80249,4.17184e-09
1290.0,4.17569e-09
1290.111328,4.17781e-09
1290.420166,4.18361e-09
1290.729736,4.18942e-09
1291.0,4.1945e-09
1291.039429,4.19524e-09
1291.348511,4.20104e-09
1291.657593,4.20685e-09
1291.966797,4.21266e-09
1292.0,4.21328e-09
1292.276733,4.21846e-09
1292.586182,4.22425e-09
1292.89624,4.23005e-09
1293.0,4.23199e-09
1293.206421,4.23585e-09
1293.515991,4.24164e-09
1293.826416,4.24745e-09
1294.0,4.2507e-09
1294.136108,4.25323e-09
1294.446655,4.25902e-09
1294.75647,4.2648e-09
1295.0,4.26933e-09
1295.067139,4.27058e-09
1295.377197,4.27636e-09
1295.687988,4.28215e-09
1295.998901,4.28794e-09
1296.0,4.28796e-09
1296.30835,4.29369e-09
1296.619385,4.29946e-09
1296.930542,4.30523e-09
1297.0,4.30652e-09
1297.240967,4.31099e-09
1297.551514,4.31676e-09
1297.862793,4.32253e-09
1298.0,4.32508e-09
1298.174194,4.3283e-09
1298.485718,4.33405e-09
1298.796509,4.3398e-09
1299.0,4.34356e-09
1299.108154,4.34555e-09
1299.418457,4.35129e-09
1299.730957,4.35706e-09
1300.0,4.36202e-09
1300.041382,4.36277e-09
1300.353271,4.36837e-09
1300.664551,4.37395e-09
1300.976685,4.37955e-09
1301.0,4.37997e-09
1301.288818,4.38513e-09
1301.600952,4.39071e-09
1301.912598,4.39628e-09
1302.0,4.39784e-09
1302.224243,4.40185e-09
1302.536621,4.40743e-09
1302.849243,4.41301e-09
1303.0,4.4157e-09
1303.1604,4.41855e-09
1303.47229,4.4241e-09
1303.785034,4.42967e-09
1304.0,4.43349e-09
1304.0979,4.43523e-09
1304.410767,4.44079e-09
1304.723022,4.44634e-09
1305.0,4.45127e-09
1305.036133,4.45189e-09
1305.348511,4.4573e-09
1305.661743,4.46272e-09
1305.974243,4.46813e-09
1306.0,4.46858e-09
1306.287598,4.47351e-09
1306.600952,4.47889e-09
1306.913818,4.48426e-09
1307.0,4.48574e-09
1307.227295,4.48964e-09
1307.540283,4.49501e-09
1307.853271,4.50037e-09
1308.0,4.50289e-09
1308.166382,4.50574e-09
1308.480225,4.51112e-09
1308.794189,4.5165e-09
1309.0,4.52002e-09
1309.107544,4.52186e-09
1309.420898,4.5272e-09
1309.734985,4.53256e-09
1310.0,4.53706e-09
1310.049316,4.53791e-09
1310.363647,4.54319e-09
1310.677246,4.54847e-09
1310.991821,4.55375e-09
1311.0,4.55389e-09
1311.305542,4.55901e-09
1311.619507,4.56426e-09
1311.933472,4.56951e-09
1312.0,4.57063e-09
1312.248291,4.57478e-09
1312.56311,4.58004e-09
1312.877319,4.5853e-09
1313.0,4.58735e-09
1313.192261,4.59055e-09
1313.507446,4.59579e-09
1313.821777,4.60102e-09
1314.0,4.60399e-09
1314.136353,4.60626e-09
1314.45166,4.61153e-09
1314.766968,4.61679e-09
1315.0,4.62068e-09
1315.081787,4.62204e-09
1315.396606,4.62727e-09
1315.712891,4.63252e-09
1316.0,4.63729e-09
1316.0271,4.63773e-09
1316.342896,4.64295e-09
1316.657959,4.64816e-09
1316.973877,4.65338e-09
1317.0,4.65381e-09
1317.289185,4.65863e-09
1317.605225,4.66389e-09
1317.920654,4.66914e-09
1318.0,4.67046e-09
1318.237549,4.67438e-09
1318.553101,4.67959e-09
1318.868774,4.68479e-09
1319.0,4.68696e-09
1319.184448,4.69001e-09
1319.501709,4.69526e-09
1319.816895,4.70048e-09
1320.0,4.70348e-09
1320.132812,4.70566e-09
1320.449585,4.71079e-09
1320.766357,4.71593e-09
1321.0,4.71971e-09
1321.08252,4.72105e-09
1321.399536,4.72618e-09
1321.716553,4.73132e-09
1322.0,4.73591e-09
1322.032959,4.73644e-09
1322.35022,4.7416e-09
1322.666748,4.74674e-09
1322.983398,4.75189e-09
1323.0,4.75215e-09
1323.300781,4.75702e-09
1323.618286,4.76215e-09
1323.935181,4.76727e-09
1324.0,4.76832e-09
1324.252808,4.7724e-09
1324.569824,4.77752e-09
1324.886841,4.78264e-09
1325.0,4.78447e-09
1325.204712,4.78777e-09
1325.522705,4.7929e-09
1325.839966,4.79802e-09
1326.0,4.8006e-09
1326.157349,4.80314e-09
1326.475586,4.80827e-09
1326.793823,4.81339e-09
1327.0,4.81672e-09
1327.112183,4.81853e-09
1327.429932,4.82367e-09
1327.747681,4.82881e-09
1328.0,4.83289e-09
1328.06543,4.83394e-09
1328.384155,4.83907e-09
1328.702148,4.84419e-09
1329.0,4.84898e-09
1329.020874,4.84931e-09
1329.339111,4.85441e-09
1329.658081,4.85951e-09
1329.977051,4.86461e-09
1330.0,4.86497e-09
1330.296143,4.86966e-09
1330.614624,4.8747e-09
1330.933105,4.87974e-09
1331.0,4.88079e-09
1331.252441,4.88477e-09
1331.571167,4.88978e-09
1331.889893,4.89479e-09
1332.0,4.89652e-09
1332.20874,4.89982e-09
1332.52832,4.90487e-09
1332.848145,4.90992e-09
1333.0,4.91231e-09
1333.167847,4.91495e-09
1333.487061,4.91996e-09
1333.807007,4.92498e-09
1334.0,4.92801e-09
1334.126221,4.92999e-09
1334.446411,4.93501e-09
1334.765869,4.94003e-09
1335.0,4.9437e-09
1335.08606,4.94505e-09
1335.40564,4.95008e-09
1335.725342,4.95512e-09
1336.0,4.95944e-09
1336.045776,4.96016e-09
1336.366333,4.9652e-09
1336.686279,4.97024e-09
1337.0,4.97517e-09
1337.006226,4.97527e-09
1337.327026,4.98029e-09
1337.647949,4.98531e-09
1337.96814,4.99031e-09
1338.0,4.99081e-09
1338.288452,4.99534e-09
1338.610229,5.00039e-09
1338.930664,5.00542e-09
1339.0,5.00651e-09
1339.251221,5.01047e-09
1339.571777,5.01552e-09
1339.893921,5.0206e-09
1340.0,5.02225e-09
1340.213989,5.02555e-09
1340.535522,5.03048e-09
1340.856445,5.03539e-09
1341.0,5.03759e-09
1341.178833,5.04034e-09
1341.499878,5.04528e-09
1341.821045,5.05021e-09
1342.0,5.05297e-09
1342.143066,5.05516e-09
1342.465088,5.06011e-09
1342.786377,5.06505e-09
1343.0,5.06833e-09
1343.107788,5.06998e-09
1343.429321,5.07492e-09
1343.752441,5.07988e-09
1344.0,5.08368e-09
1344.073364,5.0848e-09
1344.395874,5.08975e-09
1344.718384,5.0947e-09
1345.0,5.09902e-09
1345.040283,5.09964e-09
1345.363037,5.10461e-09
1345.685059,5.10957e-09
1346.0,5.11442e-09
1346.007935,5.11454e-09
1346.3302,5.1195e-09
1346.653198,5.12447e-09
1346.976318,5.12944e-09
1347.0,5.1298e-09
1347.299561,5.13441e-09
1347.62207,5.13937e-09
1347.94458,5.14433e-09
1348.0,5.14518e-09
1348.267334,5.14931e-09
1348.59082,5.1543e-09
1348.913574,5.15928e-09
1349.0,5.16062e-09
1349.236572,5.16427e-09
1349.560303,5.16926e-09
1349.884033,5.17425e-09
1350.0,5.17601e-09
1350.207153,5.17916e-09
1350.531128,5.18404e-09
1350.855225,5.18891e-09
1351.0,5.19109e-09
1351.177856,5.19374e-09
1351.502808,5.19858e-09
1351.826294,5.20339e-09
1352.0,5.20598e-09
1352.149902,5.20818e-09
1352.473633,5.21295e-09
1352.798096,5.21772e-09
