Wavelength,Transmission
1640.0,6.35794e-05
1640.099976,6.36375e-05
1640.200073,6.38449e-05
1640.300049,6.40519e-05
1640.400146,6.42591e-05
1640.48,6.44243e-05
1640.5,6.44657e-05
1640.599976,6.46724e-05
1640.700073,6.48793e-05
1640.799927,6.50856e-05
1640.900024,6.52922e-05
1641.0,6.54986e-05
1641.099976,6.57048e-05
1641.200073,6.59111e-05
1641.299927,6.61169e-05
1641.400024,6.63231e-05
1641.5,6.65289e-05
1641.599976,6.67346e-05
1641.700073,6.69405e-05
1641.75,6.70431e-05
1641.800049,6.71457e-05
1641.900146,6.73509e-05
1642.0,6.75554e-05
1642.099976,6.77601e-05
1642.199951,6.79647e-05
1642.299927,6.81692e-05
1642.400024,6.83738e-05
1642.5,6.85781e-05
1642.599976,6.87823e-05
1642.700073,6.89866e-05
1642.800049,6.91906e-05
1642.900024,6.93944e-05
1643.0,6.95982e-05
1643.03,6.96593e-05
1643.099976,6.98019e-05
1643.200073,7.00057e-05
1643.300049,7.02093e-05
1643.400024,7.04127e-05
1643.5,7.0616e-05
1643.599976,7.08192e-05
1643.699951,7.10223e-05
1643.799927,7.12252e-05
1643.899902,7.14281e-05
1644.0,7.16312e-05
1644.099976,7.18339e-05
1644.200073,7.20367e-05
1644.3,7.22391e-05
1644.300049,7.22392e-05
1644.400024,7.24411e-05
1644.5,7.26429e-05
1644.599976,7.28445e-05
1644.700073,7.30464e-05
1644.800049,7.32478e-05
1644.899902,7.3449e-05
1645.0,7.36505e-05
1645.099976,7.38516e-05
1645.200073,7.40529e-05
1645.299927,7.42536e-05
1645.399902,7.44545e-05
1645.5,7.46554e-05
1645.57,7.47959e-05
1645.599976,7.48562e-05
1645.700073,7.50575e-05
1645.800049,7.52585e-05
1645.900024,7.54593e-05
1646.000122,7.56603e-05
1646.099976,7.58607e-05
1646.200073,7.60615e-05
1646.299927,7.62617e-05
1646.399902,7.6462e-05
1646.5,7.66625e-05
1646.599976,7.68626e-05
1646.700073,7.70629e-05
1646.800049,7.72629e-05
1646.84,7.73427e-05
1646.899902,7.74621e-05
1647.0,7.76615e-05
1647.099976,7.78605e-05
1647.200073,7.80597e-05
1647.300049,7.82586e-05
1647.400024,7.84573e-05
1647.5,7.8656e-05
1647.599976,7.88545e-05
1647.699951,7.90529e-05
1647.799927,7.92512e-05
1647.899902,7.94495e-05
1648.0,7.96478e-05
1648.099976,7.98459e-05
1648.12,7.98855e-05
1648.200073,8.00441e-05
1648.300049,8.02419e-05
1648.400024,8.04397e-05
1648.5,8.06374e-05
1648.599976,8.08349e-05
1648.700073,8.10326e-05
1648.800049,8.123e-05
1648.899902,8.1427e-05
1649.0,8.16244e-05
1649.099976,8.18215e-05
1649.200073,8.20187e-05
1649.299927,8.22153e-05
1649.39,8.23925e-05
1649.399902,8.2412e-05
1649.5,8.26083e-05
1649.599976,8.28043e-05
1649.700073,8.30004e-05
1649.800049,8.31962e-05
1649.900024,8.33919e-05
1650.0,8.35874e-05
1650.000122,8.35877e-05
1650.099976,8.37829e-05
1650.200073,8.39785e-05
1650.300049,8.41738e-05
1650.399902,8.43687e-05
1650.5,8.4564e-05
1650.599976,8.47589e-05
1650.66,8.48759e-05
1650.700073,8.4954e-05
1650.800049,8.51487e-05
1650.899902,8.53431e-05
1651.0,8.55379e-05
1651.099976,8.57323e-05
1651.199951,8.59267e-05
1651.300049,8.61211e-05
1651.400024,8.63153e-05
1651.500122,8.65095e-05
1651.599976,8.67032e-05
1651.699951,8.6897e-05
1651.799927,8.70907e-05
1651.899902,8.72844e-05
1651.93,8.73426e-05
1652.0,8.74781e-05
1652.099976,8.76715e-05
1652.199951,8.78648e-05
1652.300049,8.80582e-05
1652.400024,8.82513e-05
1652.5,8.84443e-05
1652.599976,8.86372e-05
1652.699951,8.883e-05
1652.800049,8.9023e-05
1652.900024,8.92156e-05
1653.0,8.9408e-05
1653.099976,8.96004e-05
1653.199951,8.97927e-05
1653.2,8.97928e-05
1653.299927,8.99842e-05
1653.399902,9.01757e-05
1653.5,9.03672e-05
1653.599976,9.05584e-05
1653.699951,9.07495e-05
1653.800049,9.09408e-05
1653.900024,9.11317e-05
1654.000122,9.13227e-05
1654.099976,9.15132e-05
1654.199951,9.17037e-05
1654.300049,9.18945e-05
1654.400024,9.20849e-05
1654.48,9.22371e-05
1654.5,9.22751e-05
1654.599976,9.24654e-05
1654.699951,9.26555e-05
1654.800049,9.28457e-05
1654.899902,9.30354e-05
1655.0,9.32255e-05
1655.099976,9.34152e-05
1655.199951,9.36048e-05
1655.300049,9.37945e-05
1655.400024,9.3984e-05
1655.500122,9.41735e-05
1655.600098,9.43627e-05
1655.699951,9.45516e-05
1655.75,9.46462e-05
1655.800049,9.47408e-05
1655.899902,9.49295e-05
1656.0,9.51185e-05
1656.099976,9.53072e-05
1656.199951,9.54957e-05
1656.300049,9.56845e-05
1656.400024,9.58729e-05
1656.5,9.60611e-05
1656.599976,9.62493e-05
1656.699951,9.64374e-05
1656.800049,9.66256e-05
1656.900024,9.68135e-05
1657.000122,9.70015e-05
1657.02,9.70388e-05
1657.099976,9.71884e-05
1657.199951,9.73753e-05
1657.299927,9.75621e-05
1657.399902,9.77488e-05
1657.5,9.79357e-05
1657.599976,9.81222e-05
1657.699951,9.83086e-05
1657.800049,9.84951e-05
1657.900024,9.86813e-05
1658.0,9.88674e-05
1658.099976,9.90534e-05
1658.199951,9.92392e-05
1658.29,9.94066e-05
1658.300049,9.94253e-05
1658.400024,9.96109e-05
1658.5,9.97965e-05
1658.599976,9.9982e-05
1658.699951,0.000100167
1658.800049,0.000100353
1658.899902,0.000100538
1659.0,0.000100723
1659.099976,0.000100908
1659.199951,0.000101093
1659.300049,0.000101278
1659.400024,0.000101462
1659.5,0.000101647
1659.56,0.000101758
1659.600098,0.000101832
1659.699951,0.000102016
1659.800049,0.0001022
1659.900024,0.000102384
1659.999878,0.000102568
1660.0,0.000102568
1660.099976,0.000102752
1660.199951,0.000102936
1660.300049,0.00010312
1660.400024,0.000103303
1660.5,0.000103487
1660.599976,0.00010367
1660.699951,0.000103854
1660.800049,0.000104037
1660.84,0.00010411
1660.900024,0.00010422
1661.0,0.000104402
1661.100098,0.000104584
1661.199951,0.000104766
1661.300049,0.000104949
1661.399902,0.00010513
1661.499878,0.000105312
1661.599976,0.000105494
1661.699951,0.000105676
1661.800049,0.000105857
1661.900024,0.000106039
1662.0,0.00010622
1662.100098,0.000106401
1662.11,0.000106419
1662.199951,0.000106582
1662.300049,0.000106763
1662.400024,0.000106944
1662.5,0.000107125
1662.600098,0.000107306
1662.699951,0.000107486
1662.800049,0.000107667
1662.900024,0.000107847
1662.999878,0.000108028
1663.099976,0.000108208
1663.199951,0.000108388
1663.300049,0.000108568
1663.38,0.000108712
1663.400024,0.000108748
1663.5,0.000108927
1663.600098,0.000109106
1663.700073,0.000109285
1663.800049,0.000109464
1663.900024,0.000109642
1664.0,0.000109821
1664.099976,0.000109999
1664.199951,0.000110177
1664.300049,0.000110356
1664.400024,0.000110534
1664.5,0.000110712
1664.599976,0.00011089
1664.65,0.000110979
1664.699951,0.000111068
1664.800049,0.000111246
1664.900024,0.000111423
1665.0,0.000111601
1665.100098,0.000111778
1665.200073,0.000111955
1665.300049,0.000112132
1665.400024,0.000112309
1665.499878,0.000112486
1665.599976,0.000112663
1665.699951,0.00011284
1665.800049,0.000113017
1665.900024,0.000113193
1665.93,0.000113246
1666.0,0.000113369
1666.100098,0.000113545
1666.199951,0.00011372
1666.300049,0.000113896
1666.400024,0.000114071
1666.5,0.000114246
1666.600098,0.000114422
1666.700073,0.000114597
1666.799927,0.000114771
1666.900024,0.000114946
1666.999878,0.000115121
1667.099976,0.000115296
1667.199951,0.00011547
1667.2,0.00011547
1667.299927,0.000115644
1667.400024,0.000115819
1667.5,0.000115993
1667.600098,0.000116167
1667.700073,0.000116341
1667.799927,0.000116515
1667.900024,0.000116689
1668.0,0.000116862
1668.100098,0.000117036
1668.199951,0.000117209
1668.299927,0.000117383
1668.400024,0.000117556
1668.47,0.000117677
1668.5,0.000117729
1668.599976,0.000117902
1668.699951,0.000118075
1668.799927,0.000118248
1668.900024,0.000118421
1669.0,0.000118594
1669.100098,0.000118766
1669.200073,0.000118939
1669.300049,0.000119111
1669.400024,0.000119283
1669.5,0.000119456
1669.599976,0.000119628
1669.699951,0.000119799
1669.74,0.000119868
1669.799927,0.000119971
1669.900024,0.000120142
1670.0,0.000120313
1670.100098,0.000120484
1670.199951,0.000120654
1670.299927,0.000120825
1670.400024,0.000120995
1670.5,0.000121165
1670.600098,0.000121336
1670.700073,0.000121506
1670.799927,0.000121676
1670.900024,0.000121846
1670.999878,0.000122015
1671.01,0.000122033
1671.099976,0.000122185
1671.199951,0.000122355
1671.299927,0.000122524
1671.400024,0.000122694
1671.5,0.000122863
1671.600098,0.000123032
1671.700073,0.000123201
1671.799927,0.00012337
1671.900024,0.000123539
1672.0,0.000123708
1672.100098,0.000123877
1672.200073,0.000124045
1672.29,0.000124197
1672.299927,0.000124213
1672.400024,0.000124381
1672.5,0.000124548
1672.599854,0.000124716
1672.699951,0.000124883
1672.799927,0.00012505
1672.900024,0.000125217
1673.0,0.000125384
1673.100098,0.000125551
1673.200073,0.000125718
1673.300049,0.000125885
1673.400024,0.000126051
1673.5,0.000126217
1673.56,0.000126317
1673.599976,0.000126384
1673.699951,0.00012655
1673.799927,0.000126716
1673.900024,0.000126882
1674.0,0.000127048
1674.099976,0.000127214
1674.199951,0.00012738
1674.299927,0.000127545
1674.400024,0.000127711
1674.5,0.000127876
1674.599976,0.000128042
1674.700073,0.000128207
1674.800049,0.000128372
1674.83,0.000128421
1674.900024,0.000128536
1675.0,0.0001287
1675.099854,0.000128864
1675.199951,0.000129028
1675.299927,0.000129192
1675.400024,0.000129356
1675.5,0.000129519
1675.599976,0.000129683
1675.700073,0.000129846
1675.799927,0.000130009
1675.900024,0.000130172
1676.0,0.000130335
1676.099976,0.000130498
1676.1,0.000130498
1676.200073,0.000130661
1676.300049,0.000130824
1676.400024,0.000130986
1676.5,0.000131149
1676.599854,0.000131311
1676.699951,0.000131473
1676.799927,0.000131636
1676.900024,0.000131798
1677.0,0.00013196
1677.099976,0.000132122
1677.200073,0.000132284
1677.300049,0.000132445
1677.38,0.000132574
1677.400024,0.000132607
1677.5,0.000132767
1677.599976,0.000132928
1677.700073,0.000133088
1677.799927,0.000133248
1677.900024,0.000133409
1678.0,0.000133569
1678.099976,0.000133729
1678.199951,0.000133889
1678.299927,0.000134048
1678.399902,0.000134208
1678.5,0.000134368
1678.599976,0.000134527
1678.65,0.000134607
1678.700073,0.000134687
1678.800049,0.000134846
1678.900146,0.000135005
1679.0,0.000135164
1679.099976,0.000135323
1679.199951,0.000135482
1679.299927,0.000135641
1679.399902,0.0001358
1679.5,0.000135958
1679.599976,0.000136117
1679.700073,0.000136275
1679.799927,0.000136433
1679.899902,0.000136591
1679.92,0.000136623
1680.0,0.000136749
1680.099976,0.000136906
1680.200073,0.000137063
1680.300049,0.00013722
1680.400146,0.000137377
1680.5,0.000137533
1680.599976,0.00013769
1680.699951,0.000137846
1680.799927,0.000138003
1680.899902,0.000138159
1681.0,0.000138315
1681.099976,0.000138471
1681.19,0.000138611
1681.200073,0.000138627
1681.300049,0.000138783
1681.399902,0.000138938
1681.5,0.000139094
1681.599976,0.00013925
1681.700073,0.000139405
1681.800049,0.000139561
1681.899902,0.000139716
1682.0,0.000139871
1682.099976,0.000140026
1682.200073,0.000140181
1682.299927,0.000140336
1682.399902,0.00014049
1682.46,0.000140583
1682.5,0.000140645
1682.599976,0.0001408
1682.700073,0.000140954
1682.800049,0.000141108
1682.900024,0.000141263
1683.0,0.000141417
1683.099976,0.000141571
1683.200073,0.000141725
1683.299927,0.000141878
1683.399902,0.000142032
1683.5,0.000142186
1683.599976,0.000142339
1683.700073,0.000142493
1683.74,0.000142554
1683.800049,0.000142645
1683.899902,0.000142796
1684.0,0.000142948
1684.099976,0.000143099
1684.200073,0.00014325
1684.300049,0.000143401
1684.400024,0.000143552
1684.5,0.000143702
1684.599976,0.000143853
1684.700073,0.000144003
1684.799927,0.000144154
1684.899902,0.000144304
1685.0,0.000144454
1685.01,0.000144469
1685.099976,0.000144604
1685.200073,0.000144754
1685.300049,0.000144904
1685.400024,0.000145054
1685.5,0.000145204
1685.599976,0.000145353
1685.699951,0.000145503
1685.800049,0.000145652
1685.900024,0.000145802
1686.0,0.000145951
1686.099976,0.0001461
1686.199951,0.000146249
1686.28,0.000146368
1686.299927,0.000146398
1686.399902,0.000146546
1686.5,0.000146695
1686.599976,0.000146844
1686.699951,0.000146992
1686.800049,0.000147141
1686.900024,0.000147289
1687.000122,0.000147437
1687.099976,0.000147585
1687.199951,0.000147733
1687.300049,0.000147881
1687.399902,0.000148029
1687.5,0.000148177
1687.55,0.00014825
1687.599976,0.000148324
1687.699951,0.00014847
1687.800049,0.000148617
1687.899902,0.000148763
1688.0,0.000148909
1688.099976,0.000149055
1688.199951,0.000149201
1688.300049,0.000149347
1688.400024,0.000149493
1688.500122,0.000149639
1688.599976,0.000149784
1688.699951,0.00014993
1688.799927,0.000150075
1688.82,0.000150104
1688.899902,0.00015022
1689.0,0.000150366
1689.099976,0.000150511
1689.199951,0.000150656
1689.300049,0.000150801
1689.400024,0.000150946
1689.5,0.00015109
1689.599976,0.000151235
1689.699951,0.000151379
1689.800049,0.000151524
1689.900024,0.000151668
1690.0,0.000151812
1690.000122,0.000151812
1690.099976,0.000151956
1690.1,0.000151956
1690.199951,0.000152099
1690.299927,0.000152242
1690.399902,0.000152385
1690.5,0.000152528
1690.599976,0.00015267
1690.699951,0.000152813
1690.800049,0.000152955
1690.900024,0.000153098
1691.000122,0.00015324
1691.099976,0.000153382
1691.199951,0.000153524
1691.300049,0.000153666
1691.37,0.000153765
1691.400024,0.000153807
1691.5,0.000153948
1691.599976,0.000154088
1691.699951,0.000154229
1691.800049,0.000154369
1691.899902,0.000154509
1692.0,0.00015465
1692.099976,0.00015479
1692.199951,0.00015493
1692.300049,0.00015507
1692.400024,0.000155209
1692.500122,0.000155349
1692.600098,0.000155489
1692.64,0.000155544
1692.699951,0.000155628
1692.800049,0.000155767
1692.899902,0.000155906
1693.0,0.000156046
1693.099976,0.000156185
1693.199951,0.000156324
1693.300049,0.000156463
1693.400024,0.000156601
1693.5,0.00015674
1693.599976,0.000156879
1693.699951,0.000157017
1693.800049,0.000157155
1693.900024,0.000157294
1693.91,0.000157307
1694.000122,0.000157431
1694.100098,0.000157568
1694.199951,0.000157705
1694.300049,0.000157842
1694.399902,0.000157978
1694.5,0.000158115
1694.599976,0.000158252
1694.699951,0.000158388
1694.800049,0.000158525
1694.900024,0.000158661
1695.000122,0.000158797
1695.099976,0.000158933
1695.19,0.000159055
1695.199951,0.000159069
1695.300049,0.000159205
1695.400024,0.00015934
1695.5,0.000159476
1695.599976,0.000159612
1695.699951,0.000159747
1695.800049,0.000159882
1695.900024,0.000160018
1695.999878,0.000160153
1696.099976,0.000160288
1696.199951,0.000160423
1696.300049,0.000160558
1696.400024,0.000160692
1696.46,0.000160773
1696.5,0.000160826
1696.600098,0.00016096
1696.699951,0.000161093
1696.800049,0.000161227
1696.900024,0.00016136
1696.999878,0.000161493
1697.099976,0.000161626
1697.199951,0.000161759
1697.300049,0.000161891
1697.400024,0.000162024
1697.5,0.000162157
1697.599976,0.000162289
1697.699951,0.000162421
1697.73,0.000162461
1697.800049,0.000162553
1697.900024,0.000162684
1698.0,0.000162815
1698.100098,0.000162946
1698.200073,0.000163077
1698.300049,0.000163207
1698.400024,0.000163338
1698.499878,0.000163468
1698.599976,0.000163599
1698.699951,0.000163729
1698.800049,0.000163859
1698.900024,0.00016399
1699.0,0.000164119
1699.100098,0.000164249
1699.199951,0.000164379
1699.300049,0.000164509
1699.400024,0.000164638
1699.5,0.000164768
1699.600098,0.000164898
1699.699951,0.000165027
1699.800049,0.000165156
1699.899902,0.000165285
1699.999878,0.000165414
1700.0,0.000165414
1700.099976,0.000165548
1700.199951,0.000165682
1700.27,0.000165775
1700.300049,0.000165815
1700.400024,0.000165949
1700.5,0.000166083
1700.600098,0.000166216
1700.700073,0.00016635
1700.800049,0.000166483
1700.900024,0.000166616
1701.0,0.000166749
1701.099976,0.000166882
1701.199951,0.000167015
1701.300049,0.000167148
1701.400024,0.000167281
1701.499878,0.000167413
1701.55,0.00016748
1701.599976,0.000167546
1701.699951,0.000167677
1701.800049,0.000167808
1701.900024,0.000167939
1702.0,0.00016807
1702.100098,0.000168202
1702.200073,0.000168332
1702.300049,0.000168463
1702.400024,0.000168594
1702.5,0.000168724
1702.599976,0.000168855
1702.699951,0.000168985
1702.800049,0.000169116
1702.82,0.000169142
1702.900024,0.000169245
1703.0,0.000169374
1703.099976,0.000169503
1703.199951,0.000169632
1703.300049,0.000169761
1703.400024,0.000169889
1703.5,0.000170018
1703.600098,0.000170147
1703.700073,0.000170275
1703.800049,0.000170403
1703.900024,0.000170531
1703.999878,0.000170659
1704.09,0.000170775
1704.099976,0.000170788
1704.199951,0.000170917
1704.300049,0.000171046
1704.400024,0.000171175
1704.5,0.000171304
1704.600098,0.000171432
1704.699951,0.000171561
1704.800049,0.00017169
1704.900024,0.000171818
1705.0,0.000171947
1705.100098,0.000172075
1705.199951,0.000172203
1705.300049,0.000172331
1705.36,0.000172408
1705.400024,0.000172458
1705.5,0.000172584
1705.599976,0.00017271
1705.699951,0.000172835
1705.800049,0.000172961
1705.900024,0.000173086
1706.0,0.000173211
1706.100098,0.000173336
1706.200073,0.000173461
1706.300049,0.000173586
1706.400024,0.000173711
1706.5,0.000173836
1706.599854,0.00017396
1706.63,0.000173998
1706.699951,0.000174086
1706.799927,0.000174212
1706.900024,0.000174337
1707.0,0.000174463
1707.100098,0.000174588
1707.199951,0.000174714
1707.299927,0.000174839
1707.400024,0.000174964
1707.5,0.000175089
1707.600098,0.000175215
1707.700073,0.00017534
1707.800049,0.000175464
1707.900024,0.000175589
1707.91,0.000175602
1708.0,0.000175712
1708.099854,0.000175834
1708.199951,0.000175956
1708.299927,0.000176078
1708.400024,0.0001762
1708.5,0.000176322
1708.600098,0.000176444
1708.700073,0.000176565
1708.799927,0.000176687
1708.900024,0.000176808
1709.0,0.00017693
1709.100098,0.000177051
1709.18,0.000177148
1709.200073,0.000177172
1709.299927,0.000177295
1709.400024,0.000177417
1709.5,0.000177539
1709.599854,0.000177661
1709.699951,0.000177783
1709.799927,0.000177905
1709.900024,0.000178027
1710.0,0.000178148
1710.100098,0.00017827
1710.200073,0.000178392
1710.300049,0.000178513
1710.400024,0.000178635
1710.45,0.000178695
1710.5,0.000178755
1710.600098,0.000178875
1710.699951,0.000178995
1710.799927,0.000179115
1710.900024,0.000179235
1711.0,0.000179354
1711.100098,0.000179474
1711.199951,0.000179593
1711.299927,0.000179713
1711.400024,0.000179832
1711.5,0.000179951
1711.600098,0.000180071
1711.700073,0.00018019
1711.72,0.000180213
1711.800049,0.000180308
1711.900146,0.000180426
1712.0,0.000180543
1712.099976,0.000180661
1712.199951,0.000180778
1712.299927,0.000180896
1712.400024,0.000181013
1712.5,0.00018113
1712.599976,0.000181248
1712.700073,0.000181365
1712.799927,0.000181482
1712.900024,0.000181599
1713.0,0.000181715
1713.099976,0.000181833
1713.200073,0.000181951
1713.300049,0.000182069
1713.400024,0.000182186
1713.5,0.000182304
1713.599854,0.000182421
1713.699951,0.000182539
1713.799927,0.000182656
1713.900024,0.000182773
1714.0,0.00018289
1714.099976,0.000183007
1714.200073,0.000183125
1714.27,0.000183206
1714.300049,0.000183241
1714.400024,0.000183357
1714.5,0.000183472
1714.599976,0.000183587
1714.700073,0.000183703
1714.799927,0.000183818
1714.900024,0.000183933
1715.0,0.000184048
1715.099976,0.000184163
1715.199951,0.000184278
1715.299927,0.000184393
1715.400024,0.000184507
1715.5,0.000184622
1715.54,0.000184668
1715.599976,0.000184736
1715.700073,0.000184849
1715.800049,0.000184962
1715.900146,0.000185075
1716.0,0.000185188
1716.099976,0.000185301
1716.200073,0.000185414
1716.299927,0.000185527
1716.399902,0.000185639
1716.5,0.000185752
1716.599976,0.000185864
1716.700073,0.000185977
1716.799927,0.000186089
1716.81,0.0001861
1716.899902,0.000186201
1717.0,0.000186313
1717.099976,0.000186425
1717.200073,0.000186537
1717.300049,0.000186649
1717.400146,0.000186761
1717.5,0.000186873
1717.599976,0.000186984
1717.699951,0.000187096
1717.799927,0.000187207
1717.899902,0.000187319
1718.0,0.00018743
1718.08,0.000187519
1718.099976,0.000187541
1718.200073,0.000187653
1718.300049,0.000187764
1718.399902,0.000187875
1718.5,0.000187986
1718.599976,0.000188097
1718.700073,0.000188208
1718.800049,0.000188318
1718.899902,0.000188429
1719.0,0.00018854
1719.099976,0.00018865
1719.200073,0.000188761
1719.299927,0.000188871
1719.36,0.000188937
1719.399902,0.000188981
1719.5,0.000189091
1719.599976,0.000189201
1719.700073,0.000189311
1719.800049,0.000189421
1719.900024,0.000189531
1720.0,0.000189641
1720.099976,0.00018975
1720.200073,0.00018986
1720.300049,0.000189969
1720.399902,0.000190078
1720.5,0.000190188
1720.599976,0.000190297
1720.63,0.00019033
1720.700073,0.000190405
1720.800049,0.000190513
