Wavelength,Transmission
1640.0,4.80207e-10
1640.099976,4.80616e-10
1640.200073,4.82152e-10
1640.300049,4.83685e-10
1640.400146,4.8522e-10
1640.5,4.86749e-10
1640.599976,4.8828e-10
1640.700073,4.89811e-10
1640.799927,4.91338e-10
1640.900024,4.92867e-10
1641.0,4.94394e-10
1641.099976,4.95919e-10
1641.200073,4.97445e-10
1641.299927,4.98966e-10
1641.400024,5.0049e-10
1641.5,5.02011e-10
1641.599976,5.03532e-10
1641.700073,5.05053e-10
1641.800049,5.06571e-10
1641.900146,5.0809e-10
1642.0,5.09605e-10
1642.099976,5.1112e-10
1642.199951,5.12633e-10
1642.299927,5.14145e-10
1642.400024,5.15659e-10
1642.5,5.17169e-10
1642.599976,5.18679e-10
1642.700073,5.20189e-10
1642.800049,5.21697e-10
1642.900024,5.23204e-10
1643.0,5.2471e-10
1643.099976,5.26214e-10
1643.200073,5.27719e-10
1643.300049,5.29222e-10
1643.400024,5.30723e-10
1643.5,5.32223e-10
1643.599976,5.33723e-10
1643.699951,5.35222e-10
1643.799927,5.36719e-10
1643.899902,5.38216e-10
1644.0,5.39713e-10
1644.099976,5.41206e-10
1644.200073,5.427e-10
1644.300049,5.44191e-10
1644.400024,5.45681e-10
1644.5,5.4717e-10
1644.599976,5.48658e-10
1644.700073,5.50147e-10
1644.800049,5.51633e-10
1644.899902,5.53117e-10
1645.0,5.54603e-10
1645.099976,5.56086e-10
1645.200073,5.57571e-10
1645.299927,5.5905e-10
1645.399902,5.60531e-10
1645.5,5.62012e-10
1645.599976,5.63491e-10
1645.700073,5.6497e-10
1645.800049,5.66447e-10
1645.900024,5.67923e-10
1646.0,5.69398e-10
1646.000122,5.694e-10
1646.099976,5.7087e-10
1646.200073,5.72344e-10
1646.299927,5.73813e-10
1646.399902,5.75282e-10
1646.5,5.76753e-10
1646.599976,5.78221e-10
1646.700073,5.7969e-10
1646.800049,5.81156e-10
1646.899902,5.82619e-10
1647.0,5.84085e-10
1647.099976,5.85547e-10
1647.200073,5.87011e-10
1647.300049,5.88471e-10
1647.400024,5.89931e-10
1647.5,5.91389e-10
1647.599976,5.92847e-10
1647.699951,5.94304e-10
1647.799927,5.9576e-10
1647.899902,5.97215e-10
1648.0,5.9867e-10
1648.099976,6.00122e-10
1648.200073,6.01574e-10
1648.300049,6.03024e-10
1648.400024,6.04473e-10
1648.5,6.05921e-10
1648.599976,6.07368e-10
1648.700073,6.08815e-10
1648.800049,6.1026e-10
1648.899902,6.11703e-10
1649.0,6.13148e-10
1649.099976,6.14589e-10
1649.200073,6.1603e-10
1649.299927,6.17467e-10
1649.399902,6.18905e-10
1649.5,6.20344e-10
1649.599976,6.2178e-10
1649.700073,6.23217e-10
1649.800049,6.24651e-10
1649.900024,6.26084e-10
1650.0,6.27517e-10
1650.000122,6.27518e-10
1650.099976,6.28947e-10
1650.200073,6.30379e-10
1650.300049,6.31808e-10
1650.399902,6.33234e-10
1650.5,6.34662e-10
1650.599976,6.36088e-10
1650.700073,6.37515e-10
1650.800049,6.38939e-10
1650.899902,6.4036e-10
1651.0,6.41784e-10
1651.099976,6.43204e-10
1651.199951,6.44623e-10
1651.300049,6.46042e-10
1651.400024,6.47459e-10
1651.500122,6.48877e-10
1651.599976,6.5029e-10
1651.699951,6.51704e-10
1651.799927,6.53118e-10
1651.899902,6.5453e-10
1652.0,6.55943e-10
1652.099976,6.57353e-10
1652.199951,6.58761e-10
1652.300049,6.60171e-10
1652.400024,6.61577e-10
1652.5,6.62983e-10
1652.599976,6.64388e-10
1652.699951,6.65792e-10
1652.800049,6.67197e-10
1652.900024,6.68599e-10
1653.0,6.7e-10
1653.099976,6.71399e-10
1653.199951,6.72797e-10
1653.299927,6.74194e-10
1653.399902,6.7559e-10
1653.5,6.76986e-10
1653.599976,6.7838e-10
1653.699951,6.79773e-10
1653.800049,6.81167e-10
1653.900024,6.82558e-10
1654.0,6.83949e-10
1654.000122,6.8395e-10
1654.099976,6.85336e-10
1654.199951,6.86723e-10
1654.300049,6.88111e-10
1654.400024,6.89496e-10
1654.5,6.9088e-10
1654.599976,6.92263e-10
1654.699951,6.93645e-10
1654.800049,6.95028e-10
1654.899902,6.96407e-10
1655.0,6.97788e-10
1655.099976,6.99165e-10
1655.199951,7.00542e-10
1655.300049,7.01919e-10
1655.400024,7.03294e-10
1655.500122,7.0467e-10
1655.600098,7.06043e-10
1655.699951,7.07413e-10
1655.800049,7.08786e-10
1655.899902,7.10155e-10
1656.0,7.11525e-10
1656.099976,7.12892e-10
1656.199951,7.14258e-10
1656.300049,7.15624e-10
1656.400024,7.16988e-10
1656.5,7.18351e-10
1656.599976,7.19713e-10
1656.699951,7.21074e-10
1656.800049,7.22436e-10
1656.900024,7.23795e-10
1657.0,7.25154e-10
1657.000122,7.25155e-10
1657.099976,7.26509e-10
1657.199951,7.27864e-10
1657.299927,7.29218e-10
1657.399902,7.30571e-10
1657.5,7.31925e-10
1657.599976,7.33276e-10
1657.699951,7.34626e-10
1657.800049,7.35977e-10
1657.900024,7.37325e-10
1658.0,7.38672e-10
1658.099976,7.40018e-10
1658.199951,7.41362e-10
1658.300049,7.42708e-10
1658.400024,7.44051e-10
1658.5,7.45392e-10
1658.599976,7.46733e-10
1658.699951,7.48073e-10
1658.800049,7.49414e-10
1658.899902,7.50751e-10
1659.0,7.5209e-10
1659.099976,7.53424e-10
1659.199951,7.54758e-10
1659.300049,7.56092e-10
1659.400024,7.57424e-10
1659.5,7.58755e-10
1659.600098,7.60086e-10
1659.699951,7.61414e-10
1659.800049,7.62743e-10
1659.900024,7.64071e-10
1659.999878,7.65395e-10
1660.0,7.65397e-10
1660.099976,7.66721e-10
1660.199951,7.68043e-10
1660.300049,7.69367e-10
1660.400024,7.70687e-10
1660.5,7.72007e-10
1660.599976,7.73326e-10
1660.699951,7.74644e-10
1660.800049,7.75963e-10
1660.900024,7.77279e-10
1661.0,7.78595e-10
1661.100098,7.7991e-10
1661.199951,7.81221e-10
1661.300049,7.82534e-10
1661.399902,7.83843e-10
1661.499878,7.85153e-10
1661.599976,7.86463e-10
1661.699951,7.87771e-10
1661.800049,7.8908e-10
1661.900024,7.90386e-10
1662.0,7.91691e-10
1662.100098,7.92995e-10
1662.199951,7.94295e-10
1662.300049,7.95597e-10
1662.400024,7.96897e-10
1662.5,7.98196e-10
1662.600098,7.99495e-10
1662.699951,8.00791e-10
1662.800049,8.02088e-10
1662.900024,8.03383e-10
1662.999878,8.04676e-10
1663.0,8.04678e-10
1663.099976,8.0597e-10
1663.199951,8.07261e-10
1663.300049,8.08553e-10
1663.400024,8.09843e-10
1663.5,8.11132e-10
1663.600098,8.12421e-10
1663.700073,8.13708e-10
1663.800049,8.14994e-10
1663.900024,8.16279e-10
1664.0,8.17563e-10
1664.099976,8.18844e-10
1664.199951,8.20125e-10
1664.300049,8.21406e-10
1664.400024,8.22685e-10
1664.5,8.23962e-10
1664.599976,8.25239e-10
1664.699951,8.26515e-10
1664.800049,8.27792e-10
1664.900024,8.29065e-10
1665.0,8.30339e-10
1665.100098,8.3161e-10
1665.200073,8.32878e-10
1665.300049,8.34146e-10
1665.400024,8.35412e-10
1665.499878,8.36676e-10
1665.599976,8.37943e-10
1665.699951,8.39207e-10
1665.800049,8.40471e-10
1665.900024,8.41733e-10
1666.0,8.42994e-10
1666.100098,8.44255e-10
1666.199951,8.45512e-10
1666.300049,8.46771e-10
1666.400024,8.48028e-10
1666.5,8.49283e-10
1666.600098,8.5054e-10
1666.700073,8.51794e-10
1666.799927,8.53045e-10
1666.900024,8.54299e-10
1666.999878,8.55548e-10
1667.0,8.5555e-10
1667.099976,8.56799e-10
1667.199951,8.58047e-10
1667.299927,8.59295e-10
1667.400024,8.60542e-10
1667.5,8.61788e-10
1667.600098,8.63035e-10
1667.700073,8.64278e-10
1667.799927,8.6552e-10
1667.900024,8.66763e-10
1668.0,8.68004e-10
1668.100098,8.69243e-10
1668.199951,8.70478e-10
1668.299927,8.71713e-10
1668.400024,8.72949e-10
1668.5,8.74183e-10
1668.599976,8.75415e-10
1668.699951,8.76647e-10
1668.799927,8.77878e-10
1668.900024,8.79109e-10
1669.0,8.80339e-10
1669.100098,8.81567e-10
1669.200073,8.82793e-10
1669.300049,8.84019e-10
1669.400024,8.85243e-10
1669.5,8.86467e-10
1669.599976,8.87689e-10
1669.699951,8.88911e-10
1669.799927,8.90132e-10
1669.900024,8.91353e-10
1670.0,8.92573e-10
1670.100098,8.9379e-10
1670.199951,8.95004e-10
1670.299927,8.96218e-10
1670.400024,8.97433e-10
1670.5,8.98646e-10
1670.600098,8.99859e-10
1670.700073,9.01069e-10
1670.799927,9.02278e-10
1670.900024,9.03488e-10
1670.999878,9.04695e-10
1671.0,9.04696e-10
1671.099976,9.05901e-10
1671.199951,9.07105e-10
1671.299927,9.08309e-10
1671.400024,9.09512e-10
1671.5,9.10714e-10
1671.600098,9.11916e-10
1671.700073,9.13116e-10
1671.799927,9.14313e-10
1671.900024,9.15512e-10
1672.0,9.16709e-10
1672.100098,9.17884e-10
1672.200073,9.19056e-10
1672.299927,9.20225e-10
1672.400024,9.21397e-10
1672.5,9.22566e-10
1672.599854,9.23733e-10
1672.699951,9.24901e-10
1672.799927,9.26068e-10
1672.900024,9.27234e-10
1673.0,9.28399e-10
1673.100098,9.29522e-10
1673.200073,9.30643e-10
1673.300049,9.31763e-10
1673.400024,9.32881e-10
1673.5,9.33999e-10
1673.599976,9.35115e-10
1673.699951,9.36231e-10
1673.799927,9.37346e-10
1673.900024,9.3846e-10
1674.0,9.39573e-10
1674.099976,9.40687e-10
1674.199951,9.41801e-10
1674.299927,9.42913e-10
1674.400024,9.44026e-10
1674.5,9.45137e-10
1674.599976,9.46246e-10
1674.700073,9.47356e-10
1674.800049,9.48463e-10
1674.900024,9.4957e-10
1675.0,9.50675e-10
1675.099854,9.51775e-10
1675.199951,9.52876e-10
1675.299927,9.53975e-10
1675.400024,9.55074e-10
1675.5,9.56171e-10
1675.599976,9.57267e-10
1675.700073,9.58363e-10
1675.799927,9.59456e-10
1675.900024,9.6055e-10
1676.0,9.61642e-10
1676.099976,9.62731e-10
1676.200073,9.63821e-10
1676.300049,9.64909e-10
1676.400024,9.65996e-10
1676.5,9.67081e-10
1676.599854,9.68164e-10
1676.699951,9.69249e-10
1676.799927,9.70332e-10
1676.900024,9.71414e-10
1677.0,9.72495e-10
1677.099976,9.73572e-10
1677.200073,9.74649e-10
1677.300049,9.75725e-10
1677.400024,9.76799e-10
1677.5,9.77872e-10
1677.599976,9.78944e-10
1677.700073,9.80016e-10
1677.799927,9.81085e-10
1677.900024,9.82155e-10
1678.0,9.83224e-10
1678.099976,9.84289e-10
1678.199951,9.85354e-10
1678.299927,9.86418e-10
1678.399902,9.87481e-10
1678.5,9.88544e-10
1678.599976,9.89605e-10
1678.700073,9.90666e-10
1678.800049,9.91725e-10
1678.900146,9.92784e-10
1679.0,9.93839e-10
1679.099976,9.94892e-10
1679.199951,9.95943e-10
1679.299927,9.96993e-10
1679.399902,9.98043e-10
1679.5,9.99092e-10
1679.599976,1.00014e-09
1679.700073,1.00119e-09
1679.799927,1.00223e-09
1679.899902,1.00328e-09
1680.0,1.00432e-09
1680.099976,1.00536e-09
1680.200073,1.0064e-09
1680.300049,1.00744e-09
1680.400146,1.00848e-09
1680.5,1.00952e-09
1680.599976,1.01055e-09
1680.699951,1.01159e-09
1680.799927,1.01262e-09
1680.899902,1.01365e-09
1681.0,1.01469e-09
1681.099976,1.01572e-09
1681.200073,1.01675e-09
1681.300049,1.01777e-09
1681.399902,1.0188e-09
1681.5,1.01982e-09
1681.599976,1.02085e-09
1681.700073,1.02187e-09
1681.800049,1.02289e-09
1681.899902,1.02391e-09
1682.0,1.02493e-09
1682.099976,1.02595e-09
1682.200073,1.02697e-09
1682.299927,1.02798e-09
1682.399902,1.02899e-09
1682.5,1.03001e-09
1682.599976,1.03102e-09
1682.700073,1.03203e-09
1682.800049,1.03304e-09
1682.900024,1.03405e-09
1683.0,1.03505e-09
1683.099976,1.03606e-09
1683.200073,1.03706e-09
1683.299927,1.03807e-09
1683.399902,1.03907e-09
1683.5,1.04007e-09
1683.599976,1.04107e-09
1683.700073,1.04207e-09
1683.800049,1.04307e-09
1683.899902,1.04407e-09
1684.0,1.04506e-09
1684.099976,1.04606e-09
1684.200073,1.04705e-09
1684.300049,1.04804e-09
1684.400024,1.04903e-09
1684.5,1.05001e-09
1684.599976,1.051e-09
1684.700073,1.05199e-09
1684.799927,1.05297e-09
1684.899902,1.05396e-09
1685.0,1.05494e-09
1685.099976,1.05592e-09
1685.200073,1.0569e-09
1685.300049,1.05788e-09
1685.400024,1.05886e-09
1685.5,1.05984e-09
1685.599976,1.06082e-09
1685.699951,1.06179e-09
1685.800049,1.06277e-09
1685.900024,1.06374e-09
1686.0,1.06472e-09
1686.099976,1.06568e-09
1686.199951,1.06665e-09
1686.299927,1.06762e-09
1686.399902,1.06858e-09
1686.5,1.06954e-09
1686.599976,1.07051e-09
1686.699951,1.07147e-09
1686.800049,1.07243e-09
1686.900024,1.07339e-09
1687.0,1.07435e-09
1687.000122,1.07435e-09
1687.099976,1.07531e-09
1687.199951,1.07626e-09
1687.300049,1.07722e-09
1687.399902,1.07817e-09
1687.5,1.07913e-09
1687.599976,1.08008e-09
1687.699951,1.08103e-09
1687.800049,1.08198e-09
1687.899902,1.08293e-09
1688.0,1.08388e-09
1688.099976,1.08483e-09
1688.199951,1.08577e-09
1688.300049,1.08672e-09
1688.400024,1.08766e-09
1688.500122,1.0886e-09
1688.599976,1.08954e-09
1688.699951,1.09048e-09
1688.799927,1.09142e-09
1688.899902,1.09235e-09
1689.0,1.09329e-09
1689.099976,1.09422e-09
1689.199951,1.09516e-09
1689.300049,1.09609e-09
1689.400024,1.09702e-09
1689.5,1.09794e-09
1689.599976,1.09887e-09
1689.699951,1.0998e-09
1689.800049,1.10072e-09
1689.900024,1.10165e-09
1690.0,1.10257e-09
1690.000122,1.10257e-09
1690.099976,1.10349e-09
1690.199951,1.10441e-09
1690.299927,1.10533e-09
1690.399902,1.10625e-09
1690.5,1.10717e-09
1690.599976,1.10808e-09
1690.699951,1.109e-09
1690.800049,1.10991e-09
1690.900024,1.11083e-09
1691.0,1.11174e-09
1691.000122,1.11174e-09
1691.099976,1.11265e-09
1691.199951,1.11356e-09
1691.300049,1.11446e-09
1691.400024,1.11537e-09
1691.5,1.11627e-09
1691.599976,1.11718e-09
1691.699951,1.11808e-09
1691.800049,1.11899e-09
1691.899902,1.11989e-09
1692.0,1.12079e-09
1692.099976,1.12172e-09
1692.199951,1.12266e-09
1692.300049,1.12359e-09
1692.400024,1.12453e-09
1692.500122,1.12546e-09
1692.600098,1.12639e-09
1692.699951,1.12732e-09
1692.800049,1.12825e-09
1692.899902,1.12918e-09
1693.0,1.13011e-09
1693.099976,1.13107e-09
1693.199951,1.13204e-09
1693.300049,1.133e-09
1693.400024,1.13396e-09
1693.5,1.13492e-09
1693.599976,1.13588e-09
1693.699951,1.13684e-09
1693.800049,1.1378e-09
1693.900024,1.13875e-09
1694.0,1.13971e-09
1694.000122,1.13971e-09
1694.100098,1.14066e-09
1694.199951,1.14161e-09
1694.300049,1.14257e-09
1694.399902,1.14352e-09
1694.5,1.14447e-09
1694.599976,1.14542e-09
1694.699951,1.14636e-09
1694.800049,1.14731e-09
1694.900024,1.14826e-09
1695.0,1.1492e-09
1695.000122,1.1492e-09
1695.099976,1.15014e-09
1695.199951,1.15108e-09
1695.300049,1.15202e-09
1695.400024,1.15296e-09
1695.5,1.15389e-09
1695.599976,1.15483e-09
1695.699951,1.15576e-09
1695.800049,1.1567e-09
1695.900024,1.15763e-09
1695.999878,1.15856e-09
1696.0,1.15856e-09
1696.099976,1.15949e-09
1696.199951,1.16041e-09
1696.300049,1.16134e-09
1696.400024,1.16226e-09
1696.5,1.16318e-09
1696.600098,1.1641e-09
1696.699951,1.16502e-09
1696.800049,1.16594e-09
1696.900024,1.16686e-09
1696.999878,1.16777e-09
1697.0,1.16777e-09
1697.099976,1.16869e-09
1697.199951,1.1696e-09
1697.300049,1.17051e-09
1697.400024,1.17142e-09
1697.5,1.17233e-09
1697.599976,1.17324e-09
1697.699951,1.17415e-09
1697.800049,1.17505e-09
1697.900024,1.17596e-09
1698.0,1.17687e-09
1698.100098,1.17777e-09
1698.200073,1.17867e-09
1698.300049,1.17957e-09
1698.400024,1.18047e-09
1698.499878,1.18137e-09
1698.599976,1.18227e-09
1698.699951,1.18317e-09
1698.800049,1.18407e-09
1698.900024,1.18497e-09
1699.0,1.18586e-09
1699.100098,1.18676e-09
1699.199951,1.18765e-09
1699.300049,1.18854e-09
1699.400024,1.18943e-09
1699.5,1.19032e-09
1699.600098,1.19121e-09
1699.699951,1.1921e-09
1699.800049,1.19298e-09
1699.899902,1.19387e-09
1699.999878,1.19475e-09
1700.0,1.19476e-09
1700.099976,1.19567e-09
1700.199951,1.19659e-09
1700.300049,1.1975e-09
1700.400024,1.19842e-09
1700.5,1.19933e-09
1700.600098,1.20024e-09
1700.700073,1.20116e-09
1700.800049,1.20207e-09
1700.900024,1.20298e-09
1701.0,1.20389e-09
1701.099976,1.20479e-09
1701.199951,1.2057e-09
1701.300049,1.20661e-09
1701.400024,1.20751e-09
1701.499878,1.20842e-09
1701.599976,1.20932e-09
1701.699951,1.21023e-09
1701.800049,1.21113e-09
1701.900024,1.21203e-09
1702.0,1.21293e-09
1702.100098,1.21383e-09
1702.200073,1.21472e-09
1702.300049,1.21562e-09
1702.400024,1.21651e-09
1702.5,1.21741e-09
1702.599976,1.2183e-09
1702.699951,1.21919e-09
1702.800049,1.22008e-09
1702.900024,1.22097e-09
1703.0,1.22186e-09
1703.099976,1.22275e-09
1703.199951,1.22364e-09
1703.300049,1.22452e-09
1703.400024,1.22541e-09
1703.5,1.22629e-09
1703.600098,1.22718e-09
1703.700073,1.22806e-09
1703.800049,1.22894e-09
1703.900024,1.22982e-09
1703.999878,1.2307e-09
1704.0,1.23071e-09
1704.099976,1.23158e-09
1704.199951,1.23246e-09
1704.300049,1.23334e-09
1704.400024,1.23421e-09
1704.5,1.23509e-09
1704.600098,1.23596e-09
1704.699951,1.23683e-09
1704.800049,1.23771e-09
1704.900024,1.23858e-09
1705.0,1.23945e-09
1705.100098,1.24031e-09
1705.199951,1.24118e-09
1705.300049,1.24204e-09
1705.400024,1.24291e-09
1705.5,1.24377e-09
1705.599976,1.24463e-09
1705.699951,1.24549e-09
1705.800049,1.24636e-09
1705.900024,1.24722e-09
1706.0,1.24807e-09
1706.100098,1.24893e-09
1706.200073,1.24979e-09
1706.300049,1.25064e-09
1706.400024,1.25149e-09
1706.5,1.25235e-09
1706.599854,1.2532e-09
1706.699951,1.25405e-09
1706.799927,1.2549e-09
1706.900024,1.25575e-09
1707.0,1.2566e-09
1707.100098,1.25745e-09
1707.199951,1.25829e-09
1707.299927,1.25914e-09
1707.400024,1.25999e-09
1707.5,1.26083e-09
1707.600098,1.26167e-09
1707.700073,1.26252e-09
1707.800049,1.26336e-09
1707.900024,1.2642e-09
1708.0,1.26504e-09
1708.099854,1.26587e-09
1708.199951,1.26671e-09
1708.299927,1.26754e-09
1708.400024,1.26837e-09
1708.5,1.26921e-09
1708.600098,1.27004e-09
1708.700073,1.27087e-09
1708.799927,1.27169e-09
1708.900024,1.27252e-09
1709.0,1.27335e-09
1709.100098,1.27418e-09
1709.200073,1.27501e-09
1709.299927,1.27583e-09
1709.400024,1.27666e-09
1709.5,1.27748e-09
1709.599854,1.2783e-09
1709.699951,1.27913e-09
1709.799927,1.27995e-09
1709.900024,1.28077e-09
1710.0,1.28159e-09
1710.100098,1.28241e-09
1710.200073,1.28322e-09
1710.300049,1.28404e-09
1710.400024,1.28485e-09
1710.5,1.28566e-09
1710.600098,1.28647e-09
1710.699951,1.28728e-09
1710.799927,1.2881e-09
1710.900024,1.28891e-09
1711.0,1.28972e-09
1711.100098,1.29052e-09
1711.199951,1.29133e-09
1711.299927,1.29213e-09
1711.400024,1.29293e-09
1711.5,1.29374e-09
1711.600098,1.29454e-09
1711.700073,1.29534e-09
1711.800049,1.29614e-09
1711.900146,1.29694e-09
1712.0,1.29774e-09
1712.099976,1.29853e-09
1712.199951,1.29933e-09
1712.299927,1.30012e-09
1712.400024,1.30092e-09
1712.5,1.30171e-09
1712.599976,1.3025e-09
1712.700073,1.30329e-09
1712.799927,1.30408e-09
1712.900024,1.30487e-09
1713.0,1.30566e-09
1713.099976,1.30645e-09
1713.200073,1.30723e-09
1713.300049,1.30802e-09
1713.400024,1.3088e-09
1713.5,1.30958e-09
1713.599854,1.31036e-09
1713.699951,1.31115e-09
1713.799927,1.31193e-09
1713.900024,1.31271e-09
1714.0,1.31349e-09
1714.099976,1.31426e-09
1714.200073,1.31504e-09
1714.300049,1.31581e-09
1714.400024,1.31658e-09
1714.5,1.31735e-09
1714.599976,1.31812e-09
1714.700073,1.31889e-09
1714.799927,1.31966e-09
1714.900024,1.32043e-09
1715.0,1.3212e-09
1715.099976,1.32196e-09
1715.199951,1.32273e-09
1715.299927,1.32349e-09
1715.400024,1.32425e-09
1715.5,1.32502e-09
1715.599976,1.32578e-09
1715.700073,1.32654e-09
1715.800049,1.3273e-09
1715.900146,1.32806e-09
1716.0,1.32882e-09
1716.099976,1.32957e-09
1716.200073,1.33033e-09
1716.299927,1.33108e-09
1716.399902,1.33183e-09
1716.5,1.33258e-09
1716.599976,1.33333e-09
1716.700073,1.33408e-09
1716.799927,1.33483e-09
1716.899902,1.33558e-09
1717.0,1.33633e-09
1717.099976,1.33707e-09
1717.200073,1.33782e-09
1717.300049,1.33856e-09
1717.400146,1.33931e-09
1717.5,1.34005e-09
1717.599976,1.34079e-09
1717.699951,1.34153e-09
1717.799927,1.34227e-09
1717.899902,1.34301e-09
1718.0,1.34375e-09
1718.099976,1.34449e-09
1718.200073,1.34523e-09
1718.300049,1.34596e-09
1718.399902,1.34669e-09
1718.5,1.34743e-09
1718.599976,1.34816e-09
1718.700073,1.34889e-09
1718.800049,1.34962e-09
1718.899902,1.35035e-09
1719.0,1.35108e-09
1719.099976,1.35181e-09
1719.200073,1.35253e-09
1719.299927,1.35325e-09
1719.399902,1.35397e-09
1719.5,1.3547e-09
1719.599976,1.35542e-09
1719.700073,1.35614e-09
1719.800049,1.35686e-09
1719.900024,1.35757e-09
1720.0,1.35829e-09
1720.099976,1.35901e-09
1720.200073,1.35972e-09
1720.300049,1.36044e-09
1720.399902,1.36115e-09
1720.5,1.36186e-09
1720.599976,1.36258e-09
1720.700073,1.36329e-09
1720.800049,1.364e-09
1720.899902,1.36471e-09
1721.0,1.36542e-09
1721.099976,1.36612e-09
1721.200073,1.36683e-09
1721.300049,1.36753e-09
1721.400024,1.36823e-09
1721.500122,1.36894e-09
1721.599976,1.36964e-09
1721.700073,1.37034e-09
1721.799927,1.37104e-09
1721.899902,1.37174e-09
1722.0,1.37243e-09
1722.099976,1.37313e-09
1722.199951,1.37382e-09
1722.300049,1.37452e-09
1722.400024,1.37521e-09
1722.5,1.3759e-09
1722.599976,1.37659e-09
1722.699951,1.37728e-09
1722.800049,1.37797e-09
1722.900024,1.37866e-09
1723.0,1.37935e-09
1723.099976,1.38003e-09
1723.199951,1.38072e-09
1723.299927,1.3814e-09
1723.399902,1.38209e-09
1723.5,1.38277e-09
1723.599976,1.38346e-09
1723.699951,1.38414e-09
1723.800049,1.38482e-09
1723.900024,1.3855e-09
1724.0,1.38618e-09
1724.000122,1.38618e-09
1724.099976,1.38686e-09
1724.199951,1.38753e-09
1724.300049,1.3882e-09
1724.399902,1.38888e-09
1724.5,1.38955e-09
1724.599976,1.39022e-09
1724.699951,1.39089e-09
1724.799927,1.39156e-09
1724.899902,1.39223e-09
1725.0,1.3929e-09
