Wavelength,Transmission
1601.0,0.000176523
1602.0,0.000192763
1603.0,0.000209024
1603.674316,0.000220001
1604.0,0.000225255
1605.0,0.000241403
1606.0,0.000257572
1606.825928,0.000270943
1607.0,0.000274179
1608.0,0.00029279
1609.0,0.000311426
1609.977539,0.000329668
1610.0,0.00033014
1611.0,0.000351194
1612.0,0.000372284
1613.0,0.000393408
1613.12915,0.000396139
1614.0,0.00041658
1615.0,0.000440089
1616.0,0.000463639
1616.280762,0.000470258
1617.0,0.000488827
1618.0,0.000514683
1619.0,0.000540584
1619.432373,0.000551797
1620.0,0.000567495
1621.0,0.000595275
1622.0,0.000623112
1622.583984,0.000639395
1623.0,0.000651465
1624.0,0.000680521
1625.0,0.000709637
1625.735596,0.000731094
1626.0,0.00073894
1627.0,0.000768655
1628.0,0.000798423
1628.887207,0.000824874
1629.0,0.000828211
1630.0,0.000857831
1631.0,0.000887656
1632.0,0.000917549
1632.038818,0.000918711
1633.0,0.000946878
1634.0,0.000976249
1635.0,0.00100569
1635.19043,0.0010113
1636.0,0.00103476
1637.0,0.00106379
1638.0,0.0010929
1638.342041,0.00110286
1639.0,0.00112173
1640.0,0.00115047
1641.0,0.00117948
1641.493652,0.00119382
1642.0,0.00120836
1643.0,0.00123712
1644.0,0.00126596
1644.645264,0.00128461
1645.0,0.00129482
1646.0,0.00132366
1647.0,0.00135257
1647.796875,0.00137566
1648.0,0.00138154
1649.0,0.0014105
1650.0,0.00143954
1650.948486,0.00146742
1651.0,0.00146893
1652.0,0.00149826
1653.0,0.00152769
1654.0,0.0015572
1654.100098,0.00156016
1655.0,0.00158678
1656.0,0.00161644
1657.0,0.00164618
1657.251709,0.00165368
1658.0,0.0016759
1659.0,0.00170566
1660.0,0.0017355
1660.40332,0.00174769
1661.0,0.00176545
1662.0,0.00179529
1663.0,0.00182522
1663.554932,0.00184187
1664.0,0.0018551
1665.0,0.00188488
1666.0,0.00191475
1666.706543,0.0019359
1667.0,0.00194458
1668.0,0.00197421
1669.0,0.00200392
1669.858154,0.00202948
1670.0,0.00203359
1671.0,0.00206297
1672.0,0.00209243
1673.0,0.00212147
1673.009766,0.00212174
1674.0,0.00214905
1675.0,0.00217676
1676.0,0.00220452
1676.161377,0.00220901
1677.0,0.00223174
1678.0,0.00225888
1679.0,0.00228608
1679.312988,0.00229459
1680.0,0.00231263
1681.0,0.00233925
1682.0,0.00236591
1682.4646,0.00237832
1683.0,0.00239221
1684.0,0.0024182
1685.0,0.00244423
1685.616211,0.00246029
1686.0,0.00247005
1687.0,0.00249552
1688.0,0.00252102
1688.767822,0.00254063
1689.0,0.00254638
1690.0,0.00257117
1691.0,0.0025963
1691.919434,0.00261945
1692.0,0.00262142
1693.0,0.00264687
1694.0,0.00267328
1695.0,0.00269975
1695.071045,0.00270163
1696.0,0.00272578
1697.0,0.00275169
1698.0,0.00277767
1698.222656,0.00278346
1699.0,0.00280329
1700.0,0.00282884
1701.0,0.0028556
1701.374268,0.00286563
1702.0,0.00288211
1703.0,0.00290849
1704.0,0.00293494
1704.525879,0.00294887
1705.0,0.00296129
1706.0,0.0029875
1707.0,0.00301378
1707.67749,0.00303162
1708.0,0.00303999
1709.0,0.00306599
1710.0,0.00309205
1710.829102,0.00311392
1711.0,0.00311835
1712.0,0.00314428
1713.0,0.00317028
1713.980713,0.00319582
1714.0,0.00319631
1715.0,0.00322212
1716.0,0.00324798
1717.0,0.00327388
1717.132324,0.00327731
1718.0,0.00329958
1719.0,0.00332529
1720.0,0.00335104
1720.283936,0.00335841
1721.0,0.00337673
1722.0,0.00340233
1723.0,0.00342797
1723.435547,0.00343914
1724.0,0.00345351
1725.0,0.00347899
1726.0,0.0035045
1726.587158,0.00351948
1727.0,0.00352995
1728.0,0.00355531
1729.0,0.00358069
1729.73877,0.00359945
1730.0,0.00360601
1731.0,0.00363126
1732.0,0.00365654
1732.890381,0.00367906
1733.0,0.00368182
1734.0,0.00370695
1735.0,0.00373209
1736.0,0.00375726
1736.041992,0.00375831
1737.0,0.00378229
1738.0,0.00380733
1739.0,0.00383239
1739.193604,0.00383724
1740.0,0.00385728
1741.0,0.00388227
1742.0,0.00390727
1742.345215,0.0039159
1743.0,0.00393219
1744.0,0.00395708
1745.0,0.00398198
1745.496826,0.00399434
1746.0,0.00400684
1747.0,0.00403168
1748.0,0.00405653
1748.648438,0.00407264
1749.0,0.00408134
1750.0,0.00410609
1751.0,0.00413094
1751.800049,0.00415083
1752.0,0.00415579
1753.0,0.00418058
1754.0,0.00420538
1754.951538,0.00422899
1755.0,0.0042302
1756.0,0.00425497
1757.0,0.00427976
1758.0,0.00430456
1758.103149,0.00430712
1759.0,0.00432929
1760.0,0.00435403
1761.0,0.00437883
1761.254761,0.00438515
1762.0,0.00440356
1763.0,0.00442827
1764.0,0.00445299
1764.406372,0.00446304
1765.0,0.00447767
1766.0,0.00450231
1767.0,0.00452697
1767.557983,0.00454073
1768.0,0.00455158
1769.0,0.00457613
1770.0,0.00460069
1770.709595,0.00461816
1771.0,0.00462527
1772.0,0.00464974
1773.0,0.00467421
1773.861206,0.0046953
1774.0,0.00469868
1775.0,0.00472303
1776.0,0.00474739
1777.0,0.00477176
1777.012817,0.00477207
1778.0,0.00479597
1779.0,0.00482019
1780.0,0.00484443
1780.164429,0.00484842
1781.0,0.00486854
1782.0,0.00489261
1783.0,0.00491671
1783.31604,0.00492432
1784.0,0.00494068
1785.0,0.00496459
1786.0,0.00498853
1786.467651,0.00499972
1787.0,0.00501236
1788.0,0.0050361
1789.0,0.00505987
1789.619263,0.00507458
1790.0,0.00508353
1791.0,0.00510709
1792.0,0.00513067
1792.770874,0.00514886
1793.0,0.00515422
1794.0,0.00517758
1795.0,0.00520097
1795.922485,0.00522255
1796.0,0.00522435
1797.0,0.00524754
1798.0,0.00527075
1799.0,0.00529398
1799.074097,0.0052957
1800.0,0.00531697
1801.0,0.00533794
1802.0,0.00535892
1802.225708,0.00536366
1803.0,0.00537972
1804.0,0.00540046
1805.0,0.00542121
1805.377319,0.00542904
1806.0,0.00544183
1807.0,0.00546236
1808.0,0.00548291
1808.528931,0.00549378
1809.0,0.00550335
1810.0,0.00552366
1811.0,0.00554403
1811.680542,0.0055579
1812.0,0.00556434
1813.0,0.0055845
1814.0,0.00560466
1814.832153,0.00562139
1815.0,0.00562473
1816.0,0.00564459
1817.0,0.00566447
1817.983765,0.00568407
1818.0,0.00568439
1819.0,0.00570415
1820.0,0.00572391
1821.0,0.00574375
1821.135376,0.00574644
1822.0,0.0057634
1823.0,0.00578303
1824.0,0.00580268
1824.286987,0.00580833
1825.0,0.00582221
1826.0,0.0058417
1827.0,0.00586122
1827.438599,0.00586979
1828.0,0.00588064
1829.0,0.00589999
1830.0,0.00591937
1830.59021,0.00593085
1831.0,0.00593873
1832.0,0.00595796
1833.0,0.00597724
1833.741821,0.00599155
1834.0,0.00599649
1835.0,0.00601563
1836.0,0.00603479
1836.893433,0.00605193
1837.0,0.00605396
1838.0,0.00607298
1839.0,0.00609204
1840.0,0.00611112
1840.045044,0.00611198
1841.0,0.00613005
1842.0,0.006149
1843.0,0.00616798
1843.196655,0.00617171
1844.0,0.00618683
1845.0,0.00620568
1846.0,0.00622455
1846.348267,0.00623113
1847.0,0.00624333
1848.0,0.00626208
1849.0,0.00628085
1849.499878,0.00629025
1850.0,0.00629955
1851.0,0.0063182
1852.0,0.00633687
1852.651489,0.00634906
1853.0,0.00635552
1854.0,0.00637407
1855.0,0.00639265
1855.803101,0.00640759
1856.0,0.00641122
1857.0,0.00642967
1858.0,0.00644815
1858.954712,0.00646582
1859.0,0.00646665
1860.0,0.00648498
1861.0,0.00650338
1862.0,0.00652182
1862.106323,0.00652378
1863.0,0.00654011
1864.0,0.0065584
1865.0,0.00657673
1865.257935,0.00658146
1866.0,0.00659495
1867.0,0.00661316
1868.0,0.00663139
1868.409546,0.00663887
1869.0,0.00664954
1870.0,0.00666765
1871.0,0.00668581
1871.561157,0.00669602
1872.0,0.00670392
1873.0,0.00672195
1874.0,0.00674001
1874.712769,0.0067529
1875.0,0.00675805
1876.0,0.006776
1877.0,0.00679398
1877.86438,0.00680954
1878.0,0.00681196
1879.0,0.00682982
1880.0,0.0068477
1881.0,0.00686564
1881.015991,0.00686593
1882.0,0.00688343
1883.0,0.00690124
1884.0,0.00691908
1884.167603,0.00692207
1885.0,0.00693681
1886.0,0.00695455
1887.0,0.0069723
1887.319214,0.00697798
1888.0,0.00698998
1889.0,0.00700763
1890.0,0.00702531
1890.470825,0.00703365
1891.0,0.00704295
1892.0,0.00706053
1893.0,0.00707813
1893.622437,0.0070891
1894.0,0.0070957
1895.0,0.0071132
1896.0,0.00713073
1896.774048,0.00714431
1897.0,0.00714825
1898.0,0.00716568
1899.0,0.00718314
1899.925659,0.00719931
1900.0,0.0072006
1901.0,0.00721791
1902.0,0.00723525
1903.0,0.0072526
1903.077271,0.00725394
1904.0,0.00726986
1905.0,0.00728711
1906.0,0.0073044
1906.228882,0.00730836
1907.0,0.00732162
1908.0,0.00733883
1909.0,0.00735605
1909.380493,0.00736261
1910.0,0.00737323
1911.0,0.0073904
1912.0,0.00740759
1912.532104,0.00741675
1913.0,0.00742476
1914.0,0.00744191
1915.0,0.00745906
1915.683716,0.00747081
1916.0,0.00747622
1917.0,0.00749336
1918.0,0.00751051
1918.835327,0.00752486
1919.0,0.00752768
1920.0,0.0075448
1921.0,0.00756196
1921.986938,0.00757893
1922.0,0.00757915
1923.0,0.00759631
1924.0,0.00761349
1925.0,0.00763068
1925.13855,0.00763306
1926.0,0.00764788
1927.0,0.00766509
1928.0,0.00768232
1928.290161,0.00768732
1929.0,0.00769955
1930.0,0.00771681
1931.0,0.0077341
1931.441772,0.00774174
1932.0,0.0077514
1933.0,0.00776872
1934.0,0.00778606
1934.593384,0.00779636
1935.0,0.00780344
1936.0,0.00782083
1937.0,0.00783814
1937.744995,0.00785103
1938.0,0.00785546
1939.0,0.00787281
1940.0,0.0078903
1940.896606,0.00790606
1941.0,0.00790788
1942.0,0.00792553
1943.0,0.0079432
1944.0,0.00796088
1944.048218,0.00796173
1945.0,0.00797865
1946.0,0.00799643
1947.0,0.00801423
1947.199829,0.00801779
1948.0,0.00803212
1949.0,0.00805003
1950.0,0.00806797
1950.35144,0.00807428
1951.0,0.00808598
1952.0,0.00810404
1953.0,0.00812212
1953.503052,0.00813122
1954.0,0.00814027
1955.0,0.00815849
1956.0,0.00817673
1956.654663,0.00818867
1957.0,0.00819502
1958.0,0.00821341
1959.0,0.00823182
1959.806274,0.00824668
1960.0,0.00825028
1961.0,0.00826885
1962.0,0.00828745
1962.957886,0.00830527
1963.0,0.00830606
1964.0,0.00832484
1965.0,0.00834363
1966.0,0.00836244
1966.109497,0.0083645
1967.0,0.0083814
1968.0,0.0084004
1969.0,0.00841941
1969.261108,0.00842438
1970.0,0.00843857
1971.0,0.0084578
1972.0,0.00847703
1972.412598,0.00848497
1973.0,0.0084964
1974.0,0.00851585
1975.0,0.00853532
1975.564209,0.00854631
1976.0,0.00855489
1977.0,0.00857459
1978.0,0.00859431
1978.71582,0.00860844
1979.0,0.00861411
1980.0,0.00863407
1981.0,0.00865404
1981.867432,0.00867137
1982.0,0.00867406
1983.0,0.00869428
1984.0,0.00871453
1985.0,0.00873479
1985.019043,0.00873518
1986.0,0.0087553
1987.0,0.00877582
1988.0,0.00879637
1988.170654,0.00879988
1989.0,0.00881714
1990.0,0.00883796
1991.0,0.00885879
1991.322266,0.0088655
1992.0,0.00887982
1993.0,0.00890094
1994.0,0.00892208
1994.473877,0.00893211
1995.0,0.00894339
1996.0,0.00896483
1997.0,0.0089863
1997.625488,0.00899972
1998.0,0.00900784
1999.0,0.00902953
2000.0,0.00905123
2000.7771,0.00906858
2001.0,0.00907357
2002.0,0.00909595
2003.0,0.00911835
2003.928711,0.00913916
2004.0,0.00914078
2005.0,0.00916351
2006.0,0.00918627
2007.0,0.00920904
2007.080322,0.00921087
2008.0,0.00923212
2009.0,0.00925525
2010.0,0.00927838
2010.231934,0.00928375
2011.0,0.00930179
2012.0,0.00932528
2013.0,0.0093488
2013.383545,0.00935783
2014.0,0.00937256
2015.0,0.00939644
2016.0,0.00942036
2016.535156,0.00943316
2017.0,0.00944444
2018.0,0.00946871
2019.0,0.00949301
2019.686768,0.0095097
2020.0,0.00951743
2021.0,0.00954205
2022.0,0.00956669
2022.838379,0.00958736
2023.0,0.00959139
2024.0,0.00961633
2025.0,0.00964128
2025.98999,0.00966601
2026.0,0.00966626
2027.0,0.00969147
2028.0,0.0097167
2029.0,0.00974195
2029.141602,0.00974552
2030.0,0.0097674
2031.0,0.00979285
2032.0,0.00981832
2032.293213,0.00982579
2033.0,0.00984392
2034.0,0.00986959
2035.0,0.00989527
2035.444824,0.0099067
2036.0,0.00992103
2037.0,0.00994686
2038.0,0.00997271
2038.596436,0.00998813
2039.0,0.00999862
2040.0,0.0100246
2041.0,0.0100506
2041.748047,0.01007
2042.0,0.0100765
2043.0,0.0101026
2044.0,0.0101287
2044.899658,0.0101521
2045.0,0.0101548
2046.0,0.0101809
2047.0,0.010207
2048.0,0.0102331
2048.05127,0.0102345
2049.0,0.0102593
2050.0,0.0102855
2051.0,0.0103116
2051.202881,0.0103169
2052.0,0.0103377
2053.0,0.0103639
2054.0,0.01039
2054.354492,0.0103993
2055.0,0.0104161
2056.0,0.0104422
2057.0,0.0104684
2057.506104,0.0104816
2058.0,0.0104944
2059.0,0.0105204
2060.0,0.0105463
2060.657715,0.0105634
2061.0,0.0105722
2062.0,0.0105978
2063.0,0.0106234
2063.809326,0.0106441
2064.0,0.0106489
2065.0,0.0106743
2066.0,0.0106997
2066.960938,0.0107242
2067.0,0.0107252
2068.0,0.0107504
2069.0,0.0107756
2070.0,0.0108009
2070.112549,0.0108037
2071.0,0.0108259
2072.0,0.0108509
2073.0,0.0108759
2073.26416,0.0108825
2074.0,0.0109008
2075.0,0.0109255
2076.0,0.0109503
2076.415771,0.0109606
2077.0,0.0109749
2078.0,0.0109994
2079.0,0.0110239
2079.567383,0.0110378
2080.0,0.0110483
2081.0,0.0110725
2082.0,0.0110967
2082.718994,0.0111141
2083.0,0.0111208
2084.0,0.0111447
2085.0,0.0111687
2085.870605,0.0111895
2086.0,0.0111926
2087.0,0.0112162
2088.0,0.0112398
2089.0,0.0112635
2089.022217,0.011264
2090.0,0.0112869
2091.0,0.0113102
2092.0,0.0113336
2092.173828,0.0113377
2093.0,0.0113567
2094.0,0.0113798
2095.0,0.0114029
2095.325439,0.0114105
2096.0,0.0114259
2097.0,0.0114487
2098.0,0.0114716
2098.477051,0.0114825
2099.0,0.0114944
2100.0,0.011517
2101.0,0.011543
2101.628662,0.0115593
2102.0,0.0115688
2103.0,0.0115946
2104.0,0.0116204
2104.780273,0.0116406
2105.0,0.0116462
2106.0,0.0116718
2107.0,0.0116974
2107.931885,0.0117213
2108.0,0.011723
2109.0,0.0117485
2110.0,0.011774
2111.0,0.0117993
2111.083496,0.0118015
2112.0,0.0118246
2113.0,0.0118499
2114.0,0.0118752
2114.235107,0.0118811
2115.0,0.0119003
2116.0,0.0119254
2117.0,0.0119505
2117.386719,0.0119602
2118.0,0.0119755
2119.0,0.0120005
2120.0,0.0120255
2120.53833,0.0120389
2121.0,0.0120503
2122.0,0.0120751
2123.0,0.0121
2123.689941,0.0121171
2124.0,0.0121247
2125.0,0.0121494
2126.0,0.0121741
2126.841553,0.0121949
2127.0,0.0121987
2128.0,0.0122233
2129.0,0.0122478
2129.993164,0.0122722
2130.0,0.0122724
2131.0,0.0122968
2132.0,0.0123212
2133.0,0.0123456
2133.144775,0.0123491
2134.0,0.0123699
2135.0,0.0123941
2136.0,0.0124184
2136.296387,0.0124256
2137.0,0.0124425
2138.0,0.0124666
2139.0,0.0124907
2139.447998,0.0125016
2140.0,0.0125148
2141.0,0.0125387
2142.0,0.0125626
2142.599609,0.012577
2143.0,0.0125865
2144.0,0.0126102
2145.0,0.0126339
2145.751221,0.0126518
2146.0,0.0126576
2147.0,0.0126811
2148.0,0.0127047
2148.902832,0.0127259
2149.0,0.0127282
2150.0,0.0127517
2151.0,0.0127749
2152.0,0.0127982
2152.054443,0.0127994
2153.0,0.0128212
2154.0,0.0128443
2155.0,0.0128674
2155.206055,0.0128722
2156.0,0.0128903
2157.0,0.0129131
2158.0,0.012936
2158.357666,0.0129442
2159.0,0.0129587
2160.0,0.0129814
2161.0,0.0130039
2161.509277,0.0130154
2162.0,0.0130263
2163.0,0.0130486
2164.0,0.0130709
2164.660889,0.0130857
2165.0,0.0130931
2166.0,0.0131152
2167.0,0.0131372
2167.8125,0.0131551
2168.0,0.0131592
2169.0,0.013181
2170.0,0.0132029
2170.964111,0.0132236
2171.0,0.0132244
2172.0,0.0132458
2173.0,0.0132673
2174.0,0.0132887
2174.115723,0.0132912
2175.0,0.0133098
2176.0,0.0133309
2177.0,0.013352
2177.267334,0.0133577
2178.0,0.0133729
2179.0,0.0133937
2180.0,0.0134145
2180.418945,0.013423
2181.0,0.0134347
2182.0,0.0134548
2183.0,0.0134749
2183.570557,0.0134871
2184.0,0.0134961
2185.0,0.013517
2186.0,0.0135379
2186.722168,0.013553
2187.0,0.0135587
2188.0,0.0135793
2189.0,0.0135998
2189.873779,0.0136178
2190.0,0.0136204
2191.0,0.0136405
2192.0,0.0136607
2193.0,0.0136809
2193.025391,0.0136814
2194.0,0.0137007
2195.0,0.0137205
2196.0,0.0137403
2196.177002,0.0137438
2197.0,0.0137598
2198.0,0.0137793
2199.0,0.0137988
2199.328613,0.0138052
2200.0,0.0138182
2201.0,0.0138364
2202.0,0.0138546
2202.480225,0.0138633
2203.0,0.0138727
2204.0,0.0138906
2205.0,0.0139086
2205.631836,0.0139199
2206.0,0.0139264
2207.0,0.0139441
2208.0,0.0139618
2208.783447,0.0139756
2209.0,0.0139794
2210.0,0.013997
2211.0,0.0140142
2211.935059,0.0140304
2212.0,0.0140315
2213.0,0.0140486
2214.0,0.0140657
2215.0,0.0140828
2215.08667,0.0140843
2216.0,0.0140997
2217.0,0.0141166
2218.0,0.0141335
2218.238281,0.0141375
2219.0,0.0141503
2220.0,0.0141671
2221.0,0.0141836
2221.389893,0.01419
2222.0,0.0142
2223.0,0.0142164
2224.0,0.0142329
2224.541504,0.0142418
2225.0,0.0142493
2226.0,0.0142655
2227.0,0.0142818
2227.693115,0.0142931
2228.0,0.014298
2229.0,0.0143142
2230.0,0.0143304
2230.844727,0.0143438
2231.0,0.0143462
2232.0,0.0143621
2233.0,0.0143781
2233.996338,0.014394
2234.0,0.0143941
2235.0,0.0144098
2236.0,0.0144256
2237.0,0.0144415
2237.147949,0.0144438
2238.0,0.0144572
2239.0,0.0144729
2240.0,0.0144887
2240.299561,0.0144933
2241.0,0.0145042
2242.0,0.0145198
2243.0,0.0145354
2243.451172,0.0145424
2244.0,0.0145509
2245.0,0.0145664
2246.0,0.0145819
2246.602783,0.0145912
2247.0,0.0145973
2248.0,0.0146126
2249.0,0.014628
2249.754395,0.0146396
2250.0,0.0146434
2251.0,0.0146586
2252.0,0.0146738
2252.906006,0.0146875
2253.0,0.014689
2254.0,0.014704
2255.0,0.014719
2256.0,0.0147341
2256.057617,0.014735
2257.0,0.0147489
2258.0,0.0147638
2259.0,0.0147787
2259.209229,0.0147818
2260.0,0.0147936
2261.0,0.0148081
2262.0,0.0148227
2262.36084,0.0148279
2263.0,0.0148371
2264.0,0.0148516
2265.0,0.014866
2265.512451,0.0148734
2266.0,0.0148803
2267.0,0.0148945
2268.0,0.0149086
2268.664062,0.0149181
2269.0,0.0149228
2270.0,0.014937
2271.0,0.0149507
2271.815674,0.0149619
2272.0,0.0149644
2273.0,0.014978
2274.0,0.0149916
2274.967285,0.0150048
2275.0,0.0150052
2276.0,0.0150185
2277.0,0.0150319
2278.0,0.0150452
2278.118896,0.0150468
2279.0,0.0150583
2280.0,0.0150715
2281.0,0.0150842
2281.270508,0.0150877
2282.0,0.0150969
2283.0,0.0151095
2284.0,0.0151222
2284.422119,0.0151275
2285.0,0.0151346
2286.0,0.0151468
2287.0,0.0151591
2287.57373,0.0151661
2288.0,0.0151712
2289.0,0.0151832
2290.0,0.0151952
2290.725342,0.0152036
2291.0,0.0152067
2292.0,0.0152182
2293.0,0.0152296
2293.876953,0.0152397
2294.0,0.015241
2295.0,0.0152521
2296.0,0.0152631
2297.0,0.0152741
2297.028564,0.0152744
2298.0,0.0152847
2299.0,0.0152953
2300.0,0.0153059
2300.180176,0.0153073
2301.0,0.0153136
2302.0,0.0153212
2303.0,0.0153288
2303.331787,0.0153313
2304.0,0.015336
2305.0,0.015343
2306.0,0.0153499
2306.483398,0.0153533
2307.0,0.0153567
2308.0,0.0153631
2309.0,0.0153696
2309.63501,0.0153738
2310.0,0.0153761
2311.0,0.0153821
2312.0,0.0153882
2312.786621,0.0153929
2313.0,0.0153941
2314.0,0.0153998
2315.0,0.0154055
2315.938232,0.0154109
2316.0,0.0154112
2317.0,0.0154165
2318.0,0.0154219
2319.0,0.0154272
2319.089844,0.0154277
2320.0,0.0154325
2321.0,0.0154374
2322.0,0.0154424
2322.241455,0.0154435
2323.0,0.0154471
2324.0,0.0154519
2325.0,0.0154566
2325.393066,0.0154585
2326.0,0.0154612
2327.0,0.0154656
2328.0,0.0154701
2328.544678,0.0154725
2329.0,0.0154745
2330.0,0.015479
2331.0,0.0154831
2331.696289,0.0154859
2332.0,0.0154871
2333.0,0.0154912
2334.0,0.0154952
2334.8479,0.0154986
2335.0,0.0154992
2336.0,0.0155031
2337.0,0.0155069
2337.999512,0.0155108
2338.0,0.0155108
2339.0,0.0155146
2340.0,0.0155184
2341.0,0.0155219
2341.150879,0.0155225
2342.0,0.0155255
2343.0,0.0155291
2344.0,0.0155327
2344.302734,0.0155338
2345.0,0.0155362
2346.0,0.0155397
2347.0,0.0155433
2347.454102,0.0155448
2348.0,0.0155468
2349.0,0.0155503
2350.0,0.0155538
2350.605957,0.0155557
2351.0,0.015557
2352.0,0.0155605
2353.0,0.0155639
2353.757324,0.0155665
2354.0,0.0155673
2355.0,0.0155707
2356.0,0.0155741
2356.90918,0.0155772
2357.0,0.0155775
2358.0,0.0155809
2359.0,0.0155843
2360.0,0.0155877
2360.060547,0.0155879
2361.0,0.015591
2362.0,0.0155944
2363.0,0.0155978
2363.212402,0.0155985
2364.0,0.0156011
2365.0,0.0156045
2366.0,0.0156078
2366.36377,0.015609
2367.0,0.0156112
2368.0,0.0156145
2369.0,0.0156178
2369.515625,0.0156195
2370.0,0.0156212
2371.0,0.0156245
2372.0,0.0156277
2372.666992,0.0156299
2373.0,0.015631
2374.0,0.0156343
2375.0,0.0156375
2375.818848,0.0156402
2376.0,0.0156408
2377.0,0.015644
2378.0,0.0156472
2378.970215,0.0156503
2379.0,0.0156504
2380.0,0.0156537
2381.0,0.0156569
2382.0,0.0156599
2382.12207,0.0156603
2383.0,0.0156631
2384.0,0.0156662
2385.0,0.0156693
2385.273438,0.0156702
2386.0,0.0156724
2387.0,0.0156755
2388.0,0.0156785
2388.425293,0.0156798
2389.0,0.0156816
2390.0,0.0156847
2391.0,0.0156876
2391.57666,0.0156893
2392.0,0.0156906
2393.0,0.0156935
2394.0,0.0156964
2394.728516,0.0156986
2395.0,0.0156994
2396.0,0.0157023
2397.0,0.0157051
2397.879883,0.0157076
2398.0,0.015708
2399.0,0.0157109
2400.0,0.0157139
2401.0,0.0157201
2401.031738,0.0157203
2402.0,0.0157266
2403.0,0.0157331
2404.0,0.0157396
2404.183105,0.0157408
2405.0,0.015746
2406.0,0.0157524
2407.0,0.0157588
2407.334961,0.015761
2408.0,0.0157652
2409.0,0.0157716
2410.0,0.0157779
2410.486328,0.0157809
2411.0,0.0157841
2412.0,0.0157904
2413.0,0.0157966
