Wavelength,Transmission
1193.901245,4.46816e-06
1195.0,4.87555e-06
1195.072876,4.90299e-06
1196.244507,5.34767e-06
1197.416016,5.80255e-06
1198.587646,6.26836e-06
1199.759277,6.74594e-06
1200.0,6.84624e-06
1200.930786,7.48642e-06
1202.102417,8.30998e-06
1203.274048,9.15418e-06
1204.445557,1.00205e-05
1205.0,1.04389e-05
1205.617188,1.09099e-05
1206.788818,1.18228e-05
1207.960449,1.27598e-05
1209.131958,1.37213e-05
1210.0,1.44496e-05
1210.303589,1.48945e-05
1211.47522,1.66393e-05
1212.646729,1.8429e-05
1213.818359,2.02645e-05
1214.98999,2.21461e-05
1215.0,2.21623e-05
1216.161499,2.40736e-05
1217.33313,2.60476e-05
1218.504761,2.80677e-05
1219.676392,3.01338e-05
1220.0,3.07139e-05
1220.8479,3.33575e-05
1222.019531,3.70854e-05
1223.191162,4.08972e-05
1224.362671,4.47915e-05
1225.0,4.69438e-05
1225.534302,4.87678e-05
1226.705933,5.28241e-05
1227.877441,5.69582e-05
1229.049072,6.11687e-05
1230.0,6.46455e-05
1230.220703,6.60586e-05
1231.392334,7.36717e-05
1232.563843,8.14223e-05
1233.735474,8.9307e-05
1234.907104,9.73194e-05
1235.0,9.7959e-05
1236.078613,0.000105452
1237.250244,0.000113701
1238.421875,0.000122058
1239.593384,0.000130514
1240.0,0.000133486
1240.765015,0.000143416
1241.936646,0.000158804
1243.108154,0.000174369
1244.279785,0.000190097
1245.0,0.00019983
1245.451416,0.00020597
1246.623047,0.000221969
1247.794556,0.000238079
1248.966187,0.000254292
1250.0,0.000268682
1250.137817,0.000270696
1251.309326,0.000287947
1252.480957,0.000305262
1253.652588,0.000322625
1254.824219,0.000340026
1255.0,0.000342633
1255.995728,0.000357451
1257.167358,0.000374894
1258.338989,0.000392343
1259.510498,0.000409786
1260.0,0.000417103
1260.682129,0.000369168
1261.85376,0.000286511
1263.025269,0.000203436
1264.196899,0.000119984
1265.0,6.25947e-05
1265.36853,6.83808e-05
1266.540039,8.67952e-05
1267.71167,0.000105243
1268.883301,0.000123711
1270.0,0.000141326
1270.054932,0.000144693
1271.22644,0.000216564
1272.398071,0.00028849
1273.569702,0.00036043
1274.741211,0.000432346
1275.0,0.000448222
1275.912842,0.000793415
1277.084473,0.00123633
1278.256104,0.00167894
1279.427612,0.00212105
1280.0,0.00233692
1280.599243,0.00285078
1281.770874,0.00385456
1282.942383,0.00485655
1284.114014,0.00585669
1285.0,0.00661148
1285.285645,0.00690791
1286.457153,0.0081216
1287.628784,0.00933232
1288.800415,0.0105397
1289.971924,0.0117434
1290.0,0.0117722
1291.143555,0.0127193
1292.315186,0.0136862
1293.486816,0.0146494
1294.658325,0.0156087
1295.0,0.0158876
1295.829956,0.0163261
1297.001587,0.0169424
1298.173096,0.0175552
1299.344727,0.0181647
1300.0,0.0185041
1300.516357,0.0186521
1301.687988,0.018986
1302.859497,0.0193168
1304.031128,0.0196447
1305.0,0.0199134
1305.202759,0.0199484
1306.374268,0.0201484
1307.545898,0.0203458
1308.717529,0.0205405
1309.889038,0.0207326
1310.0,0.0207506
1311.060669,0.0208534
1312.2323,0.0209647
1313.403809,0.0210736
1314.575439,0.0211802
1315.0,0.0212181
1315.74707,0.0212483
1316.918701,0.0212937
1318.09021,0.021337
1319.261841,0.0213783
1320.0,0.021403
1320.433472,0.0214036
1321.60498,0.0214032
1322.776611,0.021401
1323.948242,0.021397
1325.0,0.0213919
1325.119873,0.0213892
1326.291382,0.0213612
1327.463013,0.0213316
1328.634644,0.0213004
1329.806152,0.0212675
1330.0,0.0212618
1330.977783,0.0212244
1332.149414,0.0211781
1333.320923,0.0211304
1334.492554,0.0210812
1335.0,0.0210593
1335.664185,0.021027
1336.835693,0.0209688
1338.007324,0.0209094
1339.178955,0.0208489
1340.0,0.0208057
1340.350586,0.0207864
1341.522095,0.0207209
1342.693726,0.0206543
1343.865356,0.0205869
1345.0,0.0205207
1345.036865,0.0205185
1346.208496,0.0204486
1347.380127,0.020378
1348.551758,0.0203066
1349.723267,0.0202345
1350.0,0.0202173
1350.894897,0.0201512
1352.066406,0.0200642
1353.238037,0.0199767
1354.409668,0.0198888
1355.0,0.0198444
1355.581299,0.0198002
1356.752808,0.0197108
1357.924438,0.0196212
1359.096069,0.0195314
1360.0,0.019462
1360.267578,0.0194414
1361.439209,0.0193508
1362.61084,0.0192602
1363.782471,0.0191697
1364.953979,0.0190792
1365.0,0.0190757
1366.12561,0.0189883
1367.297241,0.0188976
1368.46875,0.0188071
1369.640381,0.0187168
1370.0,0.0186892
1370.812012,0.0186265
1371.983643,0.0185364
1373.155151,0.0184467
1374.326782,0.0183575
1375.0,0.0183064
1375.498291,0.0182684
1376.669922,0.0181795
1377.841553,0.018091
1379.013184,0.0180028
1380.0,0.0179289
1380.184692,0.017915
1381.356323,0.0178271
1382.527954,0.0177394
1383.699463,0.0176522
1384.871094,0.0175652
1385.0,0.0175556
1386.042725,0.017478
1387.214355,0.0173911
1388.385864,0.0173044
1389.557495,0.017218
1390.0,0.0171854
1390.729126,0.0171315
1391.900635,0.017045
1393.072266,0.0169587
1394.243896,0.0168726
1395.0,0.0168171
1395.415405,0.0167864
1396.587036,0.0167002
1397.758667,0.016614
1398.930176,0.016528
1400.0,0.0164495
1400.101807,0.0164425
1401.273438,0.0163621
1402.445068,0.0162818
1403.616577,0.0162014
1404.788208,0.0161211
1405.0,0.0161066
1405.959839,0.0160404
1407.131348,0.0159596
1408.302979,0.0158788
1409.474609,0.0157979
1410.0,0.0157617
1410.64624,0.0157167
1411.817749,0.0156353
1412.98938,0.0155537
1414.160889,0.0154721
1415.0,0.0154136
1415.33252,0.0153903
1416.50415,0.015308
1417.675781,0.0152257
1418.847412,0.0151432
1420.0,0.0150621
1420.018921,0.0150607
1421.190552,0.0149778
1422.362061,0.014895
1423.533691,0.0148121
1424.705322,0.0147293
1425.0,0.0147085
1425.876953,0.0146463
1427.048462,0.0145634
1428.220093,0.0144806
1429.391724,0.0143979
1430.0,0.0143552
1430.563232,0.0143152
1431.734863,0.0142326
1432.906494,0.0141503
1434.078125,0.0140681
1435.0,0.0140037
1435.249634,0.0139862
1436.421265,0.0139044
1437.592773,0.0138229
1438.764404,0.0137417
1439.936035,0.013661
1440.0,0.0136566
1441.107666,0.0135807
1442.279297,0.0135009
1443.450806,0.0134216
1444.622437,0.0133427
1445.0,0.0133174
1445.793945,0.0132649
1446.965576,0.0131878
1448.137207,0.0131112
1449.308838,0.0130352
1450.0,0.0129909
1450.480347,0.0129599
1451.651978,0.0128852
1452.823608,0.0128112
1453.995117,0.0127377
1455.0,0.0126753
1455.166748,0.0126649
1456.338379,0.0125926
1457.51001,0.0125209
1458.681519,0.01245
1459.853149,0.0123797
1460.0,0.012371
1461.024658,0.0123099
1462.196289,0.0122406
1463.36792,0.0121719
1464.539551,0.0121038
1465.0,0.0120771
1465.711182,0.0120359
1466.88269,0.0119684
1468.054321,0.0119013
1469.22583,0.0118345
1470.0,0.0117907
1470.397461,0.011768
1471.569092,0.0117015
1472.740723,0.0116353
1473.912231,0.0115692
1475.0,0.011508
1475.083862,0.0115033
1476.255493,0.0114372
1477.427002,0.0113713
1478.598633,0.0113053
1479.770264,0.0112392
1480.0,0.0112264
1480.941895,0.011173
1482.113403,0.0111065
1483.285034,0.01104
1484.456543,0.0109732
1485.0,0.0109421
1485.628174,0.0109061
1486.799805,0.0108388
1487.971436,0.0107711
1489.142944,0.010703
1490.0,0.0106531
1490.314575,0.0106344
1491.486206,0.0105649
1492.657715,0.0104949
1493.829346,0.0104244
1495.0,0.0103535
1495.000977,0.0103534
1496.172607,0.0102817
1497.344116,0.0102094
1498.515747,0.0101365
1499.687378,0.0100629
1500.0,0.0100432
1500.858887,0.00999644
1502.030518,0.00993205
1503.202148,0.00986691
1504.373779,0.00980109
1505.0,0.00976558
1505.545288,0.00973461
1506.716919,0.00966751
1507.888428,0.00959996
1509.060059,0.00953202
1510.0,0.00947736
1510.231689,0.00946374
1511.40332,0.0093951
1512.574829,0.0093263
1513.74646,0.0092574
1514.918091,0.00918846
1515.0,0.00918364
1516.0896,0.00911945
1517.26123,0.00905053
1518.432861,0.0089818
1519.604492,0.00891333
1520.0,0.00889041
1520.776001,0.0088451
1521.947632,0.00877722
1523.119263,0.0087098
1524.290771,0.00864291
1525.0,0.00860272
1525.462402,0.00857647
1526.634033,0.00851046
1527.805664,0.00844492
1528.977173,0.00837985
1530.0,0.00832344
1530.148804,0.00831518
1531.320312,0.00825078
1532.491943,0.00818678
1533.663574,0.00812317
1534.835205,0.00805993
1535.0,0.00805108
1536.006714,0.00799544
1537.178345,0.00793103
1538.349976,0.00786696
1539.521484,0.00780321
1540.0,0.00777729
1540.693115,0.00773965
1541.864746,0.0076763
1543.036377,0.00761319
1544.207886,0.0075503
1545.0,0.0075079
1545.379517,0.00748756
1546.551147,0.00742493
1547.722656,0.00736246
1548.894287,0.00730012
1550.0,0.00724139
1550.065918,0.00723766
1551.237549,0.0071714
1552.409058,0.00710529
1553.580688,0.00703931
1554.752197,0.00697344
1555.0,0.00695952
1555.923828,0.00690759
1557.095459,0.0068418
1558.26709,0.00677606
1559.438599,0.00671036
1560.0,0.00667882
1560.610229,0.00664464
1561.78186,0.00657887
1562.953369,0.0065131
1564.125,0.00644729
1565.0,0.00639809
1565.296631,0.0063814
1566.468262,0.0063154
1567.639771,0.00624936
1568.811401,0.00618334
1569.98291,0.00611738
1570.0,0.00611642
1571.154541,0.00605146
1572.326172,0.00598571
1573.497803,0.00592017
1574.669434,0.00585489
1575.0,0.00583655
1575.840942,0.00578989
1577.012573,0.00572523
1578.184082,0.00566099
1579.355713,0.0055972
1580.0,0.00556229
1580.527344,0.00553426
1581.698975,0.00547228
1582.870483,0.00541089
1584.042114,0.00535015
1585.0,0.00530106
1585.213745,0.00529015
1586.385254,0.00523105
1587.556885,0.00517272
1588.728516,0.00511518
1589.900146,0.00505845
1590.0,0.00505364
1591.071655,0.0050025
1592.243286,0.00494739
1593.414795,0.00489314
1594.586426,0.00483977
1595.0,0.00482123
1595.758057,0.00478725
1596.929688,0.00473563
1598.101318,0.00468494
1599.272827,0.0046352
1600.0,0.00460478
1600.444458,0.00458758
1601.615967,0.00454281
1602.787598,0.00449897
1603.959229,0.00445608
1605.0,0.00441883
1605.130859,0.00441415
1606.302368,0.00437317
1607.473999,0.00433318
1608.64563,0.00429422
1609.817139,0.00425627
1610.0,0.00425042
1610.98877,0.00421927
1612.1604,0.00418324
1613.332031,0.00414816
1614.50354,0.00411403
1615.0,0.00409996
1615.675171,0.00408079
1616.84668,0.00404845
1618.018311,0.00401699
1619.189941,0.00398639
1620.0,0.00396569
1620.361572,0.00395664
1621.533203,0.00392769
1622.704712,0.00389957
1623.876343,0.00387224
1625.0,0.00384677
1625.047852,0.00384568
1626.219482,0.0038198
1627.391113,0.00379466
1628.562744,0.00377025
1629.734253,0.00374653
1630.0,0.00374117
1630.905884,0.00372337
1632.077515,0.00370078
1633.249023,0.00367872
1634.420654,0.00365713
1635.0,0.00364667
1635.592285,0.00363596
1636.763916,0.00361514
1637.935425,0.00359465
1639.107056,0.00357442
1640.0,0.00355904
1640.278564,0.00355441
1641.450195,0.00353453
1642.621826,0.00351476
1643.793457,0.00349505
1644.964966,0.00347535
1645.0,0.00347476
1646.136597,0.00345557
1647.308228,0.0034357
1648.479736,0.00341568
1649.651367,0.00339549
1650.0,0.00338928
1650.822998,0.00337416
1651.994629,0.00335228
1653.16626,0.0033303
1654.337769,0.00330824
1655.0,0.00329572
1655.509277,0.00328609
1656.680908,0.00326386
1657.852539,0.00324159
1659.02417,0.00321929
1660.0,0.0032006
1660.195801,0.00319696
1661.36731,0.00317462
1662.53894,0.00315229
1663.710449,0.00312998
1664.88208,0.0031077
1665.0,0.00310546
1666.053711,0.00308546
1667.225342,0.00306328
1668.396973,0.00304118
1669.568481,0.00301918
1670.0,0.00301097
1670.73999,0.00299659
1671.911621,0.00297374
1673.083252,0.00295099
1674.254883,0.00292836
1675.0,0.00291402
1675.426514,0.00290543
1676.598022,0.00288192
1677.769653,0.00285849
1678.941162,0.00283515
1680.0,0.00281408
1680.112793,0.00281188
1681.284424,0.00278866
1682.456055,0.00276549
1683.627686,0.00274236
1684.799194,0.00271926
1685.0,0.0027153
1685.970825,0.00269617
1687.142334,0.00267309
1688.313965,0.00265001
1689.485596,0.00262691
1690.0,0.00261667
1690.657227,0.00260438
1691.828857,0.00258226
1693.000366,0.00256008
1694.171875,0.00253783
1695.0,0.00252205
1695.343506,0.00251575
1696.515137,0.00249417
1697.686768,0.00247247
1698.858398,0.00245066
1700.0,0.00242931
1700.029907,0.00242876
1701.201538,0.00240685
1702.373047,0.00238487
1703.544678,0.00236281
1704.716309,0.0023407
1705.0,0.00233534
1705.887939,0.00231854
1707.05957,0.00229634
1708.231079,0.00227412
1709.40271,0.00225188
1710.0,0.00224048
1710.574219,0.00222963
1711.74585,0.00220739
1712.91748,0.00218517
1714.089111,0.00216297
1715.0,0.00214575
1715.260742,0.00214081
1716.432251,0.0021187
1717.60376,0.00209665
1718.775391,0.00207466
1719.947021,0.00205275
1720.0,0.00205176
1721.118652,0.00203094
1722.290283,0.00200922
1723.461792,0.00198761
1724.633423,0.00196612
1725.0,0.00143925
