Wavelength,Transmission
1640.0,0.000469518
1640.099976,0.000469906
1640.200073,0.000471395
1640.300049,0.000472882
1640.400146,0.000474369
1640.5,0.000475852
1640.599976,0.000477336
1640.700073,0.000478821
1640.799927,0.000480301
1640.900024,0.000481783
1641.0,0.000483263
1641.099976,0.000484741
1641.200073,0.000486221
1641.299927,0.000487696
1641.400024,0.000489173
1641.5,0.000490648
1641.599976,0.000492121
1641.700073,0.000493596
1641.800049,0.000495067
1641.900146,0.00049654
1642.0,0.000498008
1642.099976,0.000499476
1642.199951,0.000500944
1642.299927,0.000502411
1642.400024,0.000503878
1642.5,0.000505343
1642.599976,0.000506806
1642.700073,0.000508271
1642.800049,0.000509732
1642.900024,0.000511193
1643.0,0.000512653
1643.099976,0.000514112
1643.200073,0.000515571
1643.300049,0.000517028
1643.400024,0.000518483
1643.5,0.000519938
1643.599976,0.000521392
1643.699951,0.000522845
1643.799927,0.000524296
1643.899902,0.000525747
1644.0,0.000527199
1644.099976,0.000528647
1644.200073,0.000530097
1644.300049,0.000531544
1644.400024,0.00053299
1644.5,0.000534434
1644.599976,0.000535878
1644.700073,0.000537323
1644.800049,0.000538765
1644.899902,0.000540204
1645.0,0.000541646
1645.099976,0.000543084
1645.200073,0.000544524
1645.299927,0.000545959
1645.399902,0.000547395
1645.5,0.000548831
1645.599976,0.000550265
1645.700073,0.0005517
1645.800049,0.000553131
1645.900024,0.000554562
1646.000122,0.000555994
1646.099976,0.000557421
1646.200073,0.000558851
1646.299927,0.000560276
1646.399902,0.000561702
1646.5,0.000563129
1646.599976,0.000564553
1646.700073,0.000565978
1646.800049,0.0005674
1646.899902,0.000568819
1647.0,0.000570241
1647.099976,0.00057166
1647.200073,0.000573081
1647.300049,0.000574498
1647.400024,0.000575914
1647.5,0.00057733
1647.599976,0.000578744
1647.699951,0.000580157
1647.799927,0.00058157
1647.899902,0.000582981
1648.0,0.000584394
1648.099976,0.000585803
1648.200073,0.000587214
1648.300049,0.000588621
1648.400024,0.000590028
1648.5,0.000591434
1648.599976,0.000592838
1648.700073,0.000594244
1648.800049,0.000595647
1648.899902,0.000597047
1649.0,0.00059845
1649.099976,0.00059985
1649.200073,0.000601251
1649.299927,0.000602647
1649.399902,0.000604044
1649.5,0.000605442
1649.599976,0.000606837
1649.700073,0.000608234
1649.800049,0.000609627
1649.900024,0.000611019
1650.0,0.000612411
1650.000122,0.000612412
1650.099976,0.000613801
1650.200073,0.000615192
1650.300049,0.00061658
1650.399902,0.000617966
1650.5,0.000619354
1650.599976,0.00062074
1650.700073,0.000622126
1650.800049,0.00062351
1650.899902,0.000624891
1651.0,0.000626274
1651.099976,0.000627655
1651.199951,0.000629035
1651.300049,0.000630415
1651.400024,0.000631793
1651.500122,0.000633172
1651.599976,0.000634547
1651.699951,0.000635922
1651.799927,0.000637296
1651.899902,0.000638669
1652.0,0.000640043
1652.099976,0.000641415
1652.199951,0.000642785
1652.300049,0.000644157
1652.400024,0.000645525
1652.5,0.000646893
1652.599976,0.00064826
1652.699951,0.000649626
1652.800049,0.000650992
1652.900024,0.000652356
1653.0,0.000653719
1653.099976,0.000655081
1653.199951,0.000656443
1653.299927,0.000657803
1653.399902,0.000659162
1653.5,0.000660522
1653.599976,0.00066188
1653.699951,0.000663237
1653.800049,0.000664594
1653.900024,0.000665949
1654.000122,0.000667304
1654.099976,0.000668655
1654.199951,0.000670007
1654.300049,0.00067136
1654.400024,0.00067271
1654.5,0.000674059
1654.599976,0.000675408
1654.699951,0.000676755
1654.800049,0.000678103
1654.899902,0.000679447
1655.0,0.000680793
1655.099976,0.000682137
1655.199951,0.000683479
1655.300049,0.000684823
1655.400024,0.000686163
1655.500122,0.000687505
1655.600098,0.000688844
1655.699951,0.00069018
1655.800049,0.000691519
1655.899902,0.000692853
1656.0,0.00069419
1656.099976,0.000695525
1656.199951,0.000696858
1656.300049,0.000698192
1656.400024,0.000699524
1656.5,0.000700855
1656.599976,0.000702184
1656.699951,0.000703513
1656.800049,0.000704843
1656.900024,0.00070617
1657.000122,0.000707498
1657.099976,0.000708822
1657.199951,0.000710146
1657.299927,0.00071147
1657.399902,0.000712792
1657.5,0.000714116
1657.599976,0.000715436
1657.699951,0.000716756
1657.800049,0.000718077
1657.900024,0.000719395
1658.0,0.000720712
1658.099976,0.000722029
1658.199951,0.000723344
1658.300049,0.00072466
1658.400024,0.000725974
1658.5,0.000727287
1658.599976,0.000728599
1658.699951,0.00072991
1658.800049,0.000731221
1658.899902,0.000732529
1659.0,0.000733839
1659.099976,0.000735146
1659.199951,0.000736453
1659.300049,0.00073776
1659.400024,0.000739065
1659.5,0.000740369
1659.600098,0.000741673
1659.699951,0.000742974
1659.800049,0.000744277
1659.900024,0.000745577
1659.999878,0.000746875
1660.0,0.000746877
1660.099976,0.000748175
1660.199951,0.000749473
1660.300049,0.000750771
1660.400024,0.000752066
1660.5,0.000753361
1660.599976,0.000754655
1660.699951,0.000755948
1660.800049,0.000757242
1660.900024,0.000758533
1661.0,0.000759824
1661.100098,0.000761115
1661.199951,0.000762402
1661.300049,0.000763691
1661.399902,0.000764977
1661.499878,0.000766263
1661.599976,0.000767549
1661.699951,0.000768834
1661.800049,0.000770119
1661.900024,0.000771401
1662.0,0.000772683
1662.100098,0.000773966
1662.199951,0.000775244
1662.300049,0.000776525
1662.400024,0.000777803
1662.5,0.00077908
1662.600098,0.000780358
1662.699951,0.000781633
1662.800049,0.000782909
1662.900024,0.000784183
1662.999878,0.000785455
1663.099976,0.000786728
1663.199951,0.000788
1663.300049,0.000789272
1663.400024,0.000790541
1663.5,0.00079181
1663.600098,0.000793079
1663.700073,0.000794346
1663.800049,0.000795613
1663.900024,0.000796878
1664.0,0.000798142
1664.099976,0.000799406
1664.199951,0.000800669
1664.300049,0.000801933
1664.400024,0.000803194
1664.5,0.000804454
1664.599976,0.000805713
1664.699951,0.000806972
1664.800049,0.000808231
1664.900024,0.000809488
1665.0,0.000810744
1665.100098,0.000812
1665.200073,0.000813254
1665.300049,0.000814508
1665.400024,0.00081576
1665.499878,0.00081701
1665.599976,0.000818262
1665.699951,0.000819512
1665.800049,0.000820762
1665.900024,0.00082201
1666.0,0.000823258
1666.100098,0.000824506
1666.199951,0.00082575
1666.300049,0.000826996
1666.400024,0.00082824
1666.5,0.000829483
1666.600098,0.000830727
1666.700073,0.000831968
1666.799927,0.000833207
1666.900024,0.000834449
1666.999878,0.000835686
1667.099976,0.000836926
1667.199951,0.000838163
1667.299927,0.000839399
1667.400024,0.000840636
1667.5,0.000841871
1667.600098,0.000843107
1667.700073,0.000844339
1667.799927,0.00084557
1667.900024,0.000846803
1668.0,0.000848034
1668.100098,0.000849265
1668.199951,0.000850493
1668.299927,0.000851721
1668.400024,0.00085295
1668.5,0.000854176
1668.599976,0.000855402
1668.699951,0.000856626
1668.799927,0.000857851
1668.900024,0.000859075
1669.0,0.000860298
1669.100098,0.000861521
1669.200073,0.000862741
1669.300049,0.000863961
1669.400024,0.00086518
1669.5,0.000866399
1669.599976,0.000867616
1669.699951,0.000868833
1669.799927,0.000870048
1669.900024,0.000871265
1670.0,0.000872479
1670.100098,0.000873667
1670.199951,0.000874851
1670.299927,0.000876036
1670.400024,0.000877222
1670.5,0.000878405
1670.600098,0.000879589
1670.700073,0.00088077
1670.799927,0.000881949
1670.900024,0.00088313
1670.999878,0.000884307
1671.099976,0.000885487
1671.199951,0.000886664
1671.299927,0.00088784
1671.400024,0.000889016
1671.5,0.000890191
1671.600098,0.000891365
1671.700073,0.000892538
1671.799927,0.000893708
1671.900024,0.00089488
1672.0,0.00089605
1672.100098,0.000897221
1672.200073,0.000898389
1672.299927,0.000899555
1672.400024,0.000900723
1672.5,0.000901888
1672.599854,0.000903052
1672.699951,0.000904217
1672.799927,0.00090538
1672.900024,0.000906544
1673.0,0.000907705
1673.100098,0.000908867
1673.200073,0.000910026
1673.300049,0.000911185
1673.400024,0.000912343
1673.5,0.0009135
1673.599976,0.000914656
1673.699951,0.000915811
1673.799927,0.000916965
1673.900024,0.00091812
1674.0,0.000919273
1674.099976,0.000920425
1674.199951,0.000921576
1674.299927,0.000922726
1674.400024,0.000923876
1674.5,0.000925025
1674.599976,0.000926172
1674.700073,0.00092732
1674.800049,0.000928466
1674.900024,0.000929611
1675.0,0.000930755
1675.099854,0.000931868
1675.199951,0.000932983
1675.299927,0.000934095
1675.400024,0.000935207
1675.5,0.000936318
1675.599976,0.000937427
1675.700073,0.000938537
1675.799927,0.000939643
1675.900024,0.000940752
1676.0,0.000941857
1676.099976,0.000942962
1676.200073,0.000944068
1676.300049,0.000945171
1676.400024,0.000946273
1676.5,0.000947374
1676.599854,0.000948473
1676.699951,0.000949574
1676.799927,0.000950672
1676.900024,0.000951771
1677.0,0.000952868
1677.099976,0.000953964
1677.200073,0.00095506
1677.300049,0.000956154
1677.400024,0.000957247
1677.5,0.000958339
1677.599976,0.000959431
1677.700073,0.000960523
1677.799927,0.000961611
1677.900024,0.000962701
1678.0,0.000963788
1678.099976,0.000964875
1678.199951,0.000965961
1678.299927,0.000967046
1678.399902,0.00096813
1678.5,0.000969215
1678.599976,0.000970297
1678.700073,0.00097138
1678.800049,0.00097246
1678.900146,0.000973542
1679.0,0.000974619
1679.099976,0.000975697
1679.199951,0.000976774
1679.299927,0.00097785
1679.399902,0.000978925
1679.5,0.000980001
1679.599976,0.000981074
1679.700073,0.000982148
1679.799927,0.000983219
1679.899902,0.000984289
1680.0,0.00098536
1680.099976,0.00098643
1680.200073,0.000987499
1680.300049,0.000988567
1680.400146,0.000989634
1680.5,0.000990699
1680.599976,0.000991763
1680.699951,0.000992827
1680.799927,0.00099389
1680.899902,0.000994952
1681.0,0.000996015
1681.099976,0.000997075
1681.200073,0.000998136
1681.300049,0.000999195
1681.399902,0.00100025
1681.5,0.00100131
1681.599976,0.00100237
1681.700073,0.00100342
1681.800049,0.00100448
1681.899902,0.00100553
1682.0,0.00100658
1682.099976,0.00100763
1682.200073,0.00100869
1682.299927,0.00100973
1682.399902,0.00101078
1682.5,0.00101183
1682.599976,0.00101288
1682.700073,0.00101393
1682.800049,0.00101497
1682.900024,0.00101602
1683.0,0.00101706
1683.099976,0.00101811
1683.200073,0.00101915
1683.299927,0.00102019
1683.399902,0.00102123
1683.5,0.00102227
1683.599976,0.00102331
1683.700073,0.00102435
1683.800049,0.00102539
1683.899902,0.00102642
1684.0,0.00102746
1684.099976,0.00102849
1684.200073,0.00102953
1684.300049,0.00103056
1684.400024,0.00103159
1684.5,0.00103262
1684.599976,0.00103365
1684.700073,0.00103469
1684.799927,0.00103571
1684.899902,0.00103674
1685.0,0.00103777
1685.099976,0.0010388
1685.200073,0.00103982
1685.300049,0.00104085
1685.400024,0.00104187
1685.5,0.00104289
1685.599976,0.00104392
1685.699951,0.00104494
1685.800049,0.00104596
1685.900024,0.00104698
1686.0,0.001048
1686.099976,0.00104901
1686.199951,0.00105003
1686.299927,0.00105105
1686.399902,0.00105206
1686.5,0.00105308
1686.599976,0.00105409
1686.699951,0.00105511
1686.800049,0.00105612
1686.900024,0.00105713
1687.000122,0.00105814
1687.099976,0.00105915
1687.199951,0.00106016
1687.300049,0.00106117
1687.399902,0.00106218
1687.5,0.00106318
1687.599976,0.00106419
1687.699951,0.00106519
1687.800049,0.0010662
1687.899902,0.0010672
1688.0,0.0010682
1688.099976,0.00106921
1688.199951,0.00107021
1688.300049,0.00107121
1688.400024,0.00107221
1688.500122,0.00107321
1688.599976,0.0010742
1688.699951,0.0010752
1688.799927,0.00107619
1688.899902,0.00107719
1689.0,0.00107819
1689.099976,0.00107918
1689.199951,0.00108017
1689.300049,0.00108116
1689.400024,0.00108216
1689.5,0.00108315
1689.599976,0.00108414
1689.699951,0.00108512
1689.800049,0.00108611
1689.900024,0.0010871
1690.0,0.00108809
1690.000122,0.00108809
1690.099976,0.00108911
1690.199951,0.00109013
1690.299927,0.00109115
1690.399902,0.00109217
1690.5,0.00109319
1690.599976,0.00109421
1690.699951,0.00109523
1690.800049,0.00109625
1690.900024,0.00109727
1691.000122,0.00109829
1691.099976,0.0010993
1691.199951,0.00110032
1691.300049,0.00110133
1691.400024,0.00110235
1691.5,0.00110336
1691.599976,0.00110437
1691.699951,0.00110538
1691.800049,0.00110639
1691.899902,0.0011074
1692.0,0.00110841
1692.099976,0.00110942
1692.199951,0.00111043
1692.300049,0.00111144
1692.400024,0.00111244
1692.500122,0.00111345
1692.600098,0.00111446
1692.699951,0.00111546
1692.800049,0.00111646
1692.899902,0.00111747
1693.0,0.00111847
1693.099976,0.00111947
1693.199951,0.00112047
1693.300049,0.00112147
1693.400024,0.00112247
1693.5,0.00112347
1693.599976,0.00112447
1693.699951,0.00112547
1693.800049,0.00112646
1693.900024,0.00112746
1694.000122,0.00112846
1694.100098,0.00112945
1694.199951,0.00113044
1694.300049,0.00113144
1694.399902,0.00113243
1694.5,0.00113342
1694.599976,0.00113441
1694.699951,0.0011354
1694.800049,0.00113639
1694.900024,0.00113738
1695.0,0.00113837
1695.000122,0.00113837
1695.099976,0.00113939
1695.199951,0.00114041
1695.300049,0.00114143
1695.400024,0.00114245
1695.5,0.00114347
1695.599976,0.00114449
1695.699951,0.0011455
1695.800049,0.00114652
1695.900024,0.00114754
1695.999878,0.00114855
1696.099976,0.00114956
1696.199951,0.00115058
1696.300049,0.00115159
1696.400024,0.0011526
1696.5,0.00115362
1696.600098,0.00115463
1696.699951,0.00115564
1696.800049,0.00115665
1696.900024,0.00115766
1696.999878,0.00115867
1697.099976,0.00115967
1697.199951,0.00116068
1697.300049,0.00116169
1697.400024,0.0011627
1697.5,0.0011637
1697.599976,0.00116471
1697.699951,0.00116571
1697.800049,0.00116672
1697.900024,0.00116772
1698.0,0.00116872
1698.100098,0.00116972
1698.200073,0.00117073
1698.300049,0.00117173
1698.400024,0.00117273
1698.499878,0.00117372
1698.599976,0.00117472
1698.699951,0.00117572
1698.800049,0.00117672
1698.900024,0.00117772
1699.0,0.00117871
1699.100098,0.00117971
1699.199951,0.00118071
1699.300049,0.0011817
1699.400024,0.00118269
1699.5,0.00118369
1699.600098,0.00118468
1699.699951,0.00118567
1699.800049,0.00118667
1699.899902,0.00118766
1699.999878,0.00118865
1700.0,0.00118865
1700.099976,0.00118967
1700.199951,0.0011907
1700.300049,0.00119172
1700.400024,0.00119274
1700.5,0.00119376
1700.600098,0.00119479
1700.700073,0.00119581
1700.800049,0.00119683
1700.900024,0.00119785
1701.0,0.00119887
1701.099976,0.00119989
1701.199951,0.00120091
1701.300049,0.00120192
1701.400024,0.00120294
1701.499878,0.00120396
1701.599976,0.00120498
1701.699951,0.00120599
1701.800049,0.00120701
1701.900024,0.00120802
1702.0,0.00120904
1702.100098,0.00121005
1702.200073,0.00121106
1702.300049,0.00121208
1702.400024,0.00121309
1702.5,0.0012141
1702.599976,0.00121511
1702.699951,0.00121612
1702.800049,0.00121713
1702.900024,0.00121814
1703.0,0.00121915
1703.099976,0.00122016
1703.199951,0.00122117
1703.300049,0.00122218
1703.400024,0.00122318
1703.5,0.00122419
1703.600098,0.0012252
1703.700073,0.0012262
1703.800049,0.00122721
1703.900024,0.00122821
1703.999878,0.00122921
1704.099976,0.00123022
1704.199951,0.00123122
1704.300049,0.00123222
1704.400024,0.00123323
1704.5,0.00123423
1704.600098,0.00123523
1704.699951,0.00123623
1704.800049,0.00123723
1704.900024,0.00123823
1705.0,0.00123923
1705.100098,0.00124023
1705.199951,0.00124122
1705.300049,0.00124222
1705.400024,0.00124322
1705.5,0.00124421
1705.599976,0.00124521
1705.699951,0.0012462
1705.800049,0.0012472
1705.900024,0.00124819
1706.0,0.00124919
1706.100098,0.00125018
1706.200073,0.00125117
1706.300049,0.00125217
1706.400024,0.00125316
1706.5,0.00125415
1706.599854,0.00125514
1706.699951,0.00125613
1706.799927,0.00125712
1706.900024,0.00125811
1707.0,0.0012591
1707.100098,0.00126009
1707.199951,0.00126107
1707.299927,0.00126206
1707.400024,0.00126305
1707.5,0.00126404
1707.600098,0.00126502
1707.700073,0.00126601
1707.800049,0.00126699
1707.900024,0.00126798
1708.0,0.00126896
1708.099854,0.00126994
1708.199951,0.00127093
1708.299927,0.00127191
1708.400024,0.00127289
1708.5,0.00127387
1708.600098,0.00127485
1708.700073,0.00127583
1708.799927,0.00127681
1708.900024,0.00127779
1709.0,0.00127877
1709.100098,0.00127975
1709.200073,0.00128073
1709.299927,0.00128171
1709.400024,0.00128268
1709.5,0.00128366
1709.599854,0.00128463
1709.699951,0.00128561
1709.799927,0.00128659
1709.900024,0.00128756
1710.0,0.00128854
1710.100098,0.00128951
1710.200073,0.00129048
1710.300049,0.00129146
1710.400024,0.00129243
1710.5,0.0012934
1710.600098,0.00129437
1710.699951,0.00129534
1710.799927,0.00129631
1710.900024,0.00129728
1711.0,0.00129825
1711.100098,0.00129922
1711.199951,0.00130019
1711.299927,0.00130116
1711.400024,0.00130213
1711.5,0.00130309
1711.600098,0.00130406
1711.700073,0.00130503
1711.800049,0.00130599
1711.900146,0.00130696
1712.0,0.00130792
1712.099976,0.00130889
1712.199951,0.00130985
1712.299927,0.00131082
1712.400024,0.00131178
1712.5,0.00131274
1712.599976,0.0013137
1712.700073,0.00131467
1712.799927,0.00131563
1712.900024,0.00131659
1713.0,0.00131755
1713.099976,0.00131851
1713.200073,0.00131947
1713.300049,0.00132043
1713.400024,0.00132138
1713.5,0.00132234
1713.599854,0.0013233
1713.699951,0.00132426
1713.799927,0.00132521
1713.900024,0.00132617
1714.0,0.00132713
1714.099976,0.00132808
1714.200073,0.00132904
1714.300049,0.00132999
1714.400024,0.00133095
1714.5,0.0013319
1714.599976,0.00133285
1714.700073,0.0013338
1714.799927,0.00133476
1714.900024,0.00133571
1715.0,0.00133666
1715.099976,0.00133761
1715.199951,0.00133856
1715.299927,0.00133951
1715.400024,0.00134046
1715.5,0.00134141
1715.599976,0.00134236
1715.700073,0.00134331
1715.800049,0.00134426
1715.900146,0.0013452
1716.0,0.00134615
1716.099976,0.0013471
1716.200073,0.00134804
1716.299927,0.00134899
1716.399902,0.00134993
1716.5,0.00135088
1716.599976,0.00135182
1716.700073,0.00135277
1716.799927,0.00135371
1716.899902,0.00135465
1717.0,0.0013556
1717.099976,0.00135654
1717.200073,0.00135748
1717.300049,0.00135842
1717.400146,0.00135936
1717.5,0.0013603
1717.599976,0.00136124
1717.699951,0.00136218
1717.799927,0.00136312
1717.899902,0.00136406
1718.0,0.001365
1718.099976,0.00136594
1718.200073,0.00136688
1718.300049,0.00136781
1718.399902,0.00136875
1718.5,0.00136968
1718.599976,0.00137062
1718.700073,0.00137156
1718.800049,0.00137249
1718.899902,0.00137342
1719.0,0.00137436
1719.099976,0.00137529
1719.200073,0.00137623
1719.299927,0.00137716
1719.399902,0.00137809
1719.5,0.00137902
1719.599976,0.00137996
1719.700073,0.00138089
1719.800049,0.00138182
1719.900024,0.00138275
1720.0,0.00138368
1720.099976,0.00138461
1720.200073,0.00138554
1720.300049,0.00138647
1720.399902,0.00138739
1720.5,0.00138832
1720.599976,0.00138925
1720.700073,0.00139018
1720.800049,0.00139111
1720.899902,0.00139203
1721.0,0.00139296
1721.099976,0.00139388
1721.200073,0.00139481
1721.300049,0.00139573
1721.400024,0.00139666
1721.500122,0.00139758
1721.599976,0.00139851
1721.700073,0.00139943
1721.799927,0.00140035
1721.899902,0.00140127
1722.0,0.0014022
1722.099976,0.00140312
1722.199951,0.00140404
1722.300049,0.00140496
1722.400024,0.00140588
1722.5,0.0014068
1722.599976,0.00140772
1722.699951,0.00140864
1722.800049,0.00140956
1722.900024,0.00141048
1723.0,0.0014114
1723.099976,0.00141231
1723.199951,0.00141323
1723.299927,0.00141415
1723.399902,0.00141506
1723.5,0.00141598
1723.599976,0.0014169
1723.699951,0.00141781
1723.800049,0.00141873
1723.900024,0.00141964
1724.000122,0.00142056
1724.099976,0.00142147
1724.199951,0.00142238
1724.300049,0.0014233
1724.399902,0.00142421
1724.5,0.00142512
1724.599976,0.00142603
1724.699951,0.00142694
1724.799927,0.00142786
1724.899902,0.00142877
1725.0,0.00142968
1725.099976,0.00143059
1725.199951,0.0014315
1725.300049,0.00143241
1725.400024,0.00143332
1725.500122,0.00143423
1725.600098,0.00143513
1725.699951,0.00143604
1725.800049,0.00143695
1725.899902,0.00143786
1726.0,0.00143876
1726.099976,0.00143967
1726.199951,0.00144057
1726.300049,0.00144148
1726.400024,0.00144239
1726.5,0.00144329
1726.599976,0.0014442
1726.699951,0.0014451
1726.800049,0.001446
1726.900024,0.00144691
1727.000122,0.00144781
1727.099976,0.00144871
1727.199951,0.00144962
1727.299927,0.00145052
1727.399902,0.00145142
1727.5,0.00145232
1727.599976,0.00145322
1727.699951,0.00145412
1727.800049,0.00145502
1727.900024,0.00145592
1728.0,0.00145682
1728.099976,0.00145772
1728.199951,0.00145862
