Wavelength,Transmission
1651.0,1.37011e-08
1653.844482,1.68991e-08
1656.737183,2.01282e-08
1659.629883,2.33782e-08
1660.0,2.37938e-08
1662.522583,2.66391e-08
1665.415283,2.99007e-08
1668.307983,3.31532e-08
1670.0,3.50399e-08
1671.200684,3.63868e-08
1674.093384,3.95918e-08
1676.986084,4.27585e-08
1679.878784,4.58786e-08
1680.0,4.60062e-08
1682.771484,4.89464e-08
1685.664185,5.19563e-08
1688.556885,5.49029e-08
1690.0,5.63324e-08
1691.449585,5.77808e-08
1694.342285,6.05847e-08
1697.235107,6.33094e-08
1700.0,6.58356e-08
1700.127808,6.59543e-08
1703.020508,6.85529e-08
1705.913208,7.10903e-08
1708.805908,7.35759e-08
1710.0,7.45784e-08
1711.698608,7.6019e-08
1714.591309,7.8429e-08
1717.484009,8.08149e-08
1720.0,8.28747e-08
1720.376709,8.3186e-08
1723.269409,8.5551e-08
1726.162109,8.79135e-08
1729.05481,9.02722e-08
1730.0,9.1037e-08
1731.94751,9.26255e-08
1734.84021,9.4972e-08
1737.73291,9.731e-08
1740.0,9.9132e-08
1740.62561,9.96381e-08
1743.518311,1.01955e-07
1746.411011,1.04259e-07
1749.303711,1.06551e-07
1750.0,1.07099e-07
1752.196411,1.08838e-07
1755.089111,1.11127e-07
1757.981812,1.13425e-07
1760.0,1.15038e-07
1760.874512,1.1574e-07
1763.767212,1.18079e-07
1766.659912,1.20449e-07
1769.552612,1.22857e-07
1770.0,1.23233e-07
1772.445312,1.25298e-07
1775.338013,1.27763e-07
1778.230713,1.30243e-07
1780.0,1.31762e-07
1781.123413,1.3273e-07
1784.016113,1.35214e-07
1786.908936,1.37688e-07
1789.801514,1.40141e-07
1790.0,1.40307e-07
1792.694336,1.4257e-07
1795.586914,1.44977e-07
1798.479736,1.47365e-07
1800.0,1.4861e-07
1801.372437,1.49703e-07
1804.265137,1.51987e-07
1807.157837,1.54261e-07
1810.0,1.5649e-07
1810.050537,1.56529e-07
1812.943237,1.58794e-07
1815.835938,1.6106e-07
1818.728638,1.63329e-07
1820.0,1.64327e-07
1821.621338,1.65605e-07
1824.514038,1.67892e-07
1827.406738,1.70193e-07
1830.0,1.7227e-07
1830.299438,1.72511e-07
1833.192139,1.74846e-07
1836.084839,1.77197e-07
1838.977539,1.79563e-07
1840.0,1.80402e-07
1841.870239,1.81942e-07
1844.762939,1.84334e-07
1847.65564,1.86737e-07
1850.0,1.88692e-07
1850.54834,1.89151e-07
1853.44104,1.91573e-07
1856.33374,1.94003e-07
1859.22644,1.96439e-07
1860.0,1.97091e-07
1862.119141,1.98882e-07
1865.011841,2.01329e-07
1867.904541,2.03779e-07
1870.0,2.05555e-07
1870.797241,2.06233e-07
1873.689941,2.08691e-07
1876.582764,2.11156e-07
1879.475342,2.13629e-07
1880.0,2.14078e-07
1882.368164,2.16112e-07
1885.260742,2.18605e-07
1888.153564,2.21112e-07
1890.0,2.22719e-07
1891.046265,2.23633e-07
1893.938965,2.26169e-07
1896.831665,2.28722e-07
1899.724365,2.31294e-07
1900.0,2.3154e-07
1902.617065,2.3375e-07
1905.509766,2.36209e-07
1908.402466,2.38688e-07
1910.0,2.40067e-07
1911.295166,2.41187e-07
1914.187866,2.43708e-07
1917.080566,2.46252e-07
1919.973267,2.4882e-07
1920.0,2.48844e-07
1922.865967,2.51413e-07
1925.758667,2.54033e-07
1928.651367,2.56681e-07
1930.0,2.57928e-07
1931.544067,2.59358e-07
1934.436768,2.62066e-07
1937.329468,2.64806e-07
1940.0,2.67366e-07
1940.222168,2.67579e-07
1943.114868,2.70387e-07
1946.007568,2.73231e-07
1948.900269,2.76113e-07
1950.0,2.77222e-07
1951.792969,2.79033e-07
1954.685669,2.81994e-07
1957.578369,2.84995e-07
1960.0,2.87543e-07
1960.471069,2.88039e-07
1963.36377,2.91127e-07
1966.256592,2.94259e-07
1969.14917,2.97437e-07
1970.0,2.98386e-07
1972.041992,3.00664e-07
1974.93457,3.03941e-07
1977.827393,3.07271e-07
1980.0,3.09814e-07
1980.719971,3.10657e-07
1983.612793,3.14101e-07
1986.505371,3.17605e-07
1989.398193,3.21173e-07
1990.0,3.21928e-07
1992.290894,3.24806e-07
1995.183594,3.28507e-07
1998.076294,3.32278e-07
2000.0,3.34825e-07
2000.968994,3.36227e-07
2003.861694,3.40466e-07
2006.754395,3.4479e-07
2009.647095,3.49202e-07
2010.0,3.49751e-07
2012.539795,3.53705e-07
2015.432495,3.58302e-07
2018.325195,3.62994e-07
2020.0,3.65766e-07
2021.217896,3.67784e-07
2024.110596,3.72667e-07
2027.003296,3.77638e-07
2029.895996,3.82692e-07
2030.0,3.82877e-07
2032.788696,3.87825e-07
2035.681396,3.93031e-07
2038.574097,3.98306e-07
2040.0,4.00936e-07
2041.466797,4.03644e-07
2044.359497,4.0904e-07
2047.252197,4.14491e-07
2050.0,4.19715e-07
2050.14502,4.19991e-07
2053.037598,4.25534e-07
2055.93042,4.31118e-07
2058.822998,4.36736e-07
2060.0,4.39034e-07
2061.71582,4.42385e-07
2064.608398,4.48058e-07
2067.501221,4.53754e-07
2070.0,4.58688e-07
2070.393799,4.59466e-07
2073.286621,4.65193e-07
2076.179199,4.70932e-07
2079.072021,4.76682e-07
2080.0,4.78531e-07
2081.9646,4.82441e-07
2084.857422,4.88207e-07
2087.75,4.93977e-07
2090.0,4.9847e-07
2090.642822,4.99751e-07
2093.5354,5.05526e-07
2096.428223,5.113e-07
2099.320801,5.17072e-07
2100.0,5.18428e-07
2102.213623,5.22756e-07
2105.106445,5.28406e-07
2107.999023,5.34046e-07
2110.0,5.37941e-07
2110.891602,5.39673e-07
2113.784424,5.45286e-07
2116.677246,5.50883e-07
2119.569824,5.56465e-07
2120.0,5.57294e-07
2122.462402,5.6203e-07
2125.355225,5.67579e-07
2128.248047,5.73112e-07
2130.0,5.76458e-07
2131.140625,5.78628e-07
2134.033447,5.84128e-07
2136.926025,5.89611e-07
2139.818848,5.95077e-07
2140.0,5.95419e-07
2142.711426,6.00525e-07
2145.604248,6.05957e-07
2148.496826,6.1137e-07
2150.0,6.14181e-07
2151.389648,6.16767e-07
2154.282227,6.22145e-07
2157.175049,6.27506e-07
2160.0,6.32724e-07
2160.067627,6.32849e-07
2162.960449,6.38173e-07
2165.853027,6.43479e-07
2168.74585,6.48768e-07
2170.0,6.51061e-07
2171.638428,6.54037e-07
2174.53125,6.59287e-07
2177.423828,6.64519e-07
2180.0,6.69165e-07
2180.31665,6.69732e-07
2183.209473,6.74925e-07
2186.102051,6.80099e-07
2188.994629,6.85252e-07
2190.0,6.87046e-07
2191.887451,6.90387e-07
2194.780273,6.95501e-07
2197.672852,7.00595e-07
2200.0,7.04684e-07
2200.56543,7.05703e-07
2203.458252,7.10934e-07
2206.351074,7.16147e-07
2209.243652,7.2134e-07
2210.0,7.22703e-07
2212.13623,7.26516e-07
2215.029053,7.31672e-07
2217.921875,7.36809e-07
2220.0,7.40497e-07
2220.814453,7.41927e-07
2223.707031,7.47029e-07
2226.599854,7.52128e-07
2229.492676,7.57231e-07
2230.0,7.58137e-07
2232.385254,7.62348e-07
2235.278076,7.6749e-07
2238.170654,7.72665e-07
2240.0,7.75979e-07
2241.063477,7.77883e-07
2243.956055,7.83154e-07
2246.848877,7.88487e-07
2249.741455,7.93891e-07
2250.0,7.94387e-07
2252.634277,7.99377e-07
2255.526855,8.04951e-07
2258.419678,8.10626e-07
2260.0,8.13802e-07
2261.312256,8.16408e-07
2264.205078,8.22309e-07
2267.097656,8.28335e-07
2269.990479,8.34493e-07
2270.0,8.34514e-07
2272.883057,8.40772e-07
2275.775879,8.47156e-07
2278.668457,8.53628e-07
2280.0,8.56657e-07
2281.561279,8.60175e-07
2284.454102,8.66779e-07
2287.34668,8.73425e-07
2290.0,8.7955e-07
2290.239258,8.80098e-07
2293.13208,8.86783e-07
2296.024902,8.93464e-07
2298.91748,9.00125e-07
2300.0,9.02618e-07
2301.810059,9.06806e-07
2304.702881,9.13473e-07
2307.595703,9.20076e-07
2310.0,9.25507e-07
2310.488281,9.266e-07
2313.380859,9.33032e-07
2316.273682,9.39356e-07
2319.166504,9.45558e-07
2320.0,9.47317e-07
2322.059082,9.51623e-07
2324.951904,9.57538e-07
2327.844482,9.63289e-07
2330.0,9.67459e-07
2330.737305,9.68872e-07
2333.629883,9.74287e-07
2336.522705,9.79532e-07
2339.415283,9.84605e-07
2340.0,9.85604e-07
2342.308105,9.89507e-07
2345.200684,9.94235e-07
2348.093506,9.98789e-07
2350.0,1.00169e-06
2350.986084,1.00317e-06
2353.878906,1.00737e-06
2356.771484,1.01139e-06
2359.664307,1.01524e-06
2360.0,1.01567e-06
2362.556885,1.0189e-06
2365.449707,1.02239e-06
2368.342285,1.02569e-06
2370.0,1.02749e-06
2371.235107,1.02882e-06
2374.12793,1.03177e-06
2377.020508,1.03456e-06
2379.913086,1.0372e-06
2380.0,1.03728e-06
2382.805908,1.0397e-06
2385.69873,1.04206e-06
2388.591309,1.04429e-06
2390.0,1.04533e-06
2391.483887,1.04641e-06
2394.376709,1.04842e-06
2397.269531,1.05032e-06
2400.0,1.05204e-06
2400.162109,1.05215e-06
2403.054688,1.05411e-06
2405.94751,1.05599e-06
2408.840332,1.05781e-06
2410.0,1.05852e-06
2411.73291,1.05957e-06
2414.625488,1.06128e-06
2417.518311,1.06294e-06
2420.0,1.06432e-06
2420.411133,1.06455e-06
2423.303711,1.06612e-06
2426.196533,1.06764e-06
2429.089111,1.06912e-06
2430.0,1.06958e-06
2431.981934,1.07057e-06
2434.874512,1.07197e-06
2437.767334,1.07334e-06
2440.0,1.07437e-06
2440.659912,1.07467e-06
2443.552734,1.07597e-06
2446.445312,1.07724e-06
2449.338135,1.07847e-06
2450.0,1.07875e-06
2452.230713,1.07968e-06
2455.123535,1.08086e-06
2458.016113,1.08202e-06
2460.0,1.0828e-06
2460.908936,1.08315e-06
2463.801758,1.08426e-06
2466.694336,1.08535e-06
2469.586914,1.08642e-06
2470.0,1.08657e-06
2472.479736,1.08746e-06
2475.372559,1.08849e-06
2478.265137,1.0895e-06
2480.0,1.09009e-06
2481.157715,1.09048e-06
2484.050537,1.09145e-06
2486.943359,1.09239e-06
2489.835938,1.0933e-06
2490.0,1.09335e-06
2492.728516,1.09419e-06
2495.621338,1.09506e-06
2498.51416,1.0959e-06
2500.0,1.09632e-06
2501.406738,1.09669e-06
2504.299316,1.09741e-06
2507.192139,1.09811e-06
2510.0,1.09876e-06
2510.084961,1.09878e-06
2512.977539,1.09942e-06
2515.870361,1.10003e-06
2518.762939,1.10061e-06
2520.0,1.10084e-06
2521.655762,1.10116e-06
2524.54834,1.10168e-06
2527.441162,1.10216e-06
2530.0,1.10256e-06
2530.33374,1.10262e-06
2533.226562,1.10304e-06
2536.119141,1.10343e-06
2539.011963,1.1038e-06
2540.0,1.10391e-06
2541.904541,1.10413e-06
2544.797363,1.10443e-06
2547.689941,1.1047e-06
2550.0,1.10489e-06
2550.582764,1.10494e-06
2553.475586,1.10515e-06
2556.368164,1.10533e-06
2559.260742,1.10548e-06
2560.0,1.10551e-06
2562.153564,1.10561e-06
2565.046387,1.1057e-06
2567.938965,1.10577e-06
2570.0,1.1058e-06
2570.831543,1.10581e-06
2573.724365,1.10582e-06
2576.617188,1.10582e-06
2579.509766,1.1058e-06
2580.0,1.10579e-06
2582.402344,1.10577e-06
2585.295166,1.10573e-06
2588.187988,1.10568e-06
2590.0,1.10565e-06
2591.080566,1.10563e-06
2593.973145,1.10558e-06
2596.865967,1.10554e-06
2599.758789,1.1055e-06
2600.0,1.1055e-06
2602.651367,1.10516e-06
2605.544189,1.1048e-06
2608.436768,1.10446e-06
2610.0,1.10429e-06
2611.32959,1.10414e-06
2614.222168,1.10385e-06
2617.11499,1.10359e-06
2620.0,1.10336e-06
2620.007568,1.10336e-06
2622.900391,1.10317e-06
2625.792969,1.10302e-06
2628.685791,1.1029e-06
2630.0,1.10286e-06
2631.578369,1.10281e-06
2634.471191,1.10277e-06
2637.36377,1.10276e-06
2640.0,1.10278e-06
2640.256592,1.10278e-06
2643.14917,1.10284e-06
2646.041992,1.10294e-06
2648.93457,1.10307e-06
2650.0,1.10313e-06
2651.827393,1.10323e-06
2654.720215,1.10343e-06
2657.612793,1.10367e-06
2660.0,1.10389e-06
2660.505371,1.10394e-06
2663.398193,1.10424e-06
2666.291016,1.10458e-06
2669.183594,1.10496e-06
2670.0,1.10507e-06
2672.076172,1.10537e-06
2674.968994,1.10583e-06
2677.861816,1.10633e-06
2680.0,1.10675e-06
2680.754395,1.10689e-06
2683.646973,1.10752e-06
2686.539795,1.1082e-06
2689.432617,1.10896e-06
2690.0,1.10912e-06
2692.325195,1.10979e-06
2695.217773,1.1107e-06
2698.110596,1.11169e-06
2700.0,1.1124e-06
2701.003418,1.11275e-06
2703.895996,1.11383e-06
2706.788574,1.11501e-06
2709.681396,1.1163e-06
2710.0,1.11645e-06
2712.574219,1.11769e-06
2715.466797,1.11921e-06
2718.359619,1.12084e-06
2720.0,1.12184e-06
2721.252441,1.1226e-06
2724.14502,1.12449e-06
2727.037598,1.12652e-06
2729.93042,1.12868e-06
2730.0,1.12873e-06
2732.823242,1.13096e-06
2735.71582,1.13336e-06
2738.608398,1.13587e-06
2740.0,1.13712e-06
2741.501221,1.13847e-06
2744.394043,1.14117e-06
2747.286621,1.14395e-06
2750.0,1.14662e-06
2750.179199,1.1468e-06
2753.072021,1.14972e-06
2755.964844,1.15269e-06
2758.857422,1.15572e-06
2760.0,1.15693e-06
2761.75,1.15878e-06
2764.642822,1.16188e-06
2767.535645,1.16501e-06
2770.0,1.16768e-06
2770.428223,1.16815e-06
2773.320801,1.17131e-06
2776.213623,1.17449e-06
2779.106445,1.17768e-06
2780.0,1.17867e-06
2781.999023,1.18089e-06
2784.891602,1.18412e-06
2787.784424,1.18737e-06
2790.0,1.18987e-06
2790.677246,1.19064e-06
2793.569824,1.19392e-06
2796.462402,1.19722e-06
2799.355225,1.20054e-06
2800.0,1.20128e-06
2802.248047,1.204e-06
2805.140625,1.20753e-06
2808.033203,1.21107e-06
2810.0,1.21349e-06
2810.92627,1.21463e-06
2813.818848,1.21821e-06
2816.711426,1.2218e-06
2819.604248,1.22542e-06
2820.0,1.22592e-06
2822.49707,1.22905e-06
2825.389648,1.2327e-06
2828.282227,1.23637e-06
2830.0,1.23856e-06
2831.175049,1.24006e-06
2834.067871,1.24377e-06
2836.960449,1.24749e-06
2839.853027,1.25124e-06
2840.0,1.25143e-06
2842.74585,1.25502e-06
2845.638672,1.25887e-06
2848.53125,1.2628e-06
2850.0,1.26485e-06
2851.423828,1.26683e-06
2854.31665,1.27099e-06
2857.209473,1.2753e-06
2860.0,1.27961e-06
2860.102051,1.27977e-06
2862.994629,1.28444e-06
2865.887451,1.28931e-06
2868.780273,1.29442e-06
2870.0,1.29668e-06
2871.672852,1.29976e-06
2874.56543,1.30533e-06
2877.458252,1.31109e-06
2880.0,1.31633e-06
2880.351074,1.31705e-06
2883.243652,1.3232e-06
2886.13623,1.3295e-06
2889.029053,1.33597e-06
2890.0,1.33819e-06
2891.921875,1.34257e-06
2894.814453,1.34931e-06
2897.707031,1.35616e-06
2900.0,1.36167e-06
2900.600098,1.36309e-06
2903.492676,1.36999e-06
2906.385254,1.37697e-06
2909.278076,1.38401e-06
2910.0,1.38578e-06
2912.170898,1.39111e-06
2915.063477,1.39825e-06
2917.956055,1.40541e-06
2920.0,1.41048e-06
2920.848877,1.41259e-06
2923.741699,1.41977e-06
2926.634277,1.42694e-06
2929.526855,1.43409e-06
2930.0,1.43525e-06
2932.419678,1.4412e-06
2935.3125,1.44827e-06
2938.205078,1.45529e-06
2940.0,1.45959e-06
2941.097656,1.46223e-06
2943.990479,1.46909e-06
2946.883301,1.47586e-06
2949.775879,1.48252e-06
2950.0,1.48303e-06
2952.668457,1.48907e-06
2955.561279,1.49549e-06
2958.454102,1.50177e-06
2960.0,1.50504e-06
2961.34668,1.5079e-06
2964.239258,1.51386e-06
2967.13208,1.51966e-06
2970.0,1.52522e-06
2970.024902,1.52527e-06
2972.91748,1.5307e-06
2975.810059,1.53596e-06
2978.702881,1.54106e-06
2980.0,1.54327e-06
2981.595703,1.54599e-06
2984.488281,1.55076e-06
2987.380859,1.55539e-06
2990.0,1.55945e-06
2990.273682,1.55987e-06
2993.166504,1.56421e-06
2996.059082,1.56842e-06
2998.951904,1.5725e-06
3000.0,1.57394e-06
3001.844727,1.57646e-06
3004.737305,1.5803e-06
3007.629883,1.58403e-06
3010.0,1.587e-06
3010.522705,1.58765e-06
3013.415527,1.59118e-06
3016.308105,1.5946e-06
3019.200684,1.59794e-06
3020.0,1.59884e-06
3022.093506,1.60119e-06
3024.986328,1.60436e-06
3027.878906,1.60745e-06
3030.0,1.60968e-06
3030.771484,1.61048e-06
3033.664307,1.61344e-06
3036.557129,1.61635e-06
3039.449707,1.6192e-06
3040.0,1.61973e-06
3042.342285,1.622e-06
3045.235107,1.62476e-06
3048.12793,1.62748e-06
3050.0,1.62922e-06
3051.020508,1.63016e-06
3053.913086,1.63282e-06
3056.805908,1.63546e-06
3059.69873,1.63807e-06
3060.0,1.63834e-06
3062.591309,1.64068e-06
3065.483887,1.64327e-06
3068.376709,1.64586e-06
3070.0,1.64732e-06
3071.269531,1.64846e-06
3074.162109,1.65106e-06
3077.054688,1.65367e-06
3079.94751,1.65629e-06
3080.0,1.65634e-06
3082.840332,1.65894e-06
3085.73291,1.66162e-06
3088.625732,1.66432e-06
3090.0,1.66563e-06
3091.518555,1.66706e-06
3094.411133,1.66984e-06
