Wavelength,Transmission
1555.0,4.670649547144184e-05
1560.0,0.00011493189091310527
1565.0,0.00019388206717179814
1570.0,0.0003971747685809422
1575.0,0.000751573195037687
1580.0,0.0012734618722049897
1585.0,0.002485969827253824
1590.0,0.0032811551677209673
1595.0,0.00431281380314791
1600.0,0.005214310334277927
1605.0,0.006627195397315582
1610.0,0.00880737341128126
1615.0,0.009710568076728461
1620.0,0.010815279286512124
1625.0,0.011819289232784096
1630.0,0.013191699508056208
1635.0,0.014324256869838159
1640.0,0.015326005676611614
1645.0,0.016889701520512276
1650.0,0.018270713908811742
1655.0,0.019672839910813956
1660.0,0.020699877489423552
1665.0,0.02169243396334425
1670.0,0.02295182310501207
1675.0,0.025363713406988037
1680.0,0.02726703926074871
1685.0,0.028828694965301587
1690.0,0.029587285820962303
1695.0,0.03036447080194833
1700.0,0.03133805087554225
1705.0,0.03213198252393986
1710.0,0.03273871940855068
1715.0,0.03335761191723925
1720.0,0.03398716747800383
1725.0,0.03462888719513798
1730.0,0.035242043673462495
1735.0,0.035899729048472814
1740.0,0.0365226999528957
1745.0,0.03710689064792693
1750.0,0.03781025003683667
1755.0,0.038474336309115516
1760.0,0.03923626820242436
1765.0,0.03971431387819649
1770.0,0.040146609552754
1775.0,0.04116512907415499
1780.0,0.042263705673154205
1785.0,0.04328953078987568
1790.0,0.04379323606988772
1795.0,0.04430255153705011
1800.0,0.044805308767374055
1805.0,0.04525477702717029
1810.0,0.04570649995563475
1815.0,0.046134780385996936
1820.0,0.04656505873246198
1825.0,0.047008264289411274
1830.0,0.04745357663161626
1835.0,0.04793163962602242
1840.0,0.04840588516600539
1845.0,0.04906732098643997
1850.0,0.04974804587895366
1855.0,0.050580675774907394
1860.0,0.05142322214500694
1865.0,0.05201881735260847
1870.0,0.05261825053089445
1875.0,0.053094342652289
1880.0,0.053572337176364594
1885.0,0.054056228755548434
1890.0,0.05454257871042914
1895.0,0.05507452350076048
1900.0,0.05561690973735027
1905.0,0.05628687217263201
1910.0,0.05691857021508599
1915.0,0.05753942965492374
1920.0,0.05816344484386528
1925.0,0.05864087823546617
1930.0,0.059177877162645866
1935.0,0.05965703326441343
1940.0,0.060101614337548064
1945.0,0.06058140797612635
1950.0,0.06106305727894893
1955.0,0.06143233310524769
1960.0,0.06182208343658512
1965.0,0.06220166864318668
1970.0,0.06257972262170662
1975.0,0.06294648822577799
1980.0,0.06328982003320034
1985.0,0.0636111707965183
1990.0,0.06393284398839964
1995.0,0.06425430115755405
2000.0,0.06457615465568177
2005.0,0.06477684132203032
2010.0,0.06497677817589208
2015.0,0.06514544098338491
2020.0,0.06531309727568262
2025.0,0.06546782773198852
2030.0,0.0656463876536893
2035.0,0.06567405412932317
2040.0,0.06567501413759999
2045.0,0.06563263612060517
2050.0,0.06558465419520572
2055.0,0.06543136206710912
2060.0,0.06527442303607082
2065.0,0.06528390473529322
2070.0,0.06528715210429342
2075.0,0.06501715482377103
2080.0,0.06474299468509939
2085.0,0.06477037184884066
2090.0,0.06480242631653539
2095.0,0.0643030674662115
2100.0,0.06376651018434928
2105.0,0.06335731011525976
2110.0,0.06294338737993513
2115.0,0.06258558844079908
2120.0,0.06223054457237861
2125.0,0.06205268385343409
2130.0,0.06186458909461703
2135.0,0.06188190908751472
2140.0,0.061897760345887655
2145.0,0.0618911360613392
2150.0,0.061900946086732946
2155.0,0.06189696991928397
2160.0,0.061826337383190315
2165.0,0.06176871435088799
2170.0,0.06171773209636836
2175.0,0.061704473607652084
2180.0,0.061733198630784615
2185.0,0.061755258922664785
2190.0,0.0617763026620539
2195.0,0.06176605551072382
2200.0,0.06173299208479366
2205.0,0.06173642372796492
2210.0,0.061739121702329015
2215.0,0.06173564721982836
2220.0,0.061731563113151304
2225.0,0.061805481062080905
2230.0,0.061882556401883414
2235.0,0.0619762627850916
2240.0,0.06206982107622909
2245.0,0.062133745984546865
2250.0,0.062185533557165266
2255.0,0.06222510248523225
2260.0,0.062264448822709116
2265.0,0.06230752980992021
2270.0,0.062356501206807795
2275.0,0.06239624851974473
2280.0,0.06243453067502328
2285.0,0.0624641767616999
2290.0,0.062492582361751904
2295.0,0.06250840613362676
2300.0,0.06252407570153781
2305.0,0.06253244863342551
2310.0,0.06254053969435239
2315.0,0.06254033623295661
2320.0,0.06254008101615731
2325.0,0.06253305292473985
2330.0,0.06252591206297035
2335.0,0.06250469239766777
2340.0,0.06247944513101138
2345.0,0.06245611988413834
2350.0,0.06244414606542512
2355.0,0.06248839243626088
2360.0,0.0625325636249402
2365.0,0.06257171098484822
2370.0,0.06262328584378
2375.0,0.06267146991399682
2380.0,0.06271957431301717
2385.0,0.0627236681113343
2390.0,0.06270735337352616
2395.0,0.06269028045447779
2400.0,0.06267252869553772
2405.0,0.06272653087446219
2410.0,0.06280365817861204
2415.0,0.0628647541911125
2420.0,0.06287527495843645
2425.0,0.06289720948721521
2430.0,0.0629449976836679
2435.0,0.06300463353831816
2440.0,0.06306430541330868
2445.0,0.06316197242743793
2450.0,0.06325849060005549
2455.0,0.06335417094891191
2460.0,0.06344990908868177
2465.0,0.06354497359831214
2470.0,0.0636400979865772
2475.0,0.06373433147397488
2480.0,0.06380339136062133
2485.0,0.06387270400269214
2490.0,0.06395747995087289
2495.0,0.06424924853503902
2500.0,0.06454133459906368
2505.0,0.06511401247629225
2510.0,0.0656784707918554
2515.0,0.06608164310150366
2520.0,0.06648512835262321
2525.0,0.06671818551195607
2530.0,0.0669395886573248
2535.0,0.06744005260519038
2540.0,0.06794060911518089
2545.0,0.06835126965776116
2550.0,0.06875256390761383
2555.0,0.06981882731910612
2560.0,0.07088485683412106
2565.0,0.07176397660639203
2570.0,0.07265076110662878
2575.0,0.07296094748265079
2580.0,0.07327130015645986
2585.0,0.07375891431600093
2590.0,0.07425383447946257
2595.0,0.0748451376401754
2600.0,0.07543712316325107
2605.0,0.07570763523131767
2610.0,0.07597838113020433
2615.0,0.07632365576903238
2620.0,0.07666742851866332
2625.0,0.0770185080284959
2630.0,0.0773659850763699
2635.0,0.07758116229956746
2640.0,0.07777920540722177
2645.0,0.07793263304895934
2650.0,0.07810312022276601
2655.0,0.07822875946764303
2660.0,0.07835431133409876
2665.0,0.07845771178742718
2670.0,0.07856106035898307
2675.0,0.07864705806242742
2680.0,0.07873308637134085
2685.0,0.07875118474299118
2690.0,0.07876928412509376
2695.0,0.07878783819556767
2700.0,0.07880639857064446
2705.0,0.07877775326160907
2710.0,0.0787490866658196
2715.0,0.0786974169455292
2720.0,0.0786458037862494
2725.0,0.07855626495912492
2730.0,0.07845794256058881
2735.0,0.0783381942791419
2740.0,0.07821857489745812
2745.0,0.07814946055285778
2750.0,0.0781036587856432
2755.0,0.07803398182140775
2760.0,0.07796402516214088
2765.0,0.07789232146836696
2770.0,0.07781015629725566
2775.0,0.07778800983888155
2780.0,0.0777657011387016
2785.0,0.07772576252508552
2790.0,0.07766322036347861
2795.0,0.077577451353817
2800.0,0.07749162666747748
2805.0,0.07740581130799513
2810.0,0.07733871524355108
2815.0,0.07727862374018481
2820.0,0.07721833009420044
2825.0,0.07715807401199423
2830.0,0.07709770300601958
2835.0,0.07701364026945803
2840.0,0.07692783858537168
2845.0,0.07682033207080059
2850.0,0.07671261745171834
2855.0,0.07657682403690484
2860.0,0.07644411153326137
2865.0,0.0763167795321231
2870.0,0.07618690435316951
2875.0,0.07598559912025758
2880.0,0.07583875322579091
2885.0,0.07576741590817232
2890.0,0.07571517011362505
2895.0,0.07559628996945947
2900.0,0.07547716523977667
2905.0,0.07511554188269118
2910.0,0.07472365910884517
2915.0,0.07427129417210755
2920.0,0.07381889576501666
2925.0,0.07351472397677782
2930.0,0.0732246812045389
2935.0,0.07299165718125401
2940.0,0.07275831134869759
2945.0,0.0725396173695382
2950.0,0.07233364631443845
2955.0,0.07213323290905324
2960.0,0.07193240198683722
2965.0,0.07157409510667564
2970.0,0.07120365099111664
2975.0,0.07083265717174461
2980.0,0.07046146797935446
2985.0,0.07008985685803501
2990.0,0.06971805284223057
2995.0,0.0691055522176304
3000.0,0.06849273768489991
3005.0,0.06825908197759681
3010.0,0.0680253054294292
3015.0,0.06765414497327285
3020.0,0.06730414352656294
3025.0,0.066936188852277
3030.0,0.0665676403318585
3035.0,0.06622506448575415
3040.0,0.0658819369735907
3045.0,0.06553591327921143
3050.0,0.06518218831124635
3055.0,0.06483835641902333
3060.0,0.06449443755578665
3065.0,0.06414227445172825
3070.0,0.0638056175918197
3075.0,0.06332174174898204
3080.0,0.0628371241457697
3085.0,0.06255814848613492
3090.0,0.062266314587072415
3095.0,0.06195143270587256
3100.0,0.0616363609906874
3105.0,0.06130155220783475
3110.0,0.060966406085385325
3115.0,0.06068280983989068
3120.0,0.06039848331730055
3125.0,0.06009374513374249
3130.0,0.05978887646591307
3135.0,0.059395247896965556
3140.0,0.059001453570719495
3145.0,0.05854493536142735
3150.0,0.058088290915519265
3155.0,0.0578675016256931
3160.0,0.05755684411396569
3165.0,0.05736574744749573
3170.0,0.05717439053838313
3175.0,0.05705552475224591
3180.0,0.05695130153983696
3185.0,0.056878422692697564
3190.0,0.056796104025120746
3195.0,0.0566430120336092
3200.0,0.05648979252949788
3205.0,0.05634184306810863
3210.0,0.05620373126113492
3215.0,0.0560957694135101
3220.0,0.05598775876381874
3225.0,0.05587857761996025
3230.0,0.05576898912361019
3235.0,0.05565211104574186
3240.0,0.055535129030626025
3245.0,0.055423860503945786
3250.0,0.055313450810518645
3255.0,0.055202795631042856
3260.0,0.05508008389515812
3265.0,0.05495961015782861
3270.0,0.054839081665043934
3275.0,0.05473942355366417
3280.0,0.0546667562167897
3285.0,0.05456571240119888
3290.0,0.054464630147517776
3295.0,0.05433139567183151
3300.0,0.05419811134545507
3310.0,0.05398471263014747
3320.0,0.05389347790452524
3330.0,0.053791031599878567
3340.0,0.05366265655952239
3350.0,0.05364940003842459
3360.0,0.05367006162115103
3370.0,0.0536910376841781
3380.0,0.053729060062522066
3390.0,0.053826042906375354
3400.0,0.05391511136142922
3410.0,0.05412049275451252
3420.0,0.05427236117602692
3430.0,0.05448437978320156
3440.0,0.054697073425406466
3450.0,0.05493561255557445
3460.0,0.05518745552428419
3470.0,0.05546468910753601
3480.0,0.05575604910374844
3490.0,0.05604809381344516
3500.0,0.056365373494198484
3510.0,0.056697540664330026
3520.0,0.05703001723944294
3530.0,0.05742441319445353
3540.0,0.0578552688232811
3550.0,0.058323787384308254
3560.0,0.05881463867770468
3570.0,0.05925759990495436
3580.0,0.05967244713479021
3590.0,0.06008817332747843
3600.0,0.06051150451823724
3610.0,0.060939980671686
3620.0,0.06136907649079099
3630.0,0.06178902457291677
3640.0,0.06214579305696114
3650.0,0.06250310509299238
3660.0,0.06285118118358304
3670.0,0.06319354247936845
3680.0,0.06353633107983322
3690.0,0.06386815214222791
3700.0,0.06419278709763829
3710.0,0.06451725506208622
3720.0,0.06484194004846
3730.0,0.06527153910217999
3740.0,0.06577315037293048
3750.0,0.06626294159295167
3760.0,0.06663471276791146
3770.0,0.06700616842888357
3780.0,0.06737834421135826
3790.0,0.06775076999801534
3800.0,0.0681719942227455
3810.0,0.0686284278802691
3820.0,0.06909404486804498
3830.0,0.06965745883323221
3840.0,0.07021500243784488
3850.0,0.07071866206051122
3860.0,0.07123430979638129
3870.0,0.07185706214448616
3880.0,0.07246793837516485
3890.0,0.07297171674945224
3900.0,0.07347582145052287
3910.0,0.07394274176279123
3920.0,0.07438603563787768
3930.0,0.07486604833573345
3940.0,0.07535739294439425
3950.0,0.07576452109859608
3960.0,0.07617100069269625
3970.0,0.07653819319091028
3980.0,0.07686811459241277
3990.0,0.07709659513843414
4000.0,0.07732471279301066
4010.0,0.07755129475989024
4020.0,0.07775142203971484
4030.0,0.07793317879262476
4040.0,0.07813213258971255
4050.0,0.07832338489283948
4060.0,0.07839241519824293
4070.0,0.07845990029515319
4080.0,0.07859385683739227
4090.0,0.07878864291722688
4100.0,0.07893342972878856
4110.0,0.07902922163138579
4120.0,0.0791240494620036
4130.0,0.0792180347431475
4140.0,0.07931131808539103
4150.0,0.07944131066781024
4160.0,0.07957246025861506
4170.0,0.07970315807642393
4180.0,0.07983313376637523
4190.0,0.07985600801454491
4200.0,0.07992884986918807
4210.0,0.08009586233499284
4220.0,0.08016692017438679
4230.0,0.08022364790983037
4240.0,0.08034502755725995
4250.0,0.08058856230924147
4260.0,0.08083234760667239
4270.0,0.08103610683075113
4280.0,0.08123136327486032
4290.0,0.08138657212250731
4300.0,0.08145153408407826
4310.0,0.08151089447507717
4320.0,0.08155589219266123
4330.0,0.08160091095534695
4340.0,0.08164916307288697
4350.0,0.08170647841394044
4360.0,0.08176329663783011
4370.0,0.0818194632681996
4380.0,0.08187584265453342
4390.0,0.08189542816593613
4400.0,0.08189901681672004
4410.0,0.08190319452346762
4420.0,0.08190679095855681
4430.0,0.08193097178811329
4440.0,0.0819675715693224
4450.0,0.0820032094693949
4460.0,0.08203232294094101
4470.0,0.08199595253586488
4480.0,0.08195899224652375
4490.0,0.0819211189879534
4500.0,0.08183886426401002
4510.0,0.08175647695604316
4520.0,0.08167370856791975
4530.0,0.08159080128449256
4540.0,0.0815079019039398
4550.0,0.08135919093579781
4560.0,0.08112938831693876
4570.0,0.08098390677070803
4580.0,0.08084575390215913
4590.0,0.0807053860230622
4600.0,0.08056224703463769
4610.0,0.08041839012554654
4620.0,0.0802744061247097
4630.0,0.08011840282465847
4640.0,0.07993398441896524
4650.0,0.07974957640578918
4660.0,0.07956004688406042
4670.0,0.07936772826985752
4680.0,0.07917587373693497
4690.0,0.07895838576320206
4700.0,0.07859099071825253
4710.0,0.07822346772423033
4720.0,0.07785595047105034
4730.0,0.07753411445928103
4740.0,0.07724664676279593
4750.0,0.07695928774516345
4760.0,0.07667181629081517
4770.0,0.07642336537271958
4780.0,0.0762186000883984
4790.0,0.07601383670789216
4800.0,0.07580894652105563
4810.0,0.07560406052156934
4820.0,0.07537659378966376
4830.0,0.07511383341036597
4840.0,0.07484595101411247
4850.0,0.07457747853029999
4860.0,0.0742668555288663
4870.0,0.07394504639107388
4880.0,0.07363384635668534
4890.0,0.07335851611183786
4900.0,0.07308270382262243
4910.0,0.07286280724212016
4920.0,0.07267121160727033
4930.0,0.07247983874679569
4940.0,0.0723004580676613
4950.0,0.0721287602400474
4960.0,0.07180738554755176
4970.0,0.07157779606087851
4980.0,0.07132199584827088
4990.0,0.07104195575009631
5000.0,0.07076155096196786
5010.0,0.07048171832790699
5020.0,0.07020210097959134
5030.0,0.06990918783289356
5040.0,0.06961509944751684
5050.0,0.06932052702400794
5060.0,0.06901826378481109
5070.0,0.068698039521233
5080.0,0.06837791146775633
5090.0,0.06799729833700882
5100.0,0.06759813548945863
5110.0,0.06719847238318488
5120.0,0.06679858399300193
5130.0,0.06636235285234078
5140.0,0.06590047330364447
5150.0,0.06538761470221006
5160.0,0.06487484078045481
5170.0,0.06436261674277897
5180.0,0.06384948818493105
5190.0,0.06361240120994513
5200.0,0.0633835561856922
5210.0,0.06301370285130053
5220.0,0.06248690719590566
5230.0,0.06203040262627255
5240.0,0.061604574648477316
5250.0,0.06118514355478277
5260.0,0.060765708966605395
5270.0,0.060317806641628446
5280.0,0.05986047316790385
5290.0,0.05940352898721037
5300.0,0.058945902624773484
5310.0,0.058488086544140616
5320.0,0.05803026624536429
5330.0,0.05757247193037312
5340.0,0.05711449974657824
5350.0,0.05662776869686123
5360.0,0.05611287436255245
5370.0,0.0556226885190992
5380.0,0.05516376306948236
5390.0,0.054704877657410916
5400.0,0.05428534350215922
5410.0,0.053871507659662275
5420.0,0.05342720858247787
5430.0,0.05291125771112381
5440.0,0.0524083438000168
5450.0,0.05196384413973872
5460.0,0.051579242959586255
5470.0,0.051276129390050086
5480.0,0.05101449379707981
5490.0,0.05075273214664371
5500.0,0.050490762179868184
5510.0,0.05015846224829062
5520.0,0.04977280557115899
5530.0,0.04938699128526577
5540.0,0.04896424743056718
5550.0,0.048502419460259565
5560.0,0.04790511155682329
5570.0,0.04739790902551015
5580.0,0.046890713270580385
5590.0,0.04651691766569914
5600.0,0.04616810115722682
5610.0,0.045819138871511705
5620.0,0.045513628400214425
5630.0,0.045221266282262855
5640.0,0.04496984701842558
5650.0,0.044709776241989185
5660.0,0.04433800870683824
5670.0,0.04396613781373109
5680.0,0.04362558977439411
5690.0,0.043304574148335
5700.0,0.04298351050777137
5710.0,0.04266273309743418
5720.0,0.042399205569771635
5730.0,0.04218946440521459
5740.0,0.0419796494833526
5750.0,0.041770018323254623
5760.0,0.04156037891203725
5770.0,0.04132746696139154
5780.0,0.041092514993729755
5790.0,0.040857569536168606
5800.0,0.04063236979902307
5810.0,0.04042621911754029
5820.0,0.04022012433576949
5830.0,0.04001408434625533
5840.0,0.03980716498815679
5850.0,0.03959785864469529
5860.0,0.03938879836309111
5870.0,0.039179913420975716
5880.0,0.03897108558794498
5890.0,0.03876440224291509
5900.0,0.03855887075175269
5910.0,0.03835345870662209
5920.0,0.03814827436516647
5930.0,0.037926752254688334
5940.0,0.03769329558479776
5950.0,0.03746007028455342
5960.0,0.03722690079832716
5970.0,0.03704463050157278
5980.0,0.036862512907144575
5990.0,0.03668049455944019
6000.0,0.036498637061285866
6010.0,0.036319475301906406
6020.0,0.036144396190937504
6030.0,0.035969466218495866
6040.0,0.0357946267046315
6050.0,0.0356094609749574
6060.0,0.03540309526295659
6070.0,0.035196765167232656
6080.0,0.034990638345396466
6090.0,0.03478454778562443
6100.0,0.034597108710972706
6110.0,0.034416470673829004
6120.0,0.034235915837613706
6130.0,0.03405550197345855
6140.0,0.0338743083282049
6150.0,0.03368892236880854
6160.0,0.03350345470675846
6170.0,0.03331796651858335
6180.0,0.03313256009754556
6190.0,0.032947826926134835
6200.0,0.032781971483285655
6210.0,0.03261603769139237
6220.0,0.03245013226106627
6230.0,0.03227749754928549
6240.0,0.032097206630586156
6250.0,0.031916794139650984
6260.0,0.03173626345512086
6270.0,0.0315555680270984
6280.0,0.0313305183012043
6290.0,0.031099170549918984
6300.0,0.030867778117194253
6310.0,0.030636338093669908
6320.0,0.030430325980190926
6330.0,0.03023124590872506
6340.0,0.03003206485385548
6350.0,0.02982597112831563
6360.0,0.029594135557614133
6370.0,0.029362173989610357
6380.0,0.02913009353378678
6390.0,0.028897895776950937
6400.0,0.02868547919718942
6410.0,0.028485616909518455
6420.0,0.02828553717973301
6430.0,0.028086097232801796
6440.0,0.02790389202750259
6450.0,0.027721577397865342
6460.0,0.02753911094830256
6470.0,0.02735645993219488
6480.0,0.027184963678979275
6490.0,0.027027165848220118
6500.0,0.02686928561622071
6510.0,0.02671122115963204
6520.0,0.026552840599834066
6530.0,0.026394303071680912
6540.0,0.02623568205133468
6550.0,0.026076922617266195
6560.0,0.0259486275965786
6570.0,0.025827661203131836
6580.0,0.025706576836421437
6590.0,0.025585260381123905
6600.0,0.0254731053868534
6610.0,0.025364162139153785
6620.0,0.025255166661465312
6630.0,0.02514619891648678
6640.0,0.02503823472592289
6650.0,0.02493552097516132
6660.0,0.024832622465396574
6670.0,0.02472964764478428
6680.0,0.024626627165864754
6690.0,0.024523542254362783
6700.0,0.02441911488576263
6710.0,0.024284568100687486
6720.0,0.024150077683921235
6730.0,0.02401557123864483
6740.0,0.023881043704227216
6750.0,0.023730053233291512
6760.0,0.023559707570569823
6770.0,0.02338945255344744
6780.0,0.023219253470094143
6790.0,0.023112393358171963
6800.0,0.023013284537204432
6810.0,0.022902048358744074
6820.0,0.02276796816129902
6830.0,0.022633990094208384
6840.0,0.022500114157472186
6850.0,0.022366340351090416
6860.0,0.022256637603576865
6870.0,0.02215426760795315
6880.0,0.02205200015112673
6890.0,0.02194973863763674
6900.0,0.02184753140984859
6910.0,0.021745531708024894
6920.0,0.02160285903583459
6930.0,0.02143927757475095
6940.0,0.021275788894051163
6950.0,0.021112357279958045
6960.0,0.020949048428716154
6970.0,0.020785972281270645
6980.0,0.02062202146690835
6990.0,0.020422522626974044
7000.0,0.02022323070154296
7010.0,0.02002410168401807
7020.0,0.019831023394501504
7030.0,0.0196451293536935
7040.0,0.019459436419325002
7050.0,0.019193509504764318
7060.0,0.018919384743019577
7070.0,0.018660866661609182
7080.0,0.0184315369247351
7090.0,0.01820240553623561
7100.0,0.017973526790333247
7110.0,0.017744868379967638
7120.0,0.017516428827462363
7130.0,0.017272415161818155
7140.0,0.016970765520643506
7150.0,0.01671919481544203
7160.0,0.01649162613071486
