Wavelength,Transmission
1520.0,2.21699e-06
1525.0,2.26513e-06
1530.0,2.31944e-06
1535.0,2.36498e-06
1540.0,2.37732e-06
1545.0,2.41139e-06
1550.0,2.45064e-06
1555.0,2.4849e-06
1560.0,2.51812e-06
1565.0,2.57367e-06
1570.0,2.6153e-06
1575.0,2.7898e-06
1580.0,6.40052e-06
1585.0,1.01316e-05
1590.0,1.39544e-05
1595.0,1.79095e-05
1600.0,1.94288e-05
1605.0,2.11703e-05
1610.0,2.28069e-05
1615.0,2.44212e-05
1620.0,2.54903e-05
1625.0,2.47419e-05
1630.0,2.39477e-05
1635.0,2.30548e-05
1640.0,2.42017e-05
1645.0,2.3698e-05
1650.0,2.33281e-05
1655.0,2.29749e-05
1660.0,2.22245e-05
1665.0,2.11064e-05
1670.0,2.00962e-05
1675.0,1.89535e-05
1680.0,1.74435e-05
1685.0,1.57232e-05
1690.0,1.39093e-05
1695.0,1.2026e-05
1700.0,1.08404e-05
1705.0,1.09091e-05
1710.0,1.08517e-05
1715.0,1.06715e-05
1720.0,1.04585e-05
1725.0,1.02211e-05
1730.0,9.9706e-06
1735.0,9.70924e-06
1740.0,9.43421e-06
1745.0,9.14677e-06
1750.0,8.84412e-06
1755.0,8.5339e-06
1760.0,8.21662e-06
1765.0,7.88393e-06
1770.0,7.53819e-06
1775.0,7.18839e-06
1780.0,6.8336e-06
1785.0,6.50249e-06
1790.0,6.1059e-06
1795.0,5.65255e-06
1800.0,9.42835e-06
1805.0,1.01541e-05
1810.0,1.08771e-05
1815.0,1.16168e-05
1820.0,1.23729e-05
1825.0,1.31483e-05
1830.0,1.39405e-05
1835.0,1.47506e-05
1840.0,1.55792e-05
1845.0,1.64273e-05
1850.0,1.72904e-05
1855.0,1.81709e-05
1860.0,1.93816e-05
1865.0,2.06286e-05
1870.0,2.18913e-05
1875.0,2.31787e-05
1880.0,2.44918e-05
1885.0,2.5832e-05
1890.0,2.72052e-05
1895.0,2.86453e-05
1900.0,3.04001e-05
1905.0,3.21834e-05
1910.0,3.39681e-05
1915.0,3.57864e-05
1920.0,3.76227e-05
1925.0,3.94873e-05
1930.0,4.63285e-05
1935.0,5.48054e-05
1940.0,6.34477e-05
1945.0,7.23138e-05
1950.0,8.2065e-05
1955.0,9.19738e-05
1960.0,0.000101958
1965.0,0.000112793
1970.0,0.000125823
1975.0,0.000139075
1980.0,0.000152534
1985.0,0.000166192
1990.0,0.000183626
1995.0,0.000201279
2000.0,0.000219206
2005.0,0.000247932
2010.0,0.000280452
2015.0,0.000314119
2020.0,0.000355025
2025.0,0.000398471
2030.0,0.000448828
2035.0,0.000499694
2040.0,0.000543786
2045.0,0.000582848
2050.0,0.000656787
2055.0,0.000762883
2060.0,0.000851362
2065.0,0.00097141
2070.0,0.00113673
2075.0,0.0013401
2080.0,0.00154529
2085.0,0.00175274
2090.0,0.00192923
2095.0,0.00209887
2100.0,0.00228892
2105.0,0.00254941
2110.0,0.00281109
2115.0,0.0031053
2120.0,0.00335152
2125.0,0.00356686
2130.0,0.00381013
2135.0,0.00394936
2140.0,0.00405611
2145.0,0.00414496
2150.0,0.00420676
2155.0,0.00423109
2160.0,0.00425151
2165.0,0.00425493
2170.0,0.00424915
2175.0,0.00422801
2180.0,0.00420108
2185.0,0.00414953
2190.0,0.0040818
2195.0,0.00399796
2200.0,0.00389868
2205.0,0.00378086
2210.0,0.00367709
2215.0,0.00358391
2220.0,0.00344338
2225.0,0.00332551
2230.0,0.0032418
2235.0,0.00315729
2240.0,0.00299806
2245.0,0.00280617
2250.0,0.00265118
2255.0,0.00251538
2260.0,0.00233125
2265.0,0.00212604
2270.0,0.00196909
2275.0,0.0018393
2280.0,0.00170537
2285.0,0.00157112
2290.0,0.00146146
2295.0,0.00135233
2300.0,0.00117714
2305.0,0.0010284
2310.0,0.000922304
2315.0,0.000841203
2320.0,0.000769283
2325.0,0.000711084
2330.0,0.000662154
2335.0,0.000627161
2340.0,0.000551333
2345.0,0.000510486
2350.0,0.000469691
2355.0,0.000427872
2360.0,0.000385481
2365.0,0.000346896
2370.0,0.000309164
2375.0,0.000296831
2380.0,0.000284521
2385.0,0.000271667
2390.0,0.000245938
2395.0,0.000220832
2400.0,0.000210078
2405.0,0.000199299
2410.0,0.000188499
2415.0,0.000177714
2420.0,0.000166951
2425.0,0.000156205
2430.0,0.000145484
2435.0,0.000134781
2440.0,0.000124106
2445.0,0.000120807
2450.0,0.000117586
2455.0,0.000114369
2460.0,0.000111148
2465.0,0.000107879
2470.0,0.000104623
2475.0,9.7035e-05
2480.0,8.79506e-05
2485.0,7.89008e-05
2490.0,6.98858e-05
2495.0,6.38166e-05
2500.0,6.04899e-05
2505.0,5.71784e-05
2510.0,5.38818e-05
2515.0,5.06016e-05
2520.0,4.73216e-05
2525.0,4.40583e-05
2530.0,4.0812e-05
2535.0,3.75836e-05
2540.0,3.43807e-05
2545.0,3.2894e-05
2550.0,3.21964e-05
2555.0,3.15013e-05
2560.0,3.08085e-05
2565.0,3.00891e-05
2570.0,2.93601e-05
2575.0,2.86423e-05
2580.0,2.79787e-05
2585.0,2.73172e-05
2590.0,2.66549e-05
2595.0,2.60338e-05
2600.0,3.12037e-05
2605.0,3.04453e-05
2610.0,2.96914e-05
2615.0,2.89417e-05
2620.0,2.81959e-05
2625.0,2.7455e-05
2630.0,2.6732e-05
2635.0,2.60149e-05
2640.0,2.53014e-05
2645.0,2.45914e-05
2650.0,2.38939e-05
2655.0,2.3202e-05
2660.0,2.25131e-05
2665.0,2.18197e-05
2670.0,2.10962e-05
2675.0,2.03788e-05
2680.0,1.96717e-05
2685.0,1.89697e-05
2690.0,1.82728e-05
2695.0,1.88735e-05
2700.0,1.98779e-05
2705.0,2.0875e-05
2710.0,2.18645e-05
2715.0,2.28466e-05
2720.0,2.38211e-05
2725.0,2.47476e-05
2730.0,2.56582e-05
2735.0,2.65572e-05
2740.0,2.74444e-05
2745.0,2.83384e-05
2750.0,2.92272e-05
2755.0,3.01061e-05
2760.0,3.09714e-05
2765.0,3.18104e-05
2770.0,3.26379e-05
2775.0,3.34538e-05
2780.0,3.42557e-05
2785.0,3.50439e-05
2790.0,3.582e-05
2795.0,3.4751e-05
2800.0,3.36339e-05
2805.0,3.25273e-05
2810.0,3.14629e-05
2815.0,3.04103e-05
2820.0,2.93666e-05
2825.0,2.82973e-05
2830.0,2.71673e-05
2835.0,2.60808e-05
2840.0,2.50912e-05
2845.0,2.411e-05
2850.0,2.31199e-05
2855.0,2.20566e-05
2860.0,2.10043e-05
2865.0,1.99233e-05
2870.0,1.88622e-05
2875.0,1.78286e-05
2880.0,8.74871e-06
2885.0,4.16763e-06
