Wavelength,Transmission
1595.0,7.11384e-06
1600.0,6.77895e-06
1605.0,6.50209e-06
1610.0,6.15234e-06
1615.0,5.76665e-06
1620.0,5.55989e-06
1625.0,6.25372e-06
1630.0,6.96824e-06
1635.0,7.68569e-06
1640.0,8.41394e-06
1645.0,1.02815e-05
1650.0,1.34065e-05
1655.0,1.66931e-05
1660.0,2.00494e-05
1665.0,2.35364e-05
1670.0,2.73758e-05
1675.0,3.1319e-05
1680.0,3.52927e-05
1685.0,3.94019e-05
1690.0,4.3621e-05
1695.0,4.80164e-05
1700.0,5.26792e-05
1705.0,5.85265e-05
1710.0,6.41011e-05
1715.0,6.92574e-05
1720.0,7.44509e-05
1725.0,7.97135e-05
1730.0,8.51209e-05
1735.0,9.06976e-05
1740.0,9.64261e-05
1745.0,0.000103283
1750.0,0.000111045
1755.0,0.000119115
1760.0,0.000127538
1765.0,0.000136219
1770.0,0.000145217
1775.0,0.000155762
1780.0,0.000168146
1785.0,0.000182216
1790.0,0.000201092
1795.0,0.000212527
1800.0,0.000223961
1805.0,0.000235591
1810.0,0.000247007
1815.0,0.000260147
1820.0,0.000276596
1825.0,0.000293447
1830.0,0.000310646
1835.0,0.000328216
1840.0,0.000346397
1845.0,0.000370446
1850.0,0.000394933
1855.0,0.000419914
1860.0,0.000443405
1865.0,0.000465439
1870.0,0.000487669
1875.0,0.000520335
1880.0,0.000554345
1885.0,0.000589029
1890.0,0.000626734
1895.0,0.000666169
1900.0,0.000706399
1905.0,0.000758106
1910.0,0.00080816
1915.0,0.000865189
1920.0,0.000913564
1925.0,0.000962659
1930.0,0.00101339
1935.0,0.00109346
1940.0,0.00118637
1945.0,0.00128648
1950.0,0.00139523
1955.0,0.00151609
1960.0,0.00164374
1965.0,0.0017683
1970.0,0.00189353
1975.0,0.00201165
1980.0,0.00213145
1985.0,0.00225765
1990.0,0.00238747
1995.0,0.00254498
2000.0,0.00271916
2005.0,0.00289895
2010.0,0.00308167
2015.0,0.0032691
2020.0,0.00345768
2025.0,0.00365161
2030.0,0.00385096
2035.0,0.00405144
2040.0,0.00425307
2045.0,0.00445965
2050.0,0.00468153
2055.0,0.00495081
2060.0,0.00526083
2065.0,0.00552706
2070.0,0.00573184
2075.0,0.00599519
2080.0,0.0062245
2085.0,0.00644724
2090.0,0.00665459
2095.0,0.00683167
2100.0,0.00699657
2105.0,0.00713817
2110.0,0.00726477
2115.0,0.00738958
2120.0,0.00751766
2125.0,0.00765048
2130.0,0.00778
2135.0,0.00789453
2140.0,0.00800108
2145.0,0.00809177
2150.0,0.00814749
2155.0,0.00818762
2160.0,0.00822771
2165.0,0.00825718
2170.0,0.00828308
2175.0,0.00827887
2180.0,0.00827852
2185.0,0.00827715
2190.0,0.0082557
2195.0,0.00822203
2200.0,0.00817473
2205.0,0.00812526
2210.0,0.00807729
2215.0,0.00802534
2220.0,0.00797192
2225.0,0.00791244
2230.0,0.00784209
2235.0,0.00775855
2240.0,0.00767363
2245.0,0.00758404
2250.0,0.0074967
2255.0,0.0074046
2260.0,0.00730983
2265.0,0.00720353
2270.0,0.00709712
2275.0,0.00698937
2280.0,0.00687186
2285.0,0.00673591
2290.0,0.00659988
2295.0,0.00646301
2300.0,0.00632607
2305.0,0.00619616
2310.0,0.0060668
2315.0,0.00591926
2320.0,0.00577129
2325.0,0.00562712
2330.0,0.00548899
2335.0,0.00535042
2340.0,0.00520175
2345.0,0.00504966
2350.0,0.00490457
2355.0,0.00476939
2360.0,0.00463394
2365.0,0.00449775
2370.0,0.00436138
2375.0,0.00419432
2380.0,0.00401765
2385.0,0.00390047
2390.0,0.00380713
2395.0,0.00366853
2400.0,0.00348645
2405.0,0.00334943
2410.0,0.00323212
2415.0,0.00309881
2420.0,0.00295786
2425.0,0.0028089
2430.0,0.00265009
2435.0,0.00251019
2440.0,0.00239563
2445.0,0.0022813
2450.0,0.0021684
2455.0,0.0020605
2460.0,0.00195269
2465.0,0.00186352
2470.0,0.00178075
2475.0,0.00169827
2480.0,0.00162182
2485.0,0.00155794
2490.0,0.00149432
2495.0,0.00143095
2500.0,0.00136655
2505.0,0.00130162
2510.0,0.00123699
2515.0,0.00117271
2520.0,0.0011109
2525.0,0.00105303
2530.0,0.000995463
2535.0,0.000933069
2540.0,0.000867338
2545.0,0.000806376
2550.0,0.000770675
2555.0,0.000735122
2560.0,0.000699715
2565.0,0.000666781
2570.0,0.000635106
2575.0,0.000603792
2580.0,0.00057392
2585.0,0.000550442
2590.0,0.000526993
2595.0,0.000502841
2600.0,0.000478842
2605.0,0.00045493
2610.0,0.000434321
2615.0,0.000413448
2620.0,0.000391449
2625.0,0.000369603
2630.0,0.000348086
2635.0,0.000326719
2640.0,0.000306031
2645.0,0.000296226
2650.0,0.000286577
2655.0,0.000277008
2660.0,0.000267481
2665.0,0.000257912
2670.0,0.000247999
2675.0,0.000240296
2680.0,0.000233128
2685.0,0.000226013
2690.0,0.000218949
2695.0,0.00021205
2700.0,0.00020529
2705.0,0.000198572
2710.0,0.000191895
2715.0,0.000185243
2720.0,0.000176892
2725.0,0.000168321
2730.0,0.000159799
2735.0,0.000151359
2740.0,0.000143
2745.0,0.000134811
2750.0,0.000126719
2755.0,0.000122766
2760.0,0.000119985
2765.0,0.000117167
2770.0,0.000114371
2775.0,0.000111597
2780.0,0.000108837
2785.0,0.000106095
2790.0,0.000109796
2795.0,0.000104322
2800.0,9.89066e-05
2805.0,9.35504e-05
2810.0,8.83417e-05
2815.0,8.31908e-05
2820.0,7.80893e-05
2825.0,7.29487e-05
2830.0,8.22629e-05
2835.0,8.20421e-05
2840.0,7.83994e-05
2845.0,7.47892e-05
2850.0,7.11591e-05
2855.0,6.73134e-05
2860.0,6.35137e-05
2865.0,5.98131e-05
2870.0,5.73175e-05
2875.0,5.48876e-05
2880.0,5.24996e-05
2885.0,5.0153e-05
2890.0,4.78861e-05
2895.0,4.56634e-05
2900.0,4.348e-05
2905.0,4.13362e-05
2910.0,3.91114e-05
2915.0,3.68936e-05
2920.0,3.44446e-05
2925.0,4.34584e-05
2930.0,4.13145e-05
2935.0,3.94419e-05
2940.0,3.79794e-05
2945.0,3.65823e-05
2950.0,3.50135e-05
2955.0,3.37489e-05
2960.0,3.26045e-05
2965.0,3.13981e-05
2970.0,3.01773e-05
2975.0,2.84615e-05
2980.0,2.69219e-05
2985.0,2.60949e-05
2990.0,2.52452e-05
2995.0,2.43696e-05
3000.0,2.36315e-05
3005.0,2.30316e-05
3010.0,2.24302e-05
3015.0,2.17208e-05
3020.0,2.09948e-05
3025.0,2.03205e-05
3030.0,1.98541e-05
3035.0,1.95047e-05
3040.0,1.90839e-05
3045.0,1.86118e-05
3050.0,1.82069e-05
3055.0,1.78009e-05
3060.0,1.74403e-05
3065.0,1.71384e-05
3070.0,1.67753e-05
3075.0,1.63129e-05
3080.0,1.47936e-05
3085.0,1.26725e-05
