Wavelength,Transmission
1585.0,3.44707e-06
1590.0,5.69062e-06
1595.0,8.06398e-06
1600.0,9.49344e-06
1605.0,1.08496e-05
1610.0,1.22153e-05
1615.0,1.3184e-05
1620.0,1.51943e-05
1625.0,1.72503e-05
1630.0,1.93747e-05
1635.0,2.17512e-05
1640.0,2.42944e-05
1645.0,2.69235e-05
1650.0,2.84858e-05
1655.0,3.01512e-05
1660.0,3.16828e-05
1665.0,3.30756e-05
1670.0,3.49238e-05
1675.0,3.70368e-05
1680.0,3.73507e-05
1685.0,3.69863e-05
1690.0,3.55614e-05
1695.0,3.41789e-05
1700.0,3.42604e-05
1705.0,3.47516e-05
1710.0,3.50631e-05
1715.0,3.53888e-05
1720.0,3.57129e-05
1725.0,3.60574e-05
1730.0,3.6405e-05
1735.0,3.67597e-05
1740.0,3.71051e-05
1745.0,3.74538e-05
1750.0,3.78822e-05
1755.0,3.83395e-05
1760.0,3.89174e-05
1765.0,3.92096e-05
1770.0,3.94552e-05
1775.0,4.03021e-05
1780.0,4.12184e-05
1785.0,4.20518e-05
1790.0,4.23511e-05
1795.0,4.26542e-05
1800.0,4.33006e-05
1805.0,4.39179e-05
1810.0,4.45414e-05
1815.0,4.5146e-05
1820.0,4.57562e-05
1825.0,4.63851e-05
1830.0,4.70201e-05
1835.0,4.77259e-05
1840.0,4.84391e-05
1845.0,4.92822e-05
1850.0,5.01352e-05
1855.0,5.11467e-05
1860.0,5.21706e-05
1865.0,5.29483e-05
1870.0,5.37341e-05
1875.0,5.44054e-05
1880.0,5.50828e-05
1885.0,5.57693e-05
1890.0,5.64619e-05
1895.0,5.72029e-05
1900.0,5.67237e-05
1905.0,5.62407e-05
1910.0,5.57319e-05
1915.0,5.52083e-05
1920.0,5.46577e-05
1925.0,5.39334e-05
1930.0,5.31866e-05
1935.0,5.23802e-05
1940.0,5.15526e-05
1945.0,5.07324e-05
1950.0,4.98892e-05
1955.0,4.89316e-05
1960.0,4.79543e-05
1965.0,4.6933e-05
1970.0,4.58927e-05
1975.0,4.48246e-05
1980.0,4.37379e-05
1985.0,4.2629e-05
1990.0,4.15015e-05
1995.0,4.03547e-05
2000.0,5.30936e-05
2005.0,5.57259e-05
2010.0,5.83821e-05
2015.0,6.10337e-05
2020.0,6.37064e-05
2025.0,6.63689e-05
2030.0,6.90498e-05
2035.0,7.15862e-05
2040.0,7.41279e-05
2045.0,7.66282e-05
2050.0,7.91293e-05
2055.0,8.15094e-05
2060.0,8.38811e-05
2065.0,8.64704e-05
2070.0,8.90663e-05
2075.0,9.13005e-05
2080.0,9.35165e-05
2085.0,9.61044e-05
2090.0,9.86975e-05
2095.0,0.000100468
2100.0,0.000102195
2105.0,0.000104127
2110.0,0.000106026
2115.0,0.000107956
2120.0,0.000109855
2125.0,0.000112053
2130.0,0.000114238
2135.0,0.000116815
2140.0,0.000119398
2145.0,0.000121967
2150.0,0.000124542
2155.0,0.000127101
2160.0,0.000129664
2165.0,0.00013219
2170.0,0.000134718
2175.0,0.000137334
2180.0,0.000139956
2185.0,0.000142568
2190.0,0.000145186
2195.0,0.000149946
2200.0,0.000157486
2205.0,0.000165146
2210.0,0.000172832
2215.0,0.000180529
2220.0,0.000188252
2225.0,0.000196251
2230.0,0.000204296
2235.0,0.000212395
2240.0,0.000220541
2245.0,0.000228649
2250.0,0.000236798
2255.0,0.000244772
2260.0,0.000252771
2265.0,0.000260758
2270.0,0.00026877
2275.0,0.000276766
2280.0,0.000284786
2285.0,0.000292788
2290.0,0.000300814
2295.0,0.000316409
2300.0,0.000339187
2305.0,0.00036198
2310.0,0.000384822
2315.0,0.000407667
2320.0,0.000430557
2325.0,0.000453442
2330.0,0.000477187
2335.0,0.000500933
2340.0,0.000524714
2345.0,0.000548733
2350.0,0.000574233
2355.0,0.000600152
2360.0,0.000626143
2365.0,0.000664066
2370.0,0.000703829
2375.0,0.000743606
2380.0,0.000792743
2385.0,0.000857523
2390.0,0.000922386
2395.0,0.000990668
2400.0,0.0010626
2405.0,0.00113546
2410.0,0.00121362
2415.0,0.00130216
2420.0,0.00140403
2425.0,0.00150318
2430.0,0.00159441
2435.0,0.0016862
2440.0,0.00182925
2445.0,0.00197233
2450.0,0.00211259
2455.0,0.0022977
2460.0,0.00249032
2465.0,0.00268375
2470.0,0.00288641
2475.0,0.0030936
2480.0,0.0033017
2485.0,0.00351073
2490.0,0.00373591
2495.0,0.00397625
2500.0,0.00421896
2505.0,0.0045291
2510.0,0.00489596
2515.0,0.00523626
2520.0,0.00556181
2525.0,0.00587681
2530.0,0.00619442
2535.0,0.00651509
2540.0,0.00682489
2545.0,0.00713036
2550.0,0.0074446
2555.0,0.00784415
2560.0,0.00825116
2565.0,0.00863773
2570.0,0.00894295
2575.0,0.00907316
2580.0,0.00917977
2585.0,0.0092991
2590.0,0.0093762
2595.0,0.00943271
2600.0,0.00945526
2605.0,0.00943567
2610.0,0.00939915
2615.0,0.00935059
2620.0,0.00930117
2625.0,0.00924887
2630.0,0.00913445
2635.0,0.00903368
2640.0,0.00896091
2645.0,0.00887831
2650.0,0.00879515
2655.0,0.00869381
2660.0,0.00855964
2665.0,0.00842424
2670.0,0.00828812
2675.0,0.0081539
2680.0,0.00802311
2685.0,0.00788491
2690.0,0.00774637
2695.0,0.00765576
2700.0,0.00754948
2705.0,0.00743849
2710.0,0.00732738
2715.0,0.00721398
2720.0,0.00709665
2725.0,0.00696175
2730.0,0.00682676
2735.0,0.00668983
2740.0,0.00655288
2745.0,0.00638934
2750.0,0.00619064
2755.0,0.00599015
2760.0,0.00578983
2765.0,0.00560864
2770.0,0.00542997
2775.0,0.00523432
2780.0,0.00503853
2785.0,0.00484151
2790.0,0.00464444
2795.0,0.00444742
2800.0,0.00425074
2805.0,0.00405412
2810.0,0.00385753
2815.0,0.003661
2820.0,0.00346778
2825.0,0.00331033
2830.0,0.0031529
2835.0,0.002995
2840.0,0.00283718
2845.0,0.00267967
2850.0,0.00252423
2855.0,0.00236805
2860.0,0.00221216
2865.0,0.00205673
2870.0,0.00190158
2875.0,0.00178704
2880.0,0.00164772
2885.0,0.00150992
2890.0,0.00137378
2895.0,0.00130767
2900.0,0.00124166
2905.0,0.00117198
2910.0,0.00110517
2915.0,0.00104701
2920.0,0.000989343
2925.0,0.00093384
2930.0,0.000878659
2935.0,0.00082445
2940.0,0.000770485
2945.0,0.000716864
2950.0,0.000673461
2955.0,0.000630628
2960.0,0.000587974
2965.0,0.00054446
2970.0,0.000501286
2975.0,0.000458448
2980.0,0.000415956
2985.0,0.000393769
2990.0,0.000383488
2995.0,0.000375745
3000.0,0.000368069
3005.0,0.000362475
3010.0,0.000356905
3015.0,0.00035064
3020.0,0.000344413
3025.0,0.000338075
3030.0,0.000331779
3035.0,0.000325656
3040.0,0.000319571
3045.0,0.000313633
3050.0,0.000307735
3055.0,0.000301917
3060.0,0.000296134
3065.0,0.00029028
3070.0,0.000284464
3075.0,0.000278043
3080.0,0.00027168
3085.0,0.000266253
3090.0,0.000260861
3095.0,0.000255436
3100.0,0.000250045
3105.0,0.000244611
3110.0,0.000239214
3115.0,0.000234092
3120.0,0.000228998
3125.0,0.000223859
3130.0,0.000218751
3135.0,0.000213358
3140.0,0.000208009
3145.0,0.000202487
3150.0,0.000197019
3155.0,0.000192234
3160.0,0.000187478
3165.0,0.000182945
3170.0,0.000178431
3175.0,0.000174153
3180.0,0.000169885
3185.0,0.000165721
3190.0,0.000161563
3195.0,0.000157277
3200.0,0.000153006
3205.0,0.000148753
3210.0,0.000144514
3215.0,0.000140364
3220.0,0.000136223
3225.0,0.000132091
3230.0,0.000127968
3235.0,0.000123839
3240.0,0.00011972
3245.0,0.000115597
3250.0,0.000111485
3255.0,0.000107384
3260.0,0.000103295
3265.0,9.9246e-05
3270.0,9.52066e-05
3275.0,9.12117e-05
3280.0,8.72235e-05
3285.0,8.32425e-05
3290.0,7.9268e-05
3295.0,7.5256e-05
3300.0,7.12554e-05
3305.0,6.72996e-05
3310.0,6.33515e-05
3315.0,5.94786e-05
3320.0,5.5605e-05
3325.0,5.17255e-05
3330.0,4.78459e-05
3335.0,4.39558e-05
3340.0,4.00678e-05
3345.0,3.8763e-05
3350.0,3.83845e-05
3355.0,4.97325e-05
3360.0,4.93777e-05
3365.0,5.87072e-05
3370.0,6.04201e-05
3375.0,6.00852e-05
3380.0,5.97491e-05
3385.0,4.76383e-05
