Wavelength,Transmission
1555.0,3.68725e-06
1560.0,5.80906e-06
1565.0,6.48855e-06
1570.0,8.53219e-06
1575.0,1.29023e-05
1580.0,1.47289e-05
1585.0,2.05171e-05
1590.0,2.56982e-05
1595.0,2.98877e-05
1600.0,3.34796e-05
1605.0,3.75965e-05
1610.0,4.16726e-05
1615.0,4.38049e-05
1620.0,4.59753e-05
1625.0,4.82131e-05
1630.0,5.05786e-05
1635.0,5.35091e-05
1640.0,5.67268e-05
1645.0,6.09031e-05
1650.0,6.51342e-05
1655.0,6.91146e-05
1660.0,7.28071e-05
1665.0,7.61841e-05
1670.0,8.06269e-05
1675.0,8.89054e-05
1680.0,9.6144e-05
1685.0,0.000102344
1690.0,0.000106094
1695.0,0.000110314
1700.0,0.000114933
1705.0,0.000118505
1710.0,0.000121533
1715.0,0.00012467
1720.0,0.000127864
1725.0,0.000131176
1730.0,0.000134565
1735.0,0.000138048
1740.0,0.000141564
1745.0,0.000145142
1750.0,0.000149866
1755.0,0.000154884
1760.0,0.000160519
1765.0,0.000165066
1770.0,0.000169508
1775.0,0.000176231
1780.0,0.000184688
1785.0,0.000192995
1790.0,0.000199033
1795.0,0.000205199
1800.0,0.000216808
1805.0,0.000223656
1810.0,0.000230632
1815.0,0.000237606
1820.0,0.000244704
1825.0,0.000251962
1830.0,0.000267992
1835.0,0.000280873
1840.0,0.000294035
1845.0,0.000314007
1850.0,0.000329907
1855.0,0.000347204
1860.0,0.000364979
1865.0,0.00038132
1870.0,0.000398005
1875.0,0.00041206
1880.0,0.000430967
1885.0,0.000450626
1890.0,0.000470638
1895.0,0.000491368
1900.0,0.00051331
1905.0,0.000541641
1910.0,0.000570601
1915.0,0.00060032
1920.0,0.000630693
1925.0,0.00065957
1930.0,0.000688797
1935.0,0.000718028
1940.0,0.000747736
1945.0,0.000778285
1950.0,0.000812634
1955.0,0.000846988
1960.0,0.000881824
1965.0,0.000916566
1970.0,0.000963016
1975.0,0.00101097
1980.0,0.00105954
1985.0,0.00111362
1990.0,0.00116917
1995.0,0.0012254
2000.0,0.00128856
2005.0,0.00135881
2010.0,0.00143506
2015.0,0.00152013
2020.0,0.00160586
2025.0,0.0016669
2030.0,0.00173711
2035.0,0.00180367
2040.0,0.00187463
2045.0,0.00194898
2050.0,0.00204857
2055.0,0.0021762
2060.0,0.00226062
2065.0,0.00236642
2070.0,0.00247242
2075.0,0.00257004
2080.0,0.00266832
2085.0,0.00277756
2090.0,0.00289281
2095.0,0.00298365
2100.0,0.00306712
2105.0,0.00314971
2110.0,0.00323097
2115.0,0.00331281
2120.0,0.00342715
2125.0,0.00355876
2130.0,0.00368956
2135.0,0.00384196
2140.0,0.00401378
2145.0,0.00418486
2150.0,0.00432146
2155.0,0.00443993
2160.0,0.00455842
2165.0,0.00468096
2170.0,0.00482702
2175.0,0.00497615
2180.0,0.00509184
2185.0,0.00519529
2190.0,0.00529874
2195.0,0.00540153
2200.0,0.00549342
2205.0,0.00558296
2210.0,0.00567258
2215.0,0.00576174
2220.0,0.00585907
2225.0,0.00596564
2230.0,0.00607255
2235.0,0.00617252
2240.0,0.00627031
2245.0,0.00636565
2250.0,0.00644763
2255.0,0.00651805
2260.0,0.00658852
2265.0,0.00665761
2270.0,0.00672383
2275.0,0.00677509
2280.0,0.00682633
2285.0,0.00687627
2290.0,0.00692617
2295.0,0.0069641
2300.0,0.00700147
2305.0,0.00704533
2310.0,0.00708143
2315.0,0.00711853
2320.0,0.00717644
2325.0,0.00723015
2330.0,0.00724618
2335.0,0.00726506
2340.0,0.00728387
2345.0,0.00729757
2350.0,0.0073158
2355.0,0.0073386
2360.0,0.00735042
2365.0,0.00735784
2370.0,0.00736523
2375.0,0.00736721
2380.0,0.00735932
2385.0,0.00734696
2390.0,0.00733458
2395.0,0.00732152
2400.0,0.00729898
2405.0,0.00728156
2410.0,0.00726411
2415.0,0.00724631
2420.0,0.00722514
2425.0,0.00720282
2430.0,0.00718048
2435.0,0.00715934
2440.0,0.00711475
2445.0,0.00707324
2450.0,0.00704522
2455.0,0.00701792
2460.0,0.0069798
2465.0,0.00693702
2470.0,0.00689418
2475.0,0.00684577
2480.0,0.00679659
2485.0,0.00674716
2490.0,0.00669966
2495.0,0.00667347
2500.0,0.00664687
2505.0,0.00664538
2510.0,0.00663236
2515.0,0.00660247
2520.0,0.00656857
2525.0,0.00651228
2530.0,0.00645559
2535.0,0.00644421
2540.0,0.00642455
2545.0,0.00639595
2550.0,0.00636473
2555.0,0.0063807
2560.0,0.0063942
2565.0,0.00638349
2570.0,0.00636745
2575.0,0.00629946
2580.0,0.0062293
2585.0,0.00617298
2590.0,0.00611558
2595.0,0.00605938
2600.0,0.00599744
2605.0,0.00590995
2610.0,0.00582196
2615.0,0.00573885
2620.0,0.00565417
2625.0,0.00556923
2630.0,0.00548355
2635.0,0.00536431
2640.0,0.00523715
2645.0,0.00512316
2650.0,0.00502308
2655.0,0.0049199
2660.0,0.00481654
2665.0,0.00471273
2670.0,0.00460877
2675.0,0.00450534
2680.0,0.00440194
2685.0,0.00429476
2690.0,0.00418768
2695.0,0.00407511
2700.0,0.0039568
2705.0,0.00383632
2710.0,0.00371609
2715.0,0.00361942
2720.0,0.00351649
2725.0,0.00341387
2730.0,0.00331153
2735.0,0.00320859
2740.0,0.00310599
2745.0,0.00300315
2750.0,0.00290075
2755.0,0.00279824
2760.0,0.00269616
2765.0,0.0025946
2770.0,0.00249348
2775.0,0.00239463
2780.0,0.00229931
2785.0,0.00222342
2790.0,0.00214777
2795.0,0.0020719
2800.0,0.00199631
2805.0,0.00192102
2810.0,0.001846
2815.0,0.0017942
2820.0,0.00173579
2825.0,0.00167761
2830.0,0.00161965
2835.0,0.00156162
2840.0,0.00150383
2845.0,0.00144663
2850.0,0.00139251
2855.0,0.00133811
2860.0,0.001284
2865.0,0.00123028
2870.0,0.00117684
2875.0,0.00112405
2880.0,0.00107151
2885.0,0.00102996
2890.0,0.00099212
2895.0,0.000953336
2900.0,0.000914748
2905.0,0.000873549
2910.0,0.00083278
2915.0,0.000791875
2920.0,0.000753031
2925.0,0.000731322
2930.0,0.000706466
2935.0,0.000682364
2940.0,0.000658443
2945.0,0.000634796
2950.0,0.000611328
2955.0,0.000588083
2960.0,0.000563724
2965.0,0.000542976
2970.0,0.00052244
2975.0,0.000502118
2980.0,0.000482008
2985.0,0.000462117
2990.0,0.000442439
2995.0,0.000422586
3000.0,0.000405261
3005.0,0.000388287
3010.0,0.000371444
3015.0,0.000354019
3020.0,0.000336789
3025.0,0.000319618
3030.0,0.000302656
3035.0,0.000286018
3040.0,0.000269574
3045.0,0.000253418
3050.0,0.000239337
3055.0,0.000232196
3060.0,0.000224702
3065.0,0.000217207
3070.0,0.000209795
3075.0,0.000201996
3080.0,0.000194307
3085.0,0.000187303
3090.0,0.0001794
3095.0,0.000171536
3100.0,0.000163756
3105.0,0.000156015
3110.0,0.000148362
3115.0,0.000140943
3120.0,0.000133598
3125.0,0.000126287
3130.0,0.000119056
3135.0,0.000111737
3140.0,0.000105756
3145.0,0.00010252
3150.0,9.93261e-05
3155.0,9.64903e-05
3160.0,9.36807e-05
3165.0,9.09954e-05
3170.0,8.83309e-05
3175.0,8.57932e-05
3180.0,8.32708e-05
3185.0,8.08096e-05
3190.0,7.83612e-05
3195.0,7.58608e-05
3200.0,7.33768e-05
3205.0,7.09133e-05
3210.0,6.84661e-05
3215.0,6.60708e-05
3220.0,6.36893e-05
3225.0,6.13226e-05
3230.0,5.89697e-05
3235.0,5.66232e-05
3240.0,5.4291e-05
3245.0,5.19672e-05
3250.0,4.96581e-05
3255.0,4.73639e-05
3260.0,4.50845e-05
3265.0,4.28327e-05
3270.0,4.05946e-05
3275.0,3.95073e-05
3280.0,3.92435e-05
3285.0,3.89814e-05
3290.0,3.872e-05
3295.0,3.84367e-05
3300.0,3.81545e-05
3305.0,3.78926e-05
3310.0,3.76317e-05
3315.0,3.7414e-05
3320.0,3.71967e-05
3325.0,3.69768e-05
3330.0,3.67574e-05
3335.0,3.65296e-05
3340.0,3.63025e-05
3345.0,3.61154e-05
3350.0,3.59284e-05
3355.0,3.57529e-05
3360.0,3.55776e-05
3365.0,3.5403e-05
3370.0,3.52286e-05
3375.0,3.50598e-05
3380.0,3.48911e-05
3385.0,3.47421e-05
3390.0,3.45928e-05
3395.0,3.44409e-05
3400.0,3.4289e-05
3405.0,3.41544e-05
3410.0,3.40197e-05
3415.0,3.38678e-05
3420.0,3.37157e-05
3425.0,3.35827e-05
3430.0,3.34494e-05
3435.0,3.33158e-05
3440.0,3.3182e-05
3445.0,3.3056e-05
3450.0,3.29298e-05
3455.0,3.2807e-05
3460.0,3.26837e-05
3465.0,3.2568e-05
3470.0,3.24517e-05
3475.0,3.13599e-05
3480.0,2.69746e-05
3485.0,2.69897e-05
