Wavelength,Transmission
1150.0,0.00154997
1160.0,0.00567335
1162.0,0.00705075
1163.0,0.00773268
1164.0,0.00844854
1165.0,0.0092144
1166.0,0.0100244
1167.0,0.0108799
1168.0,0.0117822
1169.0,0.0127327
1170.0,0.0137328
1171.0,0.0147542
1172.0,0.0158244
1173.0,0.0169445
1174.0,0.0181159
1175.0,0.0193277
1176.0,0.0203793
1177.0,0.0214693
1178.0,0.022585
1179.0,0.0237538
1180.0,0.024949
1181.0,0.0261392
1182.0,0.0273516
1183.0,0.0286173
1184.0,0.0299056
1185.0,0.0312495
1186.0,0.0326164
1187.0,0.0340412
1188.0,0.0354894
1189.0,0.036998
1190.0,0.0385303
1191.0,0.0399957
1192.0,0.0414764
1193.0,0.043013
1194.0,0.0445649
1195.0,0.0461746
1196.0,0.0477995
1197.0,0.0494841
1198.0,0.0511838
1199.0,0.0529452
1200.0,0.054697
1201.0,0.0559387
1202.0,0.0571695
1203.0,0.058414
1204.0,0.0596987
1205.0,0.0609712
1206.0,0.0622575
1207.0,0.0635576
1208.0,0.0648718
1209.0,0.0661999
1210.0,0.0675421
1211.0,0.0689065
1212.0,0.0702854
1213.0,0.0716788
1214.0,0.0730869
1215.0,0.0745097
1216.0,0.0759138
1217.0,0.0770649
1218.0,0.0781878
1219.0,0.079316
1220.0,0.0803788
1221.0,0.0807395
1222.0,0.0810301
1223.0,0.0813212
1224.0,0.0816129
1225.0,0.0819052
1226.0,0.0820903
1227.0,0.0822394
1228.0,0.0824244
1229.0,0.0826094
1230.0,0.082758
1231.0,0.0828925
1232.0,0.0829906
1233.0,0.0831249
1234.0,0.0832592
1235.0,0.0833568
1236.0,0.0834909
1237.0,0.0835881
1238.0,0.083722
1239.0,0.0838559
1240.0,0.0839527
1241.0,0.0840395
1242.0,0.0840892
1243.0,0.0841759
1244.0,0.0842625
1245.0,0.0843118
1246.0,0.0843983
1247.0,0.0844847
1248.0,0.0845336
1249.0,0.0846198
1250.0,0.0846684
1251.0,0.0848233
1252.0,0.0849778
1253.0,0.0850941
1254.0,0.0852478
1255.0,0.0853631
1256.0,0.085516
1257.0,0.0856685
1258.0,0.0857823
1259.0,0.085934
1260.0,0.0860468
1261.0,0.0859914
1262.0,0.0859359
1263.0,0.0858418
1264.0,0.0857862
1265.0,0.085692
1266.0,0.0856364
1267.0,0.0855807
1268.0,0.0854864
1269.0,0.0854307
1270.0,0.0853362
1271.0,0.0852571
1272.0,0.0851779
1273.0,0.08506
1274.0,0.0849809
1275.0,0.0848631
1276.0,0.0847452
1277.0,0.0846274
1278.0,0.0845096
1279.0,0.0843918
1280.0,0.084274
1281.0,0.0841032
1282.0,0.083971
1283.0,0.083839
1284.0,0.083707
1285.0,0.083575
1286.0,0.0834044
1287.0,0.0832725
1288.0,0.0831407
1289.0,0.0830089
1290.0,0.0828771
1291.0,0.0826994
1292.0,0.0825604
1293.0,0.0824214
1294.0,0.0822825
1295.0,0.0821436
1296.0,0.0820048
1297.0,0.0818276
1298.0,0.0816889
1299.0,0.0815503
1300.0,0.0814118
1301.0,0.0812325
1302.0,0.0810532
1303.0,0.0808741
1304.0,0.0807335
1305.0,0.0805545
1306.0,0.0803756
1307.0,0.0801968
1308.0,0.0800182
1309.0,0.079878
1310.0,0.0796994
1311.0,0.0795228
1312.0,0.0793462
1313.0,0.0791697
1314.0,0.0790317
1315.0,0.0788554
1316.0,0.0786791
1317.0,0.078503
1318.0,0.078327
1319.0,0.0781893
1320.0,0.0780134
1321.0,0.0778396
1322.0,0.0776659
1323.0,0.0774923
1324.0,0.0773569
1325.0,0.0771835
1326.0,0.0769719
1327.0,0.0767986
1328.0,0.0766253
1329.0,0.0764522
1330.0,0.076241
1331.0,0.0760688
1332.0,0.0758968
1333.0,0.0757248
1334.0,0.0755528
1335.0,0.0753429
1336.0,0.0751711
1337.0,0.0749995
1338.0,0.0748279
1339.0,0.0746183
1340.0,0.0744469
1341.0,0.0742756
1342.0,0.0741043
1343.0,0.0738952
1344.0,0.0737241
1345.0,0.0735531
1346.0,0.0733822
1347.0,0.0731734
1348.0,0.0730026
1349.0,0.072832
1350.0,0.0726614
1351.0,0.0724529
1352.0,0.0722824
1353.0,0.072074
1354.0,0.0719037
1355.0,0.0716955
1356.0,0.0715254
1357.0,0.0713174
1358.0,0.0711095
1359.0,0.0709396
1360.0,0.0707319
1361.0,0.0705621
1362.0,0.0703545
1363.0,0.0701849
1364.0,0.0699775
1365.0,0.069808
1366.0,0.0696008
1367.0,0.0694315
1368.0,0.0692244
1369.0,0.0690553
1370.0,0.0688484
1371.0,0.0686792
1372.0,0.0684723
1373.0,0.0683033
1374.0,0.0680966
1375.0,0.0679277
1376.0,0.0677212
1377.0,0.0675148
1378.0,0.0673462
1379.0,0.06714
1380.0,0.0669339
1381.0,0.0667651
1382.0,0.0665587
1383.0,0.0663524
1384.0,0.0661838
1385.0,0.0659778
1386.0,0.0658094
1387.0,0.0656035
1388.0,0.0653977
1389.0,0.0652296
1390.0,0.065024
1391.0,0.0648177
1392.0,0.0646492
1393.0,0.0644431
1394.0,0.0642372
1395.0,0.0640689
1396.0,0.0638632
1397.0,0.0636576
1398.0,0.0634896
1399.0,0.0632842
1400.0,0.0630789
1401.0,0.0629102
1402.0,0.0627041
1403.0,0.0625356
1404.0,0.0623138
1405.0,0.0620922
1406.0,0.0619082
1407.0,0.061687
1408.0,0.061466
1409.0,0.0612826
1410.0,0.0610621
1411.0,0.0608405
1412.0,0.0606564
1413.0,0.0604353
1414.0,0.0602145
1415.0,0.060031
1416.0,0.0598105
1417.0,0.0595903
1418.0,0.0594074
1419.0,0.0591877
1420.0,0.0590052
1421.0,0.0587843
1422.0,0.0585637
1423.0,0.0583804
1424.0,0.0581602
1425.0,0.0579403
1426.0,0.0577575
1427.0,0.0575381
1428.0,0.0573188
1429.0,0.0571367
1430.0,0.0569179
1431.0,0.0567345
1432.0,0.0565144
1433.0,0.0562946
1434.0,0.0561117
1435.0,0.0558924
1436.0,0.05571
1437.0,0.0554911
1438.0,0.0552725
1439.0,0.0550907
1440.0,0.0548726
1441.0,0.0546892
1442.0,0.0544695
1443.0,0.0542866
1444.0,0.0540675
1445.0,0.0538485
1446.0,0.0536663
1447.0,0.0534479
1448.0,0.0532661
1449.0,0.0530482
1450.0,0.0528305
1451.0,0.0526472
1452.0,0.0524279
1453.0,0.052245
1454.0,0.0520262
1455.0,0.0518438
1456.0,0.0516255
1457.0,0.0514436
1458.0,0.0512258
1459.0,0.0510444
1460.0,0.0508271
1461.0,0.0506438
1462.0,0.0504246
1463.0,0.0502418
1464.0,0.0500232
1465.0,0.0498049
1466.0,0.0496228
1467.0,0.049405
1468.0,0.0492234
1469.0,0.0490062
1470.0,0.0488252
1471.0,0.0486059
1472.0,0.0484227
1473.0,0.048204
1474.0,0.0480214
1475.0,0.0478033
1476.0,0.0476211
1477.0,0.0474036
1478.0,0.047222
1479.0,0.0470051
1480.0,0.0468241
1481.0,0.0466404
1482.0,0.0464216
1483.0,0.0462385
1484.0,0.0460203
1485.0,0.0458378
1486.0,0.0456202
1487.0,0.0454382
1488.0,0.0452213
1489.0,0.0450399
1490.0,0.0448588
1491.0,0.0446397
1492.0,0.0444561
1493.0,0.0442377
1494.0,0.0440546
1495.0,0.0438369
1496.0,0.0436545
1497.0,0.0434374
1498.0,0.0432556
1499.0,0.0430741
1500.0,0.042858
1501.0,0.0426742
1502.0,0.042456
1503.0,0.0422728
1504.0,0.04209
1505.0,0.0418728
1506.0,0.0416906
1507.0,0.0415087
1508.0,0.0412926
1509.0,0.0411113
1510.0,0.0408959
1511.0,0.040713
1512.0,0.0405305
1513.0,0.0403139
1514.0,0.0401321
1515.0,0.0399506
1516.0,0.0397351
1517.0,0.0395543
1518.0,0.0393395
1519.0,0.0391594
1520.0,0.0389795
1521.0,0.0387643
1522.0,0.0385836
1523.0,0.0384033
1524.0,0.0381892
1525.0,0.0380095
1526.0,0.0378302
1527.0,0.0376173
1528.0,0.0374386
1529.0,0.0372603
1530.0,0.0370486
1531.0,0.03687
1532.0,0.0366918
1533.0,0.0365139
1534.0,0.0363028
1535.0,0.0361257
1536.0,0.0359488
1537.0,0.0357389
1538.0,0.0355627
1539.0,0.0353869
1540.0,0.0352115
1541.0,0.0350028
1542.0,0.0348278
1543.0,0.0346531
1544.0,0.0344455
1545.0,0.0342716
1546.0,0.0340979
1547.0,0.0339246
1548.0,0.0337186
1549.0,0.033546
1550.0,0.0333737
1551.0,0.0331976
1552.0,0.0329889
1553.0,0.0328136
1554.0,0.0326386
1555.0,0.0324574
1556.0,0.0322767
1557.0,0.0320963
1558.0,0.0319163
1559.0,0.03174
1560.0,0.0315609
1561.0,0.031383
1562.0,0.0312055
1563.0,0.0310283
1564.0,0.0308516
1565.0,0.0306785
1566.0,0.0305025
1567.0,0.0303269
1568.0,0.0301517
1569.0,0.0299769
1570.0,0.0298024
1571.0,0.029633
1572.0,0.0294607
1573.0,0.0292888
1574.0,0.0291172
1575.0,0.028946
1576.0,0.0287816
1577.0,0.0286143
1578.0,0.0284474
1579.0,0.028284
1580.0,0.0281178
1581.0,0.0279569
1582.0,0.0277932
1583.0,0.0276298
1584.0,0.0274699
1585.0,0.0273072
1586.0,0.0271448
1587.0,0.026986
1588.0,0.0268243
1589.0,0.026666
1590.0,0.026505
1591.0,0.0263465
1592.0,0.0261915
1593.0,0.0260336
1594.0,0.0258792
1595.0,0.025722
1596.0,0.025565
1597.0,0.0254115
1598.0,0.0252552
1599.0,0.0251023
1600.0,0.0249466
1601.0,0.0247962
1602.0,0.0246461
1603.0,0.0244963
1604.0,0.0243468
1605.0,0.0241976
1606.0,0.0240488
1607.0,0.0238972
1608.0,0.023749
1609.0,0.0236019
1610.0,0.0234552
1611.0,0.0233117
1612.0,0.0231684
1613.0,0.0230254
1614.0,0.0228826
1615.0,0.0227401
1616.0,0.0225979
1617.0,0.022456
1618.0,0.0223143
1619.0,0.0221699
1620.0,0.0220287
1621.0,0.021891
1622.0,0.0217535
1623.0,0.0216162
1624.0,0.0214792
1625.0,0.0213424
1626.0,0.0212118
1627.0,0.0210815
1628.0,0.0209484
1629.0,0.0208184
1630.0,0.0206888
1631.0,0.0205626
1632.0,0.0204337
1633.0,0.0203079
1634.0,0.0201824
1635.0,0.0200569
1636.0,0.0199317
1637.0,0.0198037
1638.0,0.0196788
1639.0,0.0195541
1640.0,0.0194296
1641.0,0.0193057
1642.0,0.0191849
1643.0,0.0190642
1644.0,0.0189437
1645.0,0.0188234
1646.0,0.0187001
1647.0,0.01858
1648.0,0.01846
1649.0,0.0183402
1650.0,0.0182205
1651.0,0.0181138
1652.0,0.0180101
1653.0,0.0179064
1654.0,0.0178028
1655.0,0.0176991
1656.0,0.0175954
1657.0,0.0174917
1658.0,0.017388
1659.0,0.0172844
1660.0,0.0171807
1661.0,0.0170802
1662.0,0.0169797
1663.0,0.0168791
1664.0,0.0167785
1665.0,0.0166778
1666.0,0.0165772
1667.0,0.0164764
1668.0,0.0163757
1669.0,0.0162749
1670.0,0.0161741
1671.0,0.0160758
1672.0,0.0159775
1673.0,0.0158792
1674.0,0.0157807
1675.0,0.0156822
1676.0,0.0155926
1677.0,0.0154999
1678.0,0.0154101
1679.0,0.0153172
1680.0,0.0152273
1681.0,0.0151394
1682.0,0.0150485
1683.0,0.0149605
1684.0,0.0148694
1685.0,0.0147811
1686.0,0.0146898
1687.0,0.0146014
1688.0,0.0145129
1689.0,0.0144213
1690.0,0.0143327
1691.0,0.0142426
1692.0,0.0141555
1693.0,0.0140653
1694.0,0.0139779
1695.0,0.0138904
1696.0,0.0137998
1697.0,0.0137121
1698.0,0.0136212
1699.0,0.0135333
1700.0,0.0134422
1701.0,0.0133553
1702.0,0.0132654
1703.0,0.0131785
1704.0,0.0130886
1705.0,0.0129987
1706.0,0.0129117
1707.0,0.0128218
1708.0,0.0127349
1709.0,0.0126449
1710.0,0.0125549
1711.0,0.0124691
1712.0,0.0123802
1713.0,0.0122943
1714.0,0.0122053
1715.0,0.0121163
1716.0,0.0120304
1717.0,0.0119413
1718.0,0.0118553
1719.0,0.0117662
1720.0,0.0116801
1721.0,0.0115918
1722.0,0.0115034
1723.0,0.011418
1724.0,0.0113296
1725.0,0.0112441
1726.0,0.0111647
1727.0,0.0110851
1728.0,0.0110056
1729.0,0.010926
1730.0,0.0108494
1731.0,0.0107703
1732.0,0.0106912
1733.0,0.010612
1734.0,0.0105327
1735.0,0.0104565
1736.0,0.0103771
1737.0,0.0102978
1738.0,0.0102184
1739.0,0.0101419
1740.0,0.0100625
1741.0,0.00998326
1742.0,0.00990403
1743.0,0.00982475
1744.0,0.00974844
1745.0,0.00966907
1746.0,0.00958965
1747.0,0.00951019
1748.0,0.00943068
1749.0,0.00935416
1750.0,0.00927457
1751.0,0.00922261
1752.0,0.00917361
1753.0,0.00912455
1754.0,0.00907238
1755.0,0.00902317
1756.0,0.00897389
1757.0,0.00892151
1758.0,0.00887209
1759.0,0.00881956
1760.0,0.00877001
1761.0,0.0087205
1762.0,0.00866786
1763.0,0.00861821
1764.0,0.00856543
1765.0,0.00851563
1766.0,0.00846576
1767.0,0.00841277
1768.0,0.00836276
1769.0,0.00830961
1770.0,0.00825946
1771.0,0.00820934
1772.0,0.00815607
1773.0,0.00810579
1774.0,0.00805545
1775.0,0.00800196
1776.0,0.0079607
1777.0,0.00791631
1778.0,0.00787493
1779.0,0.00783349
1780.0,0.00778891
1781.0,0.00774745
1782.0,0.00770285
1783.0,0.00766126
1784.0,0.00761653
1785.0,0.00757483
1786.0,0.00753306
1787.0,0.00748814
1788.0,0.00744626
1789.0,0.00740121
1790.0,0.0073592
1791.0,0.00731723
1792.0,0.00727208
1793.0,0.00722998
1794.0,0.00718471
1795.0,0.00714249
1796.0,0.00710021
1797.0,0.00705474
1798.0,0.00701234
1799.0,0.00696675
1800.0,0.00692422
1801.0,0.00688681
1802.0,0.00684932
1803.0,0.00681174
1804.0,0.00677096
1805.0,0.00673322
1806.0,0.00669541
1807.0,0.00665751
1808.0,0.00661954
1809.0,0.00658148
1810.0,0.00654334
1811.0,0.00650519
1812.0,0.0064638
1813.0,0.00642549
1814.0,0.00638709
1815.0,0.00634861
1816.0,0.00631006
1817.0,0.00627142
1818.0,0.0062327
1819.0,0.00619389
1820.0,0.00615183
1821.0,0.00611292
1822.0,0.00607393
1823.0,0.00603486
1824.0,0.00599571
1825.0,0.00595647
1826.0,0.00592035
1827.0,0.00588416
1828.0,0.00584788
1829.0,0.00581153
1830.0,0.00577511
1831.0,0.00573866
1832.0,0.00570213
1833.0,0.00566552
1834.0,0.00562884
1835.0,0.00559208
1836.0,0.00555525
1837.0,0.00551834
1838.0,0.00548135
1839.0,0.00544428
1840.0,0.00540714
1841.0,0.00536997
1842.0,0.00533271
1843.0,0.00529538
1844.0,0.00525797
1845.0,0.00522049
1846.0,0.00518293
1847.0,0.00514529
1848.0,0.00510757
1849.0,0.00506978
1850.0,0.0050319
1851.0,0.00499491
1852.0,0.00495787
1853.0,0.00492079
1854.0,0.00488368
1855.0,0.00484653
1856.0,0.00480934
1857.0,0.00477212
1858.0,0.00473486
1859.0,0.00469756
1860.0,0.00466022
1861.0,0.00462288
1862.0,0.0045855
1863.0,0.00454808
1864.0,0.00451062
1865.0,0.00447313
1866.0,0.0044356
1867.0,0.00439803
1868.0,0.00436042
1869.0,0.00431949
1870.0,0.00428181
1871.0,0.00424411
1872.0,0.00420638
1873.0,0.00416862
1874.0,0.00413081
1875.0,0.00409297
1876.0,0.0040584
1877.0,0.00402379
1878.0,0.00398915
1879.0,0.00395117
1880.0,0.00391646
1881.0,0.00388173
1882.0,0.00384698
1883.0,0.00381218
1884.0,0.00377404
1885.0,0.00373918
1886.0,0.00370428
1887.0,0.00366936
1888.0,0.00363439
1889.0,0.00359607
1890.0,0.00356104
1891.0,0.00352599
1892.0,0.00349091
1893.0,0.00345247
1894.0,0.00341731
1895.0,0.00338213
1896.0,0.00334691
1897.0,0.00331032
1898.0,0.00327437
1899.0,0.00323838
1900.0,0.00320236
1901.0,0.00316887
1902.0,0.00313567
1903.0,0.00310209
1904.0,0.0030688
1905.0,0.00303514
1906.0,0.00300143
1907.0,0.00296801
1908.0,0.00293421
1909.0,0.0029007
1910.0,0.00286682
1911.0,0.00283324
1912.0,0.00279927
1913.0,0.00276527
1914.0,0.00273156
1915.0,0.00269746
1916.0,0.00266366
1917.0,0.00262948
1918.0,0.00259526
1919.0,0.00256133
1920.0,0.00252702
1921.0,0.00249302
1922.0,0.00245863
1923.0,0.00242454
1924.0,0.00239006
1925.0,0.00235588
1926.0,0.00232302
1927.0,0.00229011
1928.0,0.0022575
1929.0,0.00222451
1930.0,0.00219183
1931.0,0.00215876
1932.0,0.00212565
1933.0,0.00209285
1934.0,0.00205966
1935.0,0.00202677
1936.0,0.0019935
1937.0,0.00196053
1938.0,0.00192718
1939.0,0.00189378
1940.0,0.00186069
1941.0,0.00182722
1942.0,0.00179405
1943.0,0.0017605
1944.0,0.00172725
1945.0,0.00169361
1946.0,0.00165994
1947.0,0.00162657
1948.0,0.00159281
1949.0,0.00155936
1950.0,0.00152587
1951.0,0.00149303
1952.0,0.00146049
1953.0,0.00142791
1954.0,0.0013953
1955.0,0.00136264
1956.0,0.00132995
1957.0,0.00129722
1958.0,0.00126445
1959.0,0.00123164
1960.0,0.00119844
1961.0,0.00116556
1962.0,0.00113249
1963.0,0.0010994
1964.0,0.00106627
1965.0,0.00103311
1966.0,0.000999927
1967.0,0.00096671
1968.0,0.000933463
1969.0,0.000900186
1970.0,0.000866879
1971.0,0.000833542
1972.0,0.000799828
1973.0,0.000766431
1974.0,0.000733004
1975.0,0.000700244
1976.0,0.000673028
1977.0,0.000646137
1978.0,0.000619222
1979.0,0.000592632
1980.0,0.000565669
1981.0,0.000538682
1982.0,0.000512021
1983.0,0.000484986
1984.0,0.000458278
1985.0,0.000431197
1986.0,0.000404092
1987.0,0.000377314
1988.0,0.000350162
1989.0,0.000323127
1990.0,0.000296069
1991.0,0.000268952
1992.0,0.000241847
1993.0,0.000214719
1994.0,0.000187568
1995.0,0.000160358
1996.0,0.000133161
1997.0,0.000105941
1998.0,6.84381e-05
1999.0,5.97055e-05
2000.0,5.86746e-05
2001.0,5.78296e-05
2002.0,5.70139e-05
2003.0,5.61968e-05
2004.0,5.53781e-05
2005.0,5.45889e-05
2006.0,5.37673e-05
2007.0,5.29752e-05
2008.0,5.21817e-05
2009.0,5.13868e-05
2010.0,5.06215e-05
2011.0,4.98858e-05
2012.0,4.918e-05
2013.0,4.85042e-05
2014.0,4.77958e-05
2015.0,4.70862e-05
2016.0,4.6344e-05
2017.0,4.56005e-05
2018.0,4.4887e-05
2019.0,4.41408e-05
2020.0,4.34247e-05
2021.0,4.28329e-05
2022.0,4.224e-05
2023.0,4.16775e-05
2024.0,4.10824e-05
2025.0,4.05179e-05
2026.0,3.99523e-05
2027.0,3.94174e-05
2028.0,3.88814e-05
2029.0,3.83762e-05
2030.0,3.78384e-05
2031.0,3.73311e-05
2032.0,3.68229e-05
2033.0,3.63138e-05
2034.0,3.58356e-05
2035.0,3.53247e-05
2036.0,3.49084e-05
2037.0,3.44914e-05
2038.0,3.40737e-05
2039.0,3.36552e-05
2040.0,3.32359e-05
2041.0,3.28158e-05
2042.0,3.23949e-05
2043.0,3.1954e-05
2044.0,3.15252e-05
2045.0,3.11053e-05
2046.0,3.07681e-05
2047.0,3.04431e-05
2048.0,3.01176e-05
2049.0,2.97947e-05
2050.0,2.9468e-05
2051.0,2.91373e-05
2052.0,2.8806e-05
2053.0,2.84742e-05
2054.0,2.81418e-05
2055.0,2.78217e-05
2056.0,2.75755e-05
2057.0,2.73451e-05
2058.0,2.7111e-05
2059.0,2.68797e-05
2060.0,2.6648e-05
2061.0,2.6419e-05
2062.0,2.61863e-05
2063.0,2.59564e-05
2064.0,2.57262e-05
2065.0,2.54793e-05
2066.0,2.51407e-05
2067.0,2.47852e-05
2068.0,2.44324e-05
2069.0,2.4079e-05
2070.0,2.37348e-05
2071.0,2.35763e-05
2072.0,2.34275e-05
2073.0,2.32783e-05
2074.0,2.31322e-05
2075.0,2.29957e-05
2076.0,2.29312e-05
2077.0,2.28797e-05
2078.0,2.28281e-05
2079.0,2.27732e-05
2080.0,2.26983e-05
2081.0,2.23757e-05
2082.0,2.20262e-05
2083.0,2.16795e-05
2084.0,2.13322e-05
2085.0,2.10174e-05
2086.0,2.0914e-05
2087.0,2.08468e-05
2088.0,2.07762e-05
2089.0,2.07088e-05
2090.0,2.06347e-05
2091.0,2.05335e-05
2092.0,2.04256e-05
2093.0,2.03174e-05
2094.0,2.02125e-05
2095.0,2.01073e-05
2096.0,1.99986e-05
2097.0,1.98898e-05
2098.0,1.97841e-05
2099.0,1.96748e-05
2100.0,1.95822e-05
2101.0,1.95727e-05
2102.0,1.958e-05
2103.0,1.95873e-05
2104.0,1.95946e-05
2105.0,1.95951e-05
2106.0,1.9552e-05
2107.0,1.95054e-05
2108.0,1.94587e-05
2109.0,1.94086e-05
2110.0,1.93651e-05
2111.0,1.93381e-05
2112.0,1.93144e-05
2113.0,1.92941e-05
2114.0,1.92703e-05
2115.0,1.92296e-05
2116.0,1.90974e-05
2117.0,1.89448e-05
2118.0,1.87953e-05
2119.0,1.86456e-05
2120.0,1.85262e-05
2121.0,1.8593e-05
2122.0,1.86904e-05
2123.0,1.87914e-05
2124.0,1.8889e-05
2125.0,1.898e-05
2126.0,1.89212e-05
2127.0,1.88555e-05
2128.0,1.87898e-05
2129.0,1.87239e-05
2130.0,1.86613e-05
2131.0,1.86324e-05
2132.0,1.8607e-05
2133.0,1.85815e-05
2134.0,1.85559e-05
2135.0,1.8544e-05
2136.0,1.86109e-05
2137.0,1.86916e-05
2138.0,1.87723e-05
2139.0,1.88532e-05
2140.0,1.89342e-05
2141.0,1.90389e-05
2142.0,1.91438e-05
2143.0,1.92523e-05
2144.0,1.93574e-05
2145.0,1.94523e-05
2146.0,1.94886e-05
2147.0,1.95112e-05
2148.0,1.95338e-05
2149.0,1.95598e-05
2150.0,1.95893e-05
2151.0,1.96531e-05
2152.0,1.97204e-05
2153.0,1.97912e-05
2154.0,1.98587e-05
2155.0,1.99331e-05
2156.0,2.00423e-05
2157.0,2.01586e-05
2158.0,2.02715e-05
2159.0,2.0388e-05
2160.0,2.04873e-05
2161.0,2.05096e-05
2162.0,2.05146e-05
2163.0,2.0523e-05
2164.0,2.05314e-05
2165.0,2.05398e-05
2166.0,2.05447e-05
2167.0,2.05496e-05
2168.0,2.0558e-05
2169.0,2.05629e-05
2170.0,2.05678e-05
2171.0,2.05722e-05
2172.0,2.05766e-05
2173.0,2.0581e-05
2174.0,2.05854e-05
2175.0,2.05933e-05
2176.0,2.05941e-05
2177.0,2.05985e-05
2178.0,2.06029e-05
2179.0,2.06072e-05
2180.0,2.06116e-05
2181.0,2.06119e-05
2182.0,2.06158e-05
2183.0,2.06161e-05
2184.0,2.06199e-05
2185.0,2.06202e-05
2186.0,2.06205e-05
2187.0,2.06208e-05
2188.0,2.06246e-05
2189.0,2.06248e-05
2190.0,2.06251e-05
2191.0,2.06248e-05
2192.0,2.06246e-05
2193.0,2.06243e-05
2194.0,2.0624e-05
2195.0,2.06237e-05
2196.0,2.06198e-05
2197.0,2.06195e-05
2198.0,2.06191e-05
2199.0,2.06152e-05
2200.0,2.06149e-05
2201.0,2.06122e-05
2202.0,2.06095e-05
2203.0,2.06033e-05
2204.0,2.06006e-05
2205.0,2.05979e-05
2206.0,2.05951e-05
2207.0,2.05888e-05
2208.0,2.0586e-05
2209.0,2.05797e-05
2210.0,2.05769e-05
2211.0,2.05699e-05
2212.0,2.05665e-05
2213.0,2.05596e-05
2214.0,2.05526e-05
2215.0,2.05492e-05
2216.0,2.05421e-05
2217.0,2.05351e-05
2218.0,2.0528e-05
2219.0,2.0521e-05
2220.0,2.05175e-05
2221.0,2.05062e-05
2222.0,2.04985e-05
2223.0,2.04907e-05
2224.0,2.0483e-05
2225.0,2.04752e-05
2226.0,2.04674e-05
2227.0,2.04597e-05
2228.0,2.04518e-05
2229.0,2.04404e-05
2230.0,2.04326e-05
2231.0,2.04241e-05
2232.0,2.0412e-05
2233.0,2.04035e-05
2234.0,2.03914e-05
2235.0,2.03828e-05
2236.0,2.03707e-05
2237.0,2.03621e-05
2238.0,2.03499e-05
2239.0,2.03413e-05
2240.0,2.0329e-05
2241.0,2.03162e-05
2242.0,2.03033e-05
2243.0,2.02904e-05
2244.0,2.02811e-05
2245.0,2.02681e-05
2246.0,2.02552e-05
2247.0,2.02422e-05
2248.0,2.02292e-05
2249.0,2.02162e-05
2250.0,2.02031e-05
2251.0,2.01895e-05
2252.0,2.01758e-05
2253.0,2.01621e-05
2254.0,2.01483e-05
2255.0,2.01346e-05
2256.0,2.01209e-05
2257.0,2.01034e-05
2258.0,2.00896e-05
2259.0,2.00758e-05
2260.0,2.0062e-05
2261.0,2.00439e-05
2262.0,2.00294e-05
2263.0,2.00113e-05
2264.0,1.99968e-05
2265.0,1.99823e-05
2266.0,1.99641e-05
2267.0,1.99495e-05
2268.0,1.99313e-05
2269.0,1.99167e-05
2270.0,1.98984e-05
2271.0,1.98796e-05
2272.0,1.98644e-05
2273.0,1.98455e-05
2274.0,1.98265e-05
2275.0,1.98113e-05
2276.0,1.97923e-05
2277.0,1.97734e-05
2278.0,1.97544e-05
2279.0,1.97354e-05
2280.0,1.97201e-05
2281.0,1.97005e-05
2282.0,1.96809e-05
2283.0,1.96613e-05
2284.0,1.96417e-05
2285.0,1.96221e-05
2286.0,1.96025e-05
2287.0,1.95828e-05
2288.0,1.95631e-05
2289.0,1.95435e-05
