Wavelength,Transmission
1850.326,3.38474e-05
1850.653,6.78258e-05
1850.979,0.000101758
1851.0,0.000103945
1851.306,0.000135833
1851.632,0.000169836
1851.959,0.000203997
1852.0,0.000208283
1852.286,0.000238199
1852.613,0.000272444
1852.94,0.000306718
1853.0,0.000313014
1853.267,0.000341048
1853.594,0.000375421
1853.921,0.000409837
1854.0,0.000418158
1854.248,0.000444295
1854.575,0.000478783
1854.903,0.000513429
1855.0,0.000523684
1855.23,0.000548015
1855.557,0.000582644
1855.885,0.000617419
1856.0,0.000629622
1856.212,0.000652133
1856.54,0.000686994
1856.867,0.000721781
1857.0,0.000735946
1857.195,0.000756728
1857.523,0.000791718
1857.851,0.000826751
1858.0,0.00084268
1858.179,0.000861827
1858.506,0.000896841
1858.834,0.000932003
1859.0,0.000949814
1859.162,0.000967207
1859.491,0.00100256
1859.819,0.00103785
1860.0,0.00105734
1860.147,0.00107319
1860.475,0.00110857
1860.803,0.001144
1861.0,0.00116529
1861.132,0.00117957
1861.46,0.00121508
1861.789,0.00125074
1862.0,0.00127364
1862.117,0.00128634
1862.446,0.0013221
1862.775,0.0013579
1863.0,0.0013824
1863.103,0.00139363
1863.432,0.00142951
1863.761,0.00146544
1864.0,0.00149156
1864.09,0.0015014
1864.419,0.00153742
1864.748,0.00157348
1865.0,0.00160113
1865.077,0.00160958
1865.406,0.00164573
1865.735,0.00168192
1866.0,0.0017111
1866.064,0.00171815
1866.394,0.00175455
1866.723,0.00179086
1867.0,0.00182148
1867.052,0.00182723
1867.382,0.00186375
1867.712,0.00190033
1868.0,0.00193228
1868.041,0.00193683
1868.371,0.00197348
1868.7,0.00201007
1869.0,0.00204348
1869.03,0.00204682
1869.36,0.00208361
1869.69,0.00212044
1870.0,0.00215509
1870.02,0.00215733
1870.35,0.00219425
1870.68,0.00223124
1871.0,0.00226713
1871.01,0.00226825
1871.34,0.00230531
1871.671,0.00234253
1872.0,0.00237957
1872.001,0.00237968
1872.331,0.00241689
1872.661,0.00245413
1872.992,0.00249152
1873.0,0.00249243
1873.323,0.00252898
1873.653,0.00256635
1873.984,0.00260389
1874.0,0.00260571
1874.314,0.00264136
1874.645,0.00267899
1874.976,0.00271666
1875.0,0.0027194
1875.307,0.00275439
1875.638,0.00279215
1875.969,0.00282996
1876.0,0.00283351
1876.3,0.00286783
1876.631,0.00290572
1876.962,0.00294368
1877.0,0.00294804
1877.293,0.00298166
1877.625,0.00301982
1877.956,0.00305791
1878.0,0.00306298
1878.287,0.00309604
1878.619,0.00313434
1878.95,0.00317255
1879.0,0.00317833
1879.282,0.00321094
1879.614,0.00324938
1879.945,0.00328774
1880.0,0.00329412
1880.277,0.00332626
1880.609,0.00336484
1880.941,0.00340346
1881.0,0.00341033
1881.273,0.00344212
1881.605,0.00348084
1881.937,0.00351961
1882.0,0.00352698
1882.269,0.00355842
1882.601,0.00359726
1882.933,0.00363616
1883.0,0.00364402
1883.266,0.00367523
1883.598,0.00371422
1883.93,0.00375326
1884.0,0.0037615
1884.263,0.00379246
1884.595,0.0038316
1884.928,0.0038709
1885.0,0.0038794
1885.26,0.00391013
1885.593,0.00394952
1885.926,0.00398896
1886.0,0.00399773
1886.259,0.00402845
1886.592,0.00406799
1886.924,0.00410744
1887.0,0.00411648
1887.257,0.00414707
1887.59,0.00418675
1887.924,0.00422659
1888.0,0.00423566
1888.257,0.00426636
1888.59,0.00430618
1888.923,0.00434604
1889.0,0.00435526
1889.257,0.00438607
1889.59,0.00442604
1889.923,0.00446605
1890.0,0.00447531
1890.257,0.00450623
1890.59,0.00454634
1890.924,0.00458661
1891.0,0.00459578
1891.258,0.00462695
1891.592,0.00466732
1891.925,0.00470761
1892.0,0.0047167
1892.259,0.00474809
1892.593,0.00478861
1892.927,0.00482917
1893.0,0.00483805
1893.261,0.00486979
1893.595,0.00491045
1893.929,0.00495116
1894.0,0.00495982
1894.264,0.00499204
1894.598,0.00503284
1894.932,0.00507368
1895.0,0.005082
1895.267,0.0051147
1895.601,0.00515565
1895.936,0.00519678
1896.0,0.00520465
1896.27,0.00523783
1896.605,0.00527905
1896.94,0.00532031
1897.0,0.00532771
1897.274,0.00536152
1897.609,0.00540288
1897.944,0.00544429
1898.0,0.00545122
1898.279,0.00548576
1898.614,0.00552726
1898.949,0.00556881
1899.0,0.00557514
1899.284,0.00561043
1899.619,0.00565208
1899.954,0.00569379
1900.0,0.00569907
1900.29,0.00573189
1900.625,0.0057693
1900.96,0.00580675
1901.0,0.00581123
1901.296,0.00584437
1901.631,0.0058819
1901.967,0.00591959
1902.0,0.0059233
1902.303,0.0059573
1902.638,0.00599494
1902.974,0.00603274
1903.0,0.00603566
1903.31,0.00607057
1903.646,0.00610844
1903.982,0.00614635
1904.0,0.00614838
1904.318,0.00618427
1904.654,0.00622224
1904.99,0.00626024
1905.0,0.00626137
1905.326,0.00629829
1905.662,0.00633637
1905.999,0.0063746
1906.0,0.00637472
1906.335,0.00641276
1906.671,0.00645096
1907.0,0.0064884
1907.008,0.00648931
1907.344,0.00652757
1907.681,0.00656599
1908.0,0.00660238
1908.018,0.00660444
1908.354,0.00664281
1908.691,0.00668134
1909.0,0.00671668
1909.028,0.00671989
1909.365,0.00675849
1909.702,0.00679714
1910.0,0.00683134
1910.039,0.00683579
1910.376,0.0068743
1910.713,0.00691284
1911.0,0.0069457
1911.05,0.00695142
1911.387,0.00699002
1911.725,0.00702878
1912.0,0.00706035
1912.062,0.00706746
1912.399,0.00710618
1912.737,0.00714504
1913.0,0.00717529
1913.074,0.00718381
1913.412,0.00722273
1913.75,0.00726169
1914.0,0.00729052
1914.087,0.00730057
1914.425,0.00733961
1914.763,0.00737867
1915.0,0.00740609
1915.101,0.00741778
1915.439,0.00745692
1915.777,0.00749609
1916.0,0.00752196
1916.115,0.0075353
1916.453,0.00757455
1916.791,0.00761384
1917.0,0.00763815
1917.13,0.00765327
1917.468,0.00769262
1917.806,0.007732
1918.0,0.00775462
1918.145,0.00777154
1918.483,0.007811
1918.822,0.00785061
1919.0,0.00787143
1919.16,0.00789014
1919.499,0.00792981
1919.838,0.00796952
1920.0,0.00799124
1920.177,0.00801506
1920.515,0.0080658
1920.854,0.00811673
1921.0,0.00813868
1921.193,0.00816771
1921.532,0.00821873
1921.871,0.00826981
1922.0,0.00828926
1922.211,0.0083211
1922.55,0.00837227
1922.889,0.0084235
1923.0,0.00844028
1923.228,0.00847477
1923.568,0.00852624
1923.907,0.00857761
1924.0,0.00859171
1924.247,0.00862918
1924.586,0.00868066
1924.926,0.00873233
1925.0,0.00874358
1925.266,0.00878403
1925.605,0.00883564
1925.945,0.00888744
1926.0,0.00889582
1926.285,0.0089393
1926.625,0.0089912
1926.965,0.00904315
1927.0,0.0090485
1927.305,0.00909516
1927.645,0.00914721
1927.985,0.00919931
1928.0,0.00920161
1928.326,0.00925163
1928.666,0.00930382
1929.0,0.00935515
1929.006,0.00935607
1929.347,0.00940853
1929.687,0.00946087
1930.0,0.0095091
1930.028,0.00951342
1930.368,0.00956593
1930.709,0.00961862
1931.0,0.00966364
1931.05,0.00967138
1931.39,0.00972402
1931.731,0.00977687
1932.0,0.00981861
1932.072,0.00982979
1932.413,0.00988274
1932.754,0.00993576
1933.0,0.00997403
1933.095,0.00998882
1933.436,0.0100419
1933.777,0.0100951
1934.0,0.0101298
1934.119,0.0101484
1934.46,0.0102017
1934.801,0.010255
1935.0,0.0102861
1935.143,0.0103085
1935.484,0.0103619
1935.826,0.0104155
1936.0,0.0104428
1936.167,0.010469
1936.509,0.0105227
1936.851,0.0105764
1937.0,0.0105999
1937.193,0.0106303
1937.534,0.010684
1937.876,0.0107379
1938.0,0.0107574
1938.218,0.0107918
1938.56,0.0108459
1938.902,0.0108999
1939.0,0.0109154
1939.245,0.0109542
1939.587,0.0110084
1939.929,0.0110626
1940.0,0.0110767
1940.271,0.0111305
1940.614,0.0112023
1940.956,0.011274
1941.0,0.0112832
1941.299,0.0113459
1941.641,0.0114176
1941.984,0.0114897
1942.0,0.011493
1942.327,0.0115618
1942.67,0.011634
1943.0,0.0117035
1943.012,0.011706
1943.355,0.0117783
1943.698,0.0118507
1944.0,0.0119144
1944.041,0.0119231
1944.384,0.0119956
1944.727,0.0120682
1945.0,0.012126
1945.071,0.012141
1945.414,0.0122137
1945.757,0.0122864
1946.0,0.012338
1946.1,0.0123592
1946.444,0.0124323
1946.787,0.0125053
1947.0,0.0125507
1947.131,0.0125786
1947.475,0.0126518
1947.818,0.012725
1948.0,0.0127638
1948.162,0.0127984
1948.506,0.0128719
1948.85,0.0129454
1949.0,0.0129775
1949.193,0.0130188
1949.537,0.0130925
1949.881,0.0131662
1950.0,0.0131918
1950.226,0.0132406
1950.57,0.013315
1950.914,0.0133894
1951.0,0.0134081
1951.258,0.013464
1951.603,0.0135388
1951.947,0.0136135
1952.0,0.013625
1952.292,0.0136884
1952.636,0.0137632
1952.981,0.0138383
1953.0,0.0138425
1953.325,0.0139133
1953.67,0.0139885
1954.0,0.0140606
1954.015,0.0140638
1954.359,0.014139
1954.704,0.0142144
1955.0,0.0142792
1955.049,0.0142899
1955.394,0.0143656
1955.739,0.0144412
1956.0,0.0144985
1956.084,0.014517
1956.43,0.014593
1956.775,0.0146689
1957.0,0.0147184
1957.12,0.0147449
1957.466,0.0148211
1957.811,0.0148972
1958.0,0.0149389
1958.157,0.0149736
1958.502,0.0150498
1958.848,0.0151264
1959.0,0.01516
1959.193,0.0152027
1959.539,0.0152794
1959.885,0.0153562
1960.0,0.0153787
1960.231,0.0154235
1960.577,0.0154862
1960.923,0.015549
1961.0,0.0155629
1961.269,0.0156086
1961.615,0.0156674
1961.961,0.0157263
1962.0,0.0157329
1962.307,0.0157851
1962.654,0.0158441
1963.0,0.0159029
1963.346,0.0159618
1963.693,0.0160209
1964.0,0.0160732
1964.039,0.0160799
1964.386,0.016139
1964.733,0.0161982
1965.0,0.0162438
1965.079,0.0162573
1965.426,0.0163165
1965.773,0.0163757
1966.0,0.0164145
1966.12,0.016435
1966.467,0.0164943
1966.814,0.0165536
1967.0,0.0165854
1967.161,0.016613
1967.508,0.0166723
1967.855,0.0167317
1968.0,0.0167565
1968.202,0.0167911
1968.55,0.0168508
1968.897,0.0169103
1969.0,0.0169279
1969.245,0.0169699
1969.592,0.0170294
1969.94,0.0170891
1970.0,0.0170994
1970.287,0.0171489
1970.635,0.0172089
1970.983,0.017269
1971.0,0.0172719
1971.331,0.0173291
1971.678,0.017389
1972.0,0.0174446
1972.026,0.0174491
1972.374,0.0175092
1972.723,0.0175696
1973.0,0.0176175
1973.071,0.0176298
1973.419,0.01769
1973.767,0.0177503
1974.0,0.0177906
1974.115,0.0178105
1974.464,0.017871
1974.812,0.0179313
1975.0,0.0179639
1975.161,0.0179918
1975.509,0.0180522
1975.858,0.0181128
1976.0,0.0181374
1976.207,0.0181734
1976.555,0.0182338
1976.904,0.0182945
1977.0,0.0183111
1977.253,0.0183551
1977.602,0.0184158
1977.951,0.0184766
1978.0,0.0184851
1978.3,0.0185373
1978.649,0.0185981
1978.998,0.0186589
1979.0,0.0186592
1979.347,0.0187197
1979.697,0.0187808
1980.0,0.0188334
1980.046,0.0188415
1980.395,0.0189008
1980.745,0.0189603
1981.0,0.0190036
1981.094,0.0190196
1981.444,0.0190792
1981.794,0.0191387
1982.0,0.0191738
1982.143,0.0191981
1982.493,0.0192578
1982.843,0.0193174
1983.0,0.0193441
1983.193,0.0193771
1983.543,0.0194368
1983.893,0.0194965
1984.0,0.0195148
1984.243,0.0195563
1984.593,0.0196161
1984.943,0.0196759
1985.0,0.0196856
1985.294,0.0197359
1985.644,0.0197958
1985.995,0.0198558
1986.0,0.0198567
1986.345,0.0199157
1986.696,0.0199758
1987.0,0.0200279
1987.046,0.0200358
1987.397,0.0200959
1987.747,0.020156
1988.0,0.0201994
1988.098,0.0202162
1988.449,0.0202764
1988.8,0.0203367
1989.0,0.0203711
1989.151,0.020397
1989.502,0.0204573
1989.853,0.0205177
1990.0,0.020543
1990.204,0.0205777
1990.555,0.0206373
1990.907,0.0206972
1991.0,0.020713
1991.258,0.0207569
1991.609,0.0208166
1991.961,0.0208766
1992.0,0.0208832
1992.312,0.0209364
1992.664,0.0209964
1993.0,0.0210537
1993.016,0.0210564
1993.367,0.0211162
1993.719,0.0211763
1994.0,0.0212243
1994.071,0.0212364
1994.423,0.0212965
1994.775,0.0213566
1995.0,0.021395
1995.127,0.0214167
1995.479,0.0214769
1995.831,0.0215371
1996.0,0.021566
1996.183,0.0215973
1996.536,0.0216577
1996.888,0.0217179
1997.0,0.0217371
1997.24,0.0217782
1997.593,0.0218387
1997.945,0.021899
1998.0,0.0219085
1998.298,0.0219595
1998.65,0.0220199
1999.0,0.02208
1999.003,0.0220805
1999.356,0.022141
1999.709,0.0222016
2000.0,0.0222567
2000.062,0.0222687
2000.415,0.0223663
2000.767,0.0224636
2001.0,0.0225281
2001.121,0.0225616
2001.474,0.0226593
2001.827,0.0227572
2002.0,0.0228051
2002.18,0.022855
2002.533,0.0229528
2002.887,0.023051
2003.0,0.0230824
2003.24,0.023149
2003.594,0.0232473
2003.947,0.0233454
2004.0,0.0233602
2004.301,0.0234439
2004.655,0.0235424
2005.0,0.0236384
2005.009,0.0236409
2005.362,0.0237392
2005.716,0.0238378
2006.0,0.023917
2006.07,0.0239365
2006.424,0.0240352
2006.778,0.024134
2007.0,0.024196
2007.132,0.0242329
2007.487,0.0243321
2007.841,0.024431
2008.0,0.0244755
2008.195,0.02453
2008.55,0.0246294
2008.904,0.0247286
2009.0,0.0247555
2009.259,0.024828
2009.613,0.0249273
2009.968,0.0250268
2010.0,0.0250358
2010.322,0.0251267
2010.677,0.0252268
2011.0,0.0253181
2011.032,0.0253271
2011.387,0.0254275
2011.742,0.0255279
2012.0,0.025601
2012.097,0.0256284
2012.452,0.025729
2012.807,0.0258296
2013.0,0.0258843
2013.162,0.0259302
2013.517,0.0260309
2013.873,0.0261319
2014.0,0.026168
2014.228,0.0262328
2014.584,0.026334
2014.939,0.026435
2015.0,0.0264523
2015.295,0.0265362
2015.65,0.0266373
2016.0,0.0267369
2016.006,0.0267386
2016.362,0.0268401
2016.718,0.0269416
2017.0,0.027022
2017.074,0.0270432
2017.43,0.0271448
2017.786,0.0272464
2018.0,0.0273076
2018.142,0.0273482
2018.498,0.02745
2018.854,0.0275519
2019.0,0.0275937
2019.21,0.0276538
2019.567,0.0277561
2019.923,0.0278582
2020.0,0.0278731
2020.279,0.0279269
2020.636,0.0279866
2020.992,0.0280462
2021.0,0.0280475
2021.349,0.0281059
2021.706,0.0281657
2022.0,0.028215
2022.063,0.0282256
2022.419,0.0282853
2022.776,0.0283452
2023.0,0.0283829
2023.133,0.0284052
2023.49,0.0284652
2023.847,0.0285252
2024.0,0.0285509
2024.205,0.0285854
2024.562,0.0286455
2024.919,0.0287057
2025.0,0.0287193
2025.276,0.0287658
2025.634,0.0288261
2025.991,0.0288863
2026.0,0.0288878
2026.349,0.0289467
2026.706,0.029007
2027.0,0.0290566
2027.064,0.0290674
2027.422,0.0291279
2027.78,0.0291884
2028.0,0.0292256
2028.137,0.0292487
2028.495,0.0293093
2028.853,0.0293699
2029.0,0.0293948
2029.211,0.0294306
2029.569,0.0294914
2029.927,0.0295522
2030.0,0.0295646
2030.286,0.0296127
2030.644,0.0296731
2031.0,0.0297331
2031.002,0.0297334
2031.361,0.029794
2031.719,0.0298545
2032.0,0.0299019
2032.078,0.0299151
2032.436,0.0299756
2032.795,0.0300363
2033.0,0.030071
2033.154,0.0300971
2033.513,0.0301578
2033.871,0.0302184
2034.0,0.0302403
2034.23,0.0302793
2034.589,0.0303402
2034.948,0.0304012
2035.0,0.03041
2035.307,0.0304621
2035.667,0.0305232
2036.0,0.0305797
2036.026,0.0305842
2036.385,0.0306452
2036.745,0.0307064
2037.0,0.0307498
2037.104,0.0307675
2037.463,0.0308286
2037.823,0.0308899
2038.0,0.03092
2038.182,0.030951
2038.542,0.0310124
2038.902,0.0310737
2039.0,0.0310904
2039.262,0.0311352
2039.622,0.0311966
2039.982,0.0312582
2040.0,0.0312614
2040.342,0.0313222
2040.702,0.0313863
2041.0,0.0314395
2041.062,0.0314505
2041.422,0.0315147
2041.782,0.0315788
2042.0,0.0316177
2042.142,0.031643
2042.503,0.0317075
2042.863,0.0317719
2043.0,0.0317963
2043.224,0.0318364
2043.584,0.0319008
2043.945,0.0319654
2044.0,0.0319752
2044.306,0.03203
2044.667,0.0320947
2045.0,0.0321544
2045.027,0.0321592
2045.388,0.0322239
2045.749,0.0322887
2046.0,0.0323338
2046.11,0.0323535
2046.471,0.0324183
2046.832,0.0324831
2047.0,0.0325133
2047.193,0.032548
2047.555,0.0326132
2047.916,0.0326781
2048.0,0.0326932
2048.278,0.0327433
2048.639,0.0328083
2049.0,0.0328734
2049.362,0.0329386
2049.724,0.0330039
2050.0,0.0330537
2050.085,0.0330689
2050.447,0.0331334
2050.809,0.033198
2051.0,0.0332321
2051.171,0.0332626
2051.533,0.0333273
2051.895,0.033392
2052.0,0.0334108
2052.257,0.0334567
2052.619,0.0335214
2052.981,0.0335862
2053.0,0.0335896
2053.344,0.0336512
2053.706,0.033716
2054.0,0.0337687
2054.069,0.033781
2054.431,0.0338459
2054.793,0.0339108
2055.0,0.033948
2055.156,0.0339759
2055.519,0.0340411
2055.882,0.0341062
2056.0,0.0341274
2056.244,0.0341713
2056.607,0.0342365
2056.97,0.0343019
2057.0,0.0343073
2057.333,0.0343671
2057.696,0.0344325
2058.0,0.0344872
2058.059,0.0344978
2058.423,0.0345634
2058.786,0.0346288
2059.0,0.0346674
2059.149,0.0346943
2059.512,0.0347598
2059.876,0.0348255
2060.0,0.0348489
2060.239,0.0348941
2060.603,0.0349646
2060.967,0.0350351
2061.0,0.0350415
2061.33,0.0351054
2061.694,0.035176
2062.0,0.0352353
2062.058,0.0352465
2062.422,0.0353172
2062.786,0.0353878
2063.0,0.0354294
2063.15,0.0354585
2063.514,0.0355292
2063.878,0.0355999
2064.0,0.0356236
2064.242,0.0356706
2064.606,0.0357414
2064.971,0.0358124
2065.0,0.0358181
2065.335,0.0358833
2065.7,0.0359545
2066.0,0.036013
2066.064,0.0360254
2066.429,0.0360966
2066.793,0.0361677
2067.0,0.0362081
2067.158,0.0362389
2067.523,0.0363102
2067.888,0.0363815
2068.0,0.0364034
2068.253,0.0364529
2068.618,0.0365242
2068.983,0.0365956
2069.0,0.036599
2069.348,0.0366671
2069.713,0.0367386
2070.0,0.0367948
2070.078,0.0368099
2070.444,0.036881
2070.809,0.0369519
2071.0,0.036989
2071.174,0.0370228
2071.54,0.037094
2071.906,0.0371651
2072.0,0.0371834
2072.271,0.0372361
2072.637,0.0373072
2073.0,0.0373778
2073.002,0.0373782
2073.368,0.0374495
2073.734,0.0375209
2074.0,0.0375728
2074.1,0.0375923
2074.466,0.0376636
2074.832,0.037735
2075.0,0.0377678
2075.198,0.0378065
2075.565,0.0378781
2075.931,0.0379496
2076.0,0.0379631
2076.297,0.0380212
2076.664,0.0380929
2077.0,0.0381587
2077.03,0.0381645
2077.397,0.0382363
2077.763,0.0383079
2078.0,0.0383543
2078.13,0.0383797
2078.497,0.0384518
2078.864,0.0385238
2079.0,0.0385504
2079.23,0.0385956
2079.597,0.0386676
2079.964,0.0387397
2080.0,0.0387441
2080.331,0.0387852
2080.698,0.0388278
2081.0,0.0388628
2081.066,0.0388705
2081.433,0.0389133
2081.8,0.0389562
2082.0,0.0389795
2082.167,0.038999
2082.535,0.0390419
2082.902,0.0390847
2083.0,0.0390962
2083.27,0.0391276
2083.638,0.0391705
2084.0,0.0392127
2084.005,0.0392133
2084.373,0.0392562
2084.741,0.0392992
2085.0,0.0393295
2085.109,0.0393422
2085.477,0.0393853
2085.845,0.0394284
2086.0,0.0394466
2086.213,0.0394715
2086.581,0.0395146
2086.949,0.0395576
2087.0,0.0395636
2087.318,0.0396009
2087.686,0.0396439
2088.0,0.0396807
2088.054,0.0396871
2088.423,0.0397305
2088.791,0.0397737
2089.0,0.0397983
2089.16,0.0398171
2089.529,0.0398604
2089.897,0.0399035
2090.0,0.0399156
2090.266,0.0399466
2090.635,0.0399895
2091.0,0.0400321
2091.004,0.0400325
2091.373,0.0400755
2091.742,0.0401185
2092.0,0.0401486
2092.111,0.0401616
2092.48,0.0402047
2092.85,0.0402479
2093.0,0.0402654
2093.219,0.0402909
2093.588,0.0403339
2093.958,0.0403771
2094.0,0.040382
2094.327,0.0404202
2094.697,0.0404635
2095.0,0.0404989
2095.066,0.0405067
2095.436,0.04055
2095.806,0.0405933
2096.0,0.0406161
2096.176,0.0406367
2096.546,0.0406799
2096.916,0.0407233
2097.0,0.0407331
2097.286,0.0407666
2097.656,0.04081
2098.0,0.0408503
2098.026,0.0408533
2098.396,0.0408968
2098.767,0.0409405
2099.0,0.0409679
2099.137,0.0409839
2099.507,0.0410273
2099.878,0.0410709
2100.0,0.0410826
2100.249,0.0411054
2100.619,0.0411354
2100.99,0.0411655
2101.0,0.0411663
2101.361,0.0411955
2101.731,0.0412254
2102.0,0.0412472
2102.102,0.0412555
2102.473,0.0412856
2102.844,0.0413157
2103.0,0.0413283
2103.215,0.0413458
2103.586,0.0413759
2103.958,0.0414061
2104.0,0.0414095
2104.329,0.0414361
2104.7,0.0414662
2105.0,0.0414905
2105.072,0.0414963
2105.443,0.0415265
2105.815,0.0415568
2106.0,0.0415718
2106.186,0.0415869
2106.558,0.0416171
2106.93,0.0416473
2107.0,0.041653
2107.302,0.0416776
2107.674,0.0417078
2108.0,0.0417343
2108.045,0.0417379
2108.417,0.0417682
2108.79,0.0417986
2109.0,0.0418157
2109.162,0.0418289
2109.534,0.0418592
2109.906,0.0418895
2110.0,0.0418972
2110.278,0.0419195
2110.651,0.0419494
2111.0,0.0419774
2111.023,0.0419793
2111.396,0.0420093
2111.768,0.0420392
2112.0,0.0420579
2112.141,0.0420692
2112.514,0.0420991
2112.887,0.042129
2113.0,0.0421381
2113.26,0.042159
2113.632,0.0421889
2114.0,0.0422185
2114.005,0.0422189
2114.378,0.0422489
2114.751,0.0422789
2115.0,0.042299
2115.125,0.042309
2115.498,0.0423391
2115.871,0.0423691
2116.0,0.0423795
2116.245,0.0423992
2116.618,0.0424292
2116.992,0.0424593
2117.0,0.0424599
2117.365,0.0424894
2117.739,0.0425196
2118.0,0.0425407
2118.113,0.0425498
2118.486,0.0425798
2118.86,0.04261
2119.0,0.0426212
2119.234,0.0426401
2119.608,0.0426703
2119.982,0.0427005
2120.0,0.0427023
2120.356,0.0427384
2120.73,0.0427768
2121.0,0.0428045
2121.105,0.0428152
2121.479,0.0428536
2121.854,0.042892
2122.0,0.042907
2122.228,0.0429303
2122.602,0.0429687
2122.977,0.0430072
2123.0,0.0430095
2123.352,0.0430457
2123.726,0.0430841
2124.0,0.0431122
2124.101,0.0431225
2124.476,0.043161
2124.851,0.0431994
2125.0,0.0432147
2125.226,0.043238
2125.601,0.0432766
2125.976,0.0433152
2126.0,0.0433177
2126.351,0.0433538
2126.726,0.0433923
2127.0,0.0434205
2127.102,0.043431
2127.477,0.0434696
2127.852,0.0435083
2128.0,0.0435236
2128.228,0.0435471
2128.604,0.0435858
2128.979,0.0436245
2129.0,0.0436266
