Wavelength,Transmission
8696.0,2.74211e-05
8697.0,2.79381e-05
8698.0,2.84551e-05
8699.0,2.89718e-05
8700.0,2.94887e-05
8701.0,3.00059e-05
8702.0,3.05233e-05
8703.0,3.10405e-05
8704.0,3.15578e-05
8705.0,3.20748e-05
8706.0,3.25921e-05
8707.0,3.3109e-05
8708.0,3.36261e-05
8709.0,3.41431e-05
8710.0,3.466e-05
8711.0,3.82748e-05
8712.0,4.18896e-05
8713.0,4.55042e-05
8714.0,4.91186e-05
8715.0,5.27328e-05
8716.0,5.63469e-05
8717.0,5.99612e-05
8718.0,6.3575e-05
8719.0,6.71888e-05
8720.0,7.08022e-05
8721.0,7.44124e-05
8722.0,7.80219e-05
8723.0,8.16309e-05
8724.0,8.52392e-05
8725.0,8.88476e-05
8726.0,9.24551e-05
8727.0,9.60624e-05
8728.0,9.96686e-05
8729.0,0.000103275
8730.0,0.00010688
8731.0,0.000110489
8732.0,0.000114098
8733.0,0.000117706
8734.0,0.000121314
8735.0,0.000124922
8736.0,0.000128529
8737.0,0.000132136
8738.0,0.000135743
8739.0,0.000139349
8740.0,0.000142956
8741.0,0.000146558
8742.0,0.00015016
8743.0,0.000153763
8744.0,0.000157364
8745.0,0.000160964
8746.0,0.000164564
8747.0,0.000168164
8748.0,0.000171764
8749.0,0.000175363
8750.0,0.000178961
8751.0,0.000194164
8752.0,0.000209364
8753.0,0.000224563
8754.0,0.00023976
8755.0,0.000254957
8756.0,0.000270151
8757.0,0.000285345
8758.0,0.000300535
8759.0,0.000315723
8760.0,0.000330911
8761.0,0.000346094
8762.0,0.000361274
8763.0,0.000376451
8764.0,0.000391628
8765.0,0.0004068
8766.0,0.000421973
8767.0,0.000437141
8768.0,0.00045231
8769.0,0.000467474
8770.0,0.000482637
8771.0,0.000497802
8772.0,0.000512963
8773.0,0.000528122
8774.0,0.000543281
8775.0,0.000558434
8776.0,0.000595326
8777.0,0.000632216
8778.0,0.0006691
8779.0,0.000705977
8780.0,0.000742851
8781.0,0.000792522
8782.0,0.000842185
8783.0,0.000891837
8784.0,0.000941486
8785.0,0.000991128
8786.0,0.00106189
8787.0,0.00113264
8788.0,0.00120339
8789.0,0.00127412
8790.0,0.00134484
8791.0,0.00144085
8792.0,0.00153683
8793.0,0.0016328
8794.0,0.00172876
8795.0,0.00182471
8796.0,0.00198072
8797.0,0.00213669
8798.0,0.00229265
8799.0,0.00244859
8800.0,0.00260449
8801.0,0.00280997
8802.0,0.00301537
8803.0,0.00322074
8804.0,0.00342608
8805.0,0.00363135
8806.0,0.00399289
8807.0,0.00435435
8808.0,0.00471571
8809.0,0.00507701
8810.0,0.00543825
8811.0,0.00590634
8812.0,0.00637436
8813.0,0.00684226
8814.0,0.00731012
8815.0,0.00777781
8816.0,0.00858621
8817.0,0.00939443
8818.0,0.0102025
8819.0,0.0110104
8820.0,0.0118181
8821.0,0.0129734
8822.0,0.0141285
8823.0,0.0152834
8824.0,0.016438
8825.0,0.0175924
8826.0,0.0213333
8827.0,0.0250732
8828.0,0.0288125
8829.0,0.0325511
8830.0,0.0362888
8831.0,0.0394419
8832.0,0.0425943
8833.0,0.0457459
8834.0,0.048897
8835.0,0.0520472
8836.0,0.0556112
8837.0,0.0591746
8838.0,0.0627373
8839.0,0.0662986
8840.0,0.0698596
8841.0,0.0754477
8842.0,0.0810344
8843.0,0.0866194
8844.0,0.0922038
8845.0,0.0977859
8846.0,0.100759
8847.0,0.103731
8848.0,0.106703
8849.0,0.109673
8850.0,0.112643
8851.0,0.115106
8852.0,0.117568
8853.0,0.12003
8854.0,0.12249
8855.0,0.12495
8856.0,0.123774
8857.0,0.122599
8858.0,0.121423
8859.0,0.120248
8860.0,0.119073
8861.0,0.119133
8862.0,0.119193
8863.0,0.119253
8864.0,0.119313
8865.0,0.119373
8866.0,0.119201
8867.0,0.119029
8868.0,0.118856
8869.0,0.118685
8870.0,0.118513
8871.0,0.117181
8872.0,0.115849
8873.0,0.114518
8874.0,0.113187
8875.0,0.111857
8876.0,0.11174
8877.0,0.111623
8878.0,0.111506
8879.0,0.11139
8880.0,0.111273
8881.0,0.1129
8882.0,0.114528
8883.0,0.116154
8884.0,0.11778
8885.0,0.119406
8886.0,0.11909
8887.0,0.118773
8888.0,0.118457
8889.0,0.118141
8890.0,0.117825
8891.0,0.120048
8892.0,0.122271
8893.0,0.124494
8894.0,0.126714
8895.0,0.128935
8896.0,0.128561
8897.0,0.128186
8898.0,0.127812
8899.0,0.127437
8900.0,0.127064
8901.0,0.127466
8902.0,0.127867
8903.0,0.128268
8904.0,0.12867
8905.0,0.129071
8906.0,0.129065
8907.0,0.129059
8908.0,0.129054
8909.0,0.129049
8910.0,0.129043
8911.0,0.130234
8912.0,0.131424
8913.0,0.132614
8914.0,0.133805
8915.0,0.134994
8916.0,0.133183
8917.0,0.131373
8918.0,0.129562
8919.0,0.127752
8920.0,0.125944
8921.0,0.127307
8922.0,0.12867
8923.0,0.130032
8924.0,0.131395
8925.0,0.132757
8926.0,0.131576
8927.0,0.130397
8928.0,0.129217
8929.0,0.128037
8930.0,0.126858
8931.0,0.126803
8932.0,0.126748
8933.0,0.126692
8934.0,0.126637
8935.0,0.126581
8936.0,0.127066
8937.0,0.127551
8938.0,0.128035
8939.0,0.128518
8940.0,0.129003
8941.0,0.12816
8942.0,0.127318
8943.0,0.126477
8944.0,0.125635
8945.0,0.124794
8946.0,0.124991
8947.0,0.125187
8948.0,0.125384
8949.0,0.125581
8950.0,0.125778
8951.0,0.126068
8952.0,0.126358
8953.0,0.126648
8954.0,0.126938
8955.0,0.127228
8956.0,0.126338
8957.0,0.125449
8958.0,0.124559
8959.0,0.12367
8960.0,0.122781
8961.0,0.122986
8962.0,0.123191
8963.0,0.123395
8964.0,0.123599
8965.0,0.123804
8966.0,0.124447
8967.0,0.125091
8968.0,0.125733
8969.0,0.126376
8970.0,0.127018
8971.0,0.127273
8972.0,0.127528
8973.0,0.127782
8974.0,0.128036
8975.0,0.128289
8976.0,0.128053
8977.0,0.127817
8978.0,0.127581
8979.0,0.127345
8980.0,0.127108
8981.0,0.123729
8982.0,0.12035
8983.0,0.116973
8984.0,0.113597
8985.0,0.110222
8986.0,0.105118
8987.0,0.100015
8988.0,0.0949145
8989.0,0.0898154
8990.0,0.0847185
8991.0,0.0793954
8992.0,0.0740745
8993.0,0.0687555
8994.0,0.0634381
8995.0,0.0581232
8996.0,0.0536338
8997.0,0.049146
8998.0,0.0446602
8999.0,0.0401759
9000.0,0.0356931
9001.0,0.0326723
9002.0,0.0296527
9003.0,0.026634
9004.0,0.0236164
9005.0,0.0206001
9006.0,0.0190354
9007.0,0.0174714
9008.0,0.015908
9009.0,0.0143451
9010.0,0.0127827
9011.0,0.0116911
9012.0,0.0106
9013.0,0.00950943
9014.0,0.00841944
9015.0,0.00733
9016.0,0.00683892
9017.0,0.00634808
9018.0,0.00585748
9019.0,0.00536714
9020.0,0.00487705
9021.0,0.00451172
9022.0,0.00414657
9023.0,0.00378155
9024.0,0.00341669
9025.0,0.00305197
9026.0,0.00287397
9027.0,0.00269603
9028.0,0.00251818
9029.0,0.0023404
9030.0,0.00216268
9031.0,0.00202863
9032.0,0.00189463
9033.0,0.00176071
9034.0,0.00162684
9035.0,0.00149304
9036.0,0.00141751
9037.0,0.00134203
9038.0,0.00126659
9039.0,0.00119118
9040.0,0.00111581
9041.0,0.00105945
9042.0,0.0010031
9043.0,0.000946779
9044.0,0.000890478
9045.0,0.000834202
9046.0,0.000813484
9047.0,0.000792771
9048.0,0.000772066
9049.0,0.000751372
9050.0,0.000730687
9051.0,0.000709981
9052.0,0.000689289
9053.0,0.000668602
9054.0,0.000647928
9055.0,0.000627265
9056.0,0.00060661
9057.0,0.000585965
9058.0,0.000565332
9059.0,0.00054471
9060.0,0.000524094
9061.0,0.000503493
9062.0,0.000482906
9063.0,0.000462325
9064.0,0.000441757
9065.0,0.000421198
9066.0,0.000400649
9067.0,0.000380109
9068.0,0.00035958
9069.0,0.000339061
9070.0,0.000318554
9071.0,0.000312835
9072.0,0.000307123
9073.0,0.000301409
9074.0,0.0002957
9075.0,0.000289993
9076.0,0.00028429
9077.0,0.000278589
9078.0,0.000272891
9079.0,0.000267196
9080.0,0.000261504
9081.0,0.000255817
9082.0,0.000250132
9083.0,0.00024445
9084.0,0.000238772
9085.0,0.000233095
9086.0,0.000227422
9087.0,0.000221752
9088.0,0.000216084
9089.0,0.00021042
9090.0,0.000204758
9091.0,0.000199105
9092.0,0.000193454
9093.0,0.000187806
9094.0,0.000182161
9095.0,0.000176518
9096.0,0.000170877
9097.0,0.00016524
9098.0,0.000159605
9099.0,0.000153974
9100.0,0.000148344
9101.0,0.000142712
9102.0,0.000137082
9103.0,0.000131456
9104.0,0.000125833
9105.0,0.000120213
9106.0,0.000114596
9107.0,0.000108983
9108.0,0.000103372
9109.0,9.77649e-05
9110.0,9.21608e-05
9111.0,9.04286e-05
9112.0,8.86973e-05
9113.0,8.69667e-05
9114.0,8.52365e-05
9115.0,8.35078e-05
9116.0,8.17797e-05
9117.0,8.00525e-05
9118.0,7.83261e-05
9119.0,7.66e-05
9120.0,7.48755e-05
9121.0,7.31491e-05
9122.0,7.1424e-05
9123.0,6.96995e-05
9124.0,6.79765e-05
9125.0,6.62539e-05
9126.0,6.45326e-05
9127.0,6.28117e-05
9128.0,6.10923e-05
9129.0,5.93739e-05
9130.0,5.76563e-05
9131.0,5.59405e-05
9132.0,5.42257e-05
9133.0,5.25119e-05
9134.0,5.07988e-05
9135.0,4.90867e-05
9136.0,4.73756e-05
9137.0,4.56654e-05
9138.0,4.39559e-05
9139.0,4.22476e-05
9140.0,4.05403e-05
9141.0,3.88329e-05
9142.0,3.71269e-05
9143.0,3.54216e-05
9144.0,3.37176e-05
9145.0,3.20142e-05
9146.0,3.03121e-05
9147.0,2.86108e-05
